PE IR       SUBTECH     SPECTRUM    ASCII       PEDS        4.00        
   -1
23ms139_nitro.asc
24/09/06
15:42:20.00
24/09/06
15:42:20.00
Administrator
Sample 1122 By Administrator Date Friday, September 06 2024
400.000000
#HDR
-1
-1
#GR
cm-1
%T
1.0
0.0
4000.000000
-1.000000
3601
8
82.187592
4.480098
#DATA
4000.000000	48.147302
3999.000000	48.182749
3998.000000	48.218362
3997.000000	48.254223
3996.000000	48.290150
3995.000000	48.325732
3994.000000	48.360542
3993.000000	48.394557
3992.000000	48.428331
3991.000000	48.462617
3990.000000	48.497584
3989.000000	48.532508
3988.000000	48.566523
3987.000000	48.599598
3986.000000	48.632450
3985.000000	48.665508
3984.000000	48.698474
3983.000000	48.730991
3982.000000	48.763157
3981.000000	48.795134
3980.000000	48.826644
3979.000000	48.857214
3978.000000	48.886815
3977.000000	48.916070
3976.000000	48.945510
3975.000000	48.974803
3974.000000	49.003144
3973.000000	49.030397
3972.000000	49.057459
3971.000000	49.085572
3970.000000	49.115536
3969.000000	49.147217
3968.000000	49.179464
3967.000000	49.210652
3966.000000	49.239624
3965.000000	49.266391
3964.000000	49.292250
3963.000000	49.318834
3962.000000	49.346864
3961.000000	49.375701
3960.000000	49.404069
3959.000000	49.431478
3958.000000	49.459098
3957.000000	49.488528
3956.000000	49.519684
3955.000000	49.550455
3954.000000	49.578572
3953.000000	49.603363
3952.000000	49.626098
3951.000000	49.649326
3950.000000	49.675348
3949.000000	49.703959
3948.000000	49.732263
3947.000000	49.757648
3946.000000	49.780327
3945.000000	49.803503
3944.000000	49.831732
3943.000000	49.867744
3942.000000	49.909098
3941.000000	49.949300
3940.000000	49.983556
3939.000000	50.012619
3938.000000	50.040751
3937.000000	50.070402
3936.000000	50.099606
3935.000000	50.124859
3934.000000	50.146575
3933.000000	50.169703
3932.000000	50.198193
3931.000000	50.230068
3930.000000	50.259596
3929.000000	50.284042
3928.000000	50.306110
3927.000000	50.330765
3926.000000	50.361283
3925.000000	50.398121
3924.000000	50.437942
3923.000000	50.473477
3922.000000	50.498811
3921.000000	50.515553
3920.000000	50.531732
3919.000000	50.553935
3918.000000	50.582484
3917.000000	50.614826
3916.000000	50.649674
3915.000000	50.686140
3914.000000	50.722289
3913.000000	50.757560
3912.000000	50.793810
3911.000000	50.831132
3910.000000	50.866293
3909.000000	50.895640
3908.000000	50.919125
3907.000000	50.938342
3906.000000	50.953691
3905.000000	50.964380
3904.000000	50.971443
3903.000000	50.977224
3902.000000	50.983724
3901.000000	50.993616
3900.000000	51.011597
3899.000000	51.041791
3898.000000	51.081174
3897.000000	51.121539
3896.000000	51.158184
3895.000000	51.194055
3894.000000	51.234382
3893.000000	51.279174
3892.000000	51.322155
3891.000000	51.357411
3890.000000	51.385525
3889.000000	51.407474
3888.000000	51.420648
3887.000000	51.426125
3886.000000	51.435083
3885.000000	51.457861
3884.000000	51.488950
3883.000000	51.513597
3882.000000	51.529890
3881.000000	51.551428
3880.000000	51.587132
3879.000000	51.629240
3878.000000	51.663489
3877.000000	51.683358
3876.000000	51.695219
3875.000000	51.713764
3874.000000	51.749727
3873.000000	51.796419
3872.000000	51.832111
3871.000000	51.843973
3870.000000	51.845385
3869.000000	51.858425
3868.000000	51.883650
3867.000000	51.902162
3866.000000	51.907944
3865.000000	51.921022
3864.000000	51.960303
3863.000000	52.016494
3862.000000	52.065947
3861.000000	52.099609
3860.000000	52.127844
3859.000000	52.166805
3858.000000	52.227680
3857.000000	52.306167
3856.000000	52.377618
3855.000000	52.407441
3854.000000	52.387720
3853.000000	52.352512
3852.000000	52.332547
3851.000000	52.328463
3850.000000	52.336523
3849.000000	52.361885
3848.000000	52.408846
3847.000000	52.471007
3846.000000	52.535222
3845.000000	52.590975
3844.000000	52.633618
3843.000000	52.664733
3842.000000	52.690335
3841.000000	52.712978
3840.000000	52.730652
3839.000000	52.742266
3838.000000	52.750938
3837.000000	52.761578
3836.000000	52.778671
3835.000000	52.803273
3834.000000	52.834276
3833.000000	52.870585
3832.000000	52.912705
3831.000000	52.960487
3830.000000	53.009433
3829.000000	53.053318
3828.000000	53.089691
3827.000000	53.122039
3826.000000	53.157024
3825.000000	53.195327
3824.000000	53.226081
3823.000000	53.238224
3822.000000	53.239996
3821.000000	53.254660
3820.000000	53.291843
3819.000000	53.333759
3818.000000	53.358797
3817.000000	53.367124
3816.000000	53.381251
3815.000000	53.421077
3814.000000	53.477708
3813.000000	53.526479
3812.000000	53.561432
3811.000000	53.598034
3810.000000	53.646796
3809.000000	53.697929
3808.000000	53.733361
3807.000000	53.751257
3806.000000	53.767291
3805.000000	53.789046
3804.000000	53.805783
3803.000000	53.808880
3802.000000	53.808593
3801.000000	53.823357
3800.000000	53.855303
3799.000000	53.887676
3798.000000	53.912577
3797.000000	53.941828
3796.000000	53.989212
3795.000000	54.053074
3794.000000	54.117791
3793.000000	54.171545
3792.000000	54.216118
3791.000000	54.259213
3790.000000	54.302065
3789.000000	54.339915
3788.000000	54.370097
3787.000000	54.395526
3786.000000	54.420607
3785.000000	54.447599
3784.000000	54.476410
3783.000000	54.505192
3782.000000	54.531315
3781.000000	54.555941
3780.000000	54.585696
3779.000000	54.624894
3778.000000	54.668521
3777.000000	54.706352
3776.000000	54.733750
3775.000000	54.756109
3774.000000	54.782935
3773.000000	54.816274
3772.000000	54.848544
3771.000000	54.873923
3770.000000	54.896756
3769.000000	54.922860
3768.000000	54.950260
3767.000000	54.974895
3766.000000	54.999490
3765.000000	55.030915
3764.000000	55.070372
3763.000000	55.108426
3762.000000	55.134234
3761.000000	55.150770
3760.000000	55.172964
3759.000000	55.206638
3758.000000	55.242186
3757.000000	55.272603
3756.000000	55.302217
3755.000000	55.332818
3754.000000	55.358575
3753.000000	55.376439
3752.000000	55.391454
3751.000000	55.404328
3750.000000	55.406629
3749.000000	55.404009
3748.000000	55.417876
3747.000000	55.451248
3746.000000	55.484696
3745.000000	55.508365
3744.000000	55.538686
3743.000000	55.589846
3742.000000	55.645582
3741.000000	55.687652
3740.000000	55.722950
3739.000000	55.763124
3738.000000	55.805062
3737.000000	55.841228
3736.000000	55.879984
3735.000000	55.933252
3734.000000	55.990758
3733.000000	56.032700
3732.000000	56.060534
3731.000000	56.093510
3730.000000	56.142005
3729.000000	56.198082
3728.000000	56.250795
3727.000000	56.301704
3726.000000	56.358418
3725.000000	56.417606
3724.000000	56.466652
3723.000000	56.503224
3722.000000	56.537603
3721.000000	56.577690
3720.000000	56.622779
3719.000000	56.668074
3718.000000	56.710843
3717.000000	56.753238
3716.000000	56.797104
3715.000000	56.837058
3714.000000	56.865222
3713.000000	56.882471
3712.000000	56.900994
3711.000000	56.930533
3710.000000	56.967945
3709.000000	57.005768
3708.000000	57.042658
3707.000000	57.083135
3706.000000	57.131157
3705.000000	57.184880
3704.000000	57.239962
3703.000000	57.295790
3702.000000	57.354453
3701.000000	57.413558
3700.000000	57.466999
3699.000000	57.511231
3698.000000	57.547398
3697.000000	57.580906
3696.000000	57.617064
3695.000000	57.653526
3694.000000	57.682474
3693.000000	57.703613
3692.000000	57.727198
3691.000000	57.761263
3690.000000	57.800476
3689.000000	57.832410
3688.000000	57.854903
3687.000000	57.880100
3686.000000	57.916565
3685.000000	57.960020
3684.000000	58.005484
3683.000000	58.052332
3682.000000	58.098716
3681.000000	58.139397
3680.000000	58.174210
3679.000000	58.207692
3678.000000	58.233782
3677.000000	58.240435
3676.000000	58.238415
3675.000000	58.256386
3674.000000	58.295637
3673.000000	58.328403
3672.000000	58.337442
3671.000000	58.342302
3670.000000	58.382008
3669.000000	58.464495
3668.000000	58.555343
3667.000000	58.626667
3666.000000	58.682396
3665.000000	58.739131
3664.000000	58.806489
3663.000000	58.881240
3662.000000	58.954081
3661.000000	59.018125
3660.000000	59.070715
3659.000000	59.109254
3658.000000	59.130952
3657.000000	59.139384
3656.000000	59.145296
3655.000000	59.156681
3654.000000	59.168594
3653.000000	59.169185
3652.000000	59.154252
3651.000000	59.136243
3650.000000	59.136057
3649.000000	59.161441
3648.000000	59.202928
3647.000000	59.252822
3646.000000	59.309958
3645.000000	59.370557
3644.000000	59.431150
3643.000000	59.492753
3642.000000	59.557841
3641.000000	59.623512
3640.000000	59.681640
3639.000000	59.727279
3638.000000	59.763630
3637.000000	59.795663
3636.000000	59.823546
3635.000000	59.847058
3634.000000	59.871709
3633.000000	59.901234
3632.000000	59.924981
3631.000000	59.924841
3630.000000	59.903237
3629.000000	59.892676
3628.000000	59.914607
3627.000000	59.952313
3626.000000	59.984011
3625.000000	60.008529
3624.000000	60.036480
3623.000000	60.073989
3622.000000	60.114222
3621.000000	60.145579
3620.000000	60.167257
3619.000000	60.187417
3618.000000	60.207079
3617.000000	60.219725
3616.000000	60.222961
3615.000000	60.223726
3614.000000	60.234649
3613.000000	60.261918
3612.000000	60.296935
3611.000000	60.325274
3610.000000	60.343846
3609.000000	60.366725
3608.000000	60.410382
3607.000000	60.473192
3606.000000	60.536715
3605.000000	60.585084
3604.000000	60.616813
3603.000000	60.641168
3602.000000	60.666849
3601.000000	60.695221
3600.000000	60.722539
3599.000000	60.744013
3598.000000	60.757808
3597.000000	60.769017
3596.000000	60.786769
3595.000000	60.817265
3594.000000	60.857870
3593.000000	60.897372
3592.000000	60.923332
3591.000000	60.930101
3590.000000	60.921885
3589.000000	60.915356
3588.000000	60.932935
3587.000000	60.980641
3586.000000	61.039199
3585.000000	61.087256
3584.000000	61.121650
3583.000000	61.152398
3582.000000	61.188623
3581.000000	61.231187
3580.000000	61.275360
3579.000000	61.316590
3578.000000	61.352777
3577.000000	61.383764
3576.000000	61.410942
3575.000000	61.436483
3574.000000	61.461335
3573.000000	61.483616
3572.000000	61.498975
3571.000000	61.502863
3570.000000	61.493078
3569.000000	61.476519
3568.000000	61.473811
3567.000000	61.504649
3566.000000	61.563937
3565.000000	61.628237
3564.000000	61.682247
3563.000000	61.727294
3562.000000	61.771220
3561.000000	61.817961
3560.000000	61.865674
3559.000000	61.910829
3558.000000	61.951152
3557.000000	61.985764
3556.000000	62.016092
3555.000000	62.046443
3554.000000	62.081855
3553.000000	62.124034
3552.000000	62.168790
3551.000000	62.208102
3550.000000	62.235943
3549.000000	62.253638
3548.000000	62.271079
3547.000000	62.300633
3546.000000	62.346303
3545.000000	62.400413
3544.000000	62.452464
3543.000000	62.497977
3542.000000	62.538179
3541.000000	62.575763
3540.000000	62.613724
3539.000000	62.654981
3538.000000	62.700049
3537.000000	62.745629
3536.000000	62.786644
3535.000000	62.819803
3534.000000	62.844783
3533.000000	62.863672
3532.000000	62.880609
3531.000000	62.900551
3530.000000	62.926477
3529.000000	62.958569
3528.000000	62.996222
3527.000000	63.039190
3526.000000	63.085811
3525.000000	63.132469
3524.000000	63.176118
3523.000000	63.215408
3522.000000	63.249194
3521.000000	63.276740
3520.000000	63.300342
3519.000000	63.325389
3518.000000	63.356178
3517.000000	63.392617
3516.000000	63.431338
3515.000000	63.468415
3514.000000	63.500133
3513.000000	63.523400
3512.000000	63.538556
3511.000000	63.551027
3510.000000	63.566723
3509.000000	63.585974
3508.000000	63.604073
3507.000000	63.617548
3506.000000	63.627901
3505.000000	63.640457
3504.000000	63.660486
3503.000000	63.688693
3502.000000	63.719784
3501.000000	63.746964
3500.000000	63.767924
3499.000000	63.784750
3498.000000	63.799078
3497.000000	63.809744
3496.000000	63.815044
3495.000000	63.814916
3494.000000	63.810127
3493.000000	63.801299
3492.000000	63.790176
3491.000000	63.780357
3490.000000	63.775017
3489.000000	63.774578
3488.000000	63.776986
3487.000000	63.778503
3486.000000	63.774168
3485.000000	63.760726
3484.000000	63.740789
3483.000000	63.721878
3482.000000	63.708769
3481.000000	63.697934
3480.000000	63.681260
3479.000000	63.654138
3478.000000	63.618528
3477.000000	63.580316
3476.000000	63.545774
3475.000000	63.518643
3474.000000	63.498449
3473.000000	63.481925
3472.000000	63.466074
3471.000000	63.448505
3470.000000	63.424920
3469.000000	63.389040
3468.000000	63.336988
3467.000000	63.270574
3466.000000	63.195525
3465.000000	63.118371
3464.000000	63.045648
3463.000000	62.982690
3462.000000	62.929930
3461.000000	62.881541
3460.000000	62.829809
3459.000000	62.770397
3458.000000	62.702948
3457.000000	62.628586
3456.000000	62.548632
3455.000000	62.464451
3454.000000	62.376711
3453.000000	62.285481
3452.000000	62.191882
3451.000000	62.098107
3450.000000	62.005231
3449.000000	61.912928
3448.000000	61.821795
3447.000000	61.733057
3446.000000	61.644783
3445.000000	61.551438
3444.000000	61.448967
3443.000000	61.338512
3442.000000	61.224125
3441.000000	61.108805
3440.000000	60.993830
3439.000000	60.879634
3438.000000	60.765017
3437.000000	60.646344
3436.000000	60.519816
3435.000000	60.384453
3434.000000	60.242090
3433.000000	60.095521
3432.000000	59.946599
3431.000000	59.794505
3430.000000	59.635227
3429.000000	59.464335
3428.000000	59.281321
3427.000000	59.089756
3426.000000	58.893650
3425.000000	58.695382
3424.000000	58.496629
3423.000000	58.298970
3422.000000	58.102460
3421.000000	57.905416
3420.000000	57.705987
3419.000000	57.502523
3418.000000	57.292850
3417.000000	57.074934
3416.000000	56.848463
3415.000000	56.613745
3414.000000	56.369162
3413.000000	56.112673
3412.000000	55.845711
3411.000000	55.573169
3410.000000	55.298692
3409.000000	55.021786
3408.000000	54.740459
3407.000000	54.454153
3406.000000	54.163573
3405.000000	53.869495
3404.000000	53.571761
3403.000000	53.267886
3402.000000	52.951999
3401.000000	52.617541
3400.000000	52.262718
3399.000000	51.892660
3398.000000	51.516337
3397.000000	51.141536
3396.000000	50.771619
3395.000000	50.405177
3394.000000	50.037288
3393.000000	49.661962
3392.000000	49.274199
3391.000000	48.870594
3390.000000	48.450373
3389.000000	48.016422
3388.000000	47.574230
3387.000000	47.128161
3386.000000	46.679217
3385.000000	46.227447
3384.000000	45.774055
3383.000000	45.319916
3382.000000	44.863565
3381.000000	44.402550
3380.000000	43.935990
3379.000000	43.463918
3378.000000	42.985419
3377.000000	42.499245
3376.000000	42.005491
3375.000000	41.505678
3374.000000	41.001815
3373.000000	40.496201
3372.000000	39.990844
3371.000000	39.485447
3370.000000	38.977499
3369.000000	38.465117
3368.000000	37.948733
3367.000000	37.429521
3366.000000	36.907899
3365.000000	36.384681
3364.000000	35.861516
3363.000000	35.338817
3362.000000	34.814992
3361.000000	34.288884
3360.000000	33.761574
3359.000000	33.234949
3358.000000	32.710344
3357.000000	32.189502
3356.000000	31.674717
3355.000000	31.166653
3354.000000	30.663631
3353.000000	30.163776
3352.000000	29.666108
3351.000000	29.169347
3350.000000	28.672024
3349.000000	28.174684
3348.000000	27.680032
3347.000000	27.190028
3346.000000	26.704907
3345.000000	26.225218
3344.000000	25.752402
3343.000000	25.286898
3342.000000	24.827759
3341.000000	24.374726
3340.000000	23.928283
3339.000000	23.487441
3338.000000	23.050202
3337.000000	22.616365
3336.000000	22.187731
3335.000000	21.765265
3334.000000	21.348500
3333.000000	20.938012
3332.000000	20.535278
3331.000000	20.140157
3330.000000	19.751023
3329.000000	19.367482
3328.000000	18.990837
3327.000000	18.621489
3326.000000	18.258809
3325.000000	17.903317
3324.000000	17.555982
3323.000000	17.215870
3322.000000	16.880987
3321.000000	16.551453
3320.000000	16.229322
3319.000000	15.915156
3318.000000	15.608174
3317.000000	15.308746
3316.000000	15.018035
3315.000000	14.735636
3314.000000	14.460146
3313.000000	14.191905
3312.000000	13.931981
3311.000000	13.679169
3310.000000	13.431595
3309.000000	13.190241
3308.000000	12.958335
3307.000000	12.737547
3306.000000	12.527778
3305.000000	12.330128
3304.000000	12.145653
3303.000000	11.972447
3302.000000	11.806981
3301.000000	11.647980
3300.000000	11.496396
3299.000000	11.351980
3298.000000	11.213658
3297.000000	11.082475
3296.000000	10.960416
3295.000000	10.847349
3294.000000	10.741823
3293.000000	10.644523
3292.000000	10.557637
3291.000000	10.480885
3290.000000	10.412088
3289.000000	10.350211
3288.000000	10.295201
3287.000000	10.245624
3286.000000	10.199439
3285.000000	10.157029
3284.000000	10.119863
3283.000000	10.087331
3282.000000	10.057804
3281.000000	10.031613
3280.000000	10.010076
3279.000000	9.992263
3278.000000	9.976164
3277.000000	9.962238
3276.000000	9.952385
3275.000000	9.946262
3274.000000	9.941684
3273.000000	9.938180
3272.000000	9.937241
3271.000000	9.939485
3270.000000	9.944467
3269.000000	9.952331
3268.000000	9.962870
3267.000000	9.973988
3266.000000	9.983791
3265.000000	9.993387
3264.000000	10.005005
3263.000000	10.018357
3262.000000	10.031760
3261.000000	10.045346
3260.000000	10.060233
3259.000000	10.075733
3258.000000	10.090487
3257.000000	10.105502
3256.000000	10.122902
3255.000000	10.142553
3254.000000	10.162627
3253.000000	10.182611
3252.000000	10.202964
3251.000000	10.222849
3250.000000	10.241169
3249.000000	10.259074
3248.000000	10.278767
3247.000000	10.300611
3246.000000	10.323684
3245.000000	10.347988
3244.000000	10.373579
3243.000000	10.398722
3242.000000	10.421685
3241.000000	10.443282
3240.000000	10.465239
3239.000000	10.487161
3238.000000	10.507593
3237.000000	10.526771
3236.000000	10.545904
3235.000000	10.565068
3234.000000	10.584213
3233.000000	10.604835
3232.000000	10.627967
3231.000000	10.651797
3230.000000	10.673845
3229.000000	10.694108
3228.000000	10.713663
3227.000000	10.731819
3226.000000	10.747376
3225.000000	10.761296
3224.000000	10.775292
3223.000000	10.789098
3222.000000	10.801716
3221.000000	10.813965
3220.000000	10.827062
3219.000000	10.839877
3218.000000	10.850360
3217.000000	10.858488
3216.000000	10.865374
3215.000000	10.870880
3214.000000	10.874500
3213.000000	10.877316
3212.000000	10.880458
3211.000000	10.882879
3210.000000	10.883082
3209.000000	10.881576
3208.000000	10.879416
3207.000000	10.875823
3206.000000	10.869648
3205.000000	10.861777
3204.000000	10.853475
3203.000000	10.843932
3202.000000	10.831848
3201.000000	10.817936
3200.000000	10.803514
3199.000000	10.788082
3198.000000	10.770764
3197.000000	10.752503
3196.000000	10.734340
3195.000000	10.715223
3194.000000	10.693934
3193.000000	10.671554
3192.000000	10.649577
3191.000000	10.627160
3190.000000	10.602876
3189.000000	10.577423
3188.000000	10.552136
3187.000000	10.526455
3186.000000	10.499436
3185.000000	10.472165
3184.000000	10.446023
3183.000000	10.420200
3182.000000	10.393425
3181.000000	10.366592
3180.000000	10.341167
3179.000000	10.316614
3178.000000	10.291855
3177.000000	10.267648
3176.000000	10.245017
3175.000000	10.222997
3174.000000	10.200471
3173.000000	10.178601
3172.000000	10.158962
3171.000000	10.140971
3170.000000	10.123553
3169.000000	10.107607
3168.000000	10.094381
3167.000000	10.082984
3166.000000	10.072056
3165.000000	10.062206
3164.000000	10.054450
3163.000000	10.048053
3162.000000	10.042134
3161.000000	10.037752
3160.000000	10.035975
3159.000000	10.035673
3158.000000	10.035591
3157.000000	10.036637
3156.000000	10.039962
3155.000000	10.044739
3154.000000	10.050266
3153.000000	10.058323
3152.000000	10.070675
3151.000000	10.086168
3150.000000	10.102677
3149.000000	10.120111
3148.000000	10.139164
3147.000000	10.158940
3146.000000	10.178472
3145.000000	10.198806
3144.000000	10.221116
3143.000000	10.244607
3142.000000	10.268510
3141.000000	10.294375
3140.000000	10.323878
3139.000000	10.356055
3138.000000	10.389181
3137.000000	10.423513
3136.000000	10.459890
3135.000000	10.497413
3134.000000	10.534825
3133.000000	10.572706
3132.000000	10.612052
3131.000000	10.652488
3130.000000	10.693925
3129.000000	10.737884
3128.000000	10.785072
3127.000000	10.833483
3126.000000	10.881152
3125.000000	10.928869
3124.000000	10.977993
3123.000000	11.027770
3122.000000	11.077184
3121.000000	11.127500
3120.000000	11.180451
3119.000000	11.235556
3118.000000	11.291714
3117.000000	11.349712
3116.000000	11.410785
3115.000000	11.474308
3114.000000	11.538940
3113.000000	11.604555
3112.000000	11.671091
3111.000000	11.737361
3110.000000	11.803041
3109.000000	11.869965
3108.000000	11.939506
3107.000000	12.010407
3106.000000	12.081025
3105.000000	12.151835
3104.000000	12.223814
3103.000000	12.296470
3102.000000	12.369511
3101.000000	12.444431
3100.000000	12.522351
3099.000000	12.602004
3098.000000	12.681915
3097.000000	12.762611
3096.000000	12.844633
3095.000000	12.926505
3094.000000	13.006819
3093.000000	13.086573
3092.000000	13.167389
3091.000000	13.249164
3090.000000	13.331457
3089.000000	13.415245
3088.000000	13.501228
3087.000000	13.588149
3086.000000	13.674808
3085.000000	13.762053
3084.000000	13.850812
3083.000000	13.939891
3082.000000	14.027835
3081.000000	14.115308
3080.000000	14.203782
3079.000000	14.293370
3078.000000	14.383733
3077.000000	14.475457
3076.000000	14.568712
3075.000000	14.662208
3074.000000	14.755143
3073.000000	14.848505
3072.000000	14.942865
3071.000000	15.036644
3070.000000	15.128384
3069.000000	15.219053
3068.000000	15.310389
3067.000000	15.402637
3066.000000	15.495500
3065.000000	15.589552
3064.000000	15.684902
3063.000000	15.780133
3062.000000	15.874218
3061.000000	15.967946
3060.000000	16.062047
3059.000000	16.155775
3058.000000	16.248787
3057.000000	16.342490
3056.000000	16.437739
3055.000000	16.532968
3054.000000	16.626392
3053.000000	16.718453
3052.000000	16.810516
3051.000000	16.902822
3050.000000	16.995284
3049.000000	17.088583
3048.000000	17.182814
3047.000000	17.276627
3046.000000	17.369282
3045.000000	17.462001
3044.000000	17.555906
3043.000000	17.650267
3042.000000	17.744191
3041.000000	17.838190
3040.000000	17.932525
3039.000000	18.025775
3038.000000	18.116755
3037.000000	18.206338
3036.000000	18.295995
3035.000000	18.386103
3034.000000	18.477066
3033.000000	18.570264
3032.000000	18.666121
3031.000000	18.762744
3030.000000	18.858018
3029.000000	18.951635
3028.000000	19.043856
3027.000000	19.134080
3026.000000	19.222207
3025.000000	19.309792
3024.000000	19.398257
3023.000000	19.487365
3022.000000	19.576697
3021.000000	19.667029
3020.000000	19.758820
3019.000000	19.850861
3018.000000	19.941867
3017.000000	20.031970
3016.000000	20.121437
3015.000000	20.209575
3014.000000	20.296272
3013.000000	20.383074
3012.000000	20.471306
3011.000000	20.560545
3010.000000	20.650077
3009.000000	20.740261
3008.000000	20.831231
3007.000000	20.921948
3006.000000	21.011800
3005.000000	21.101586
3004.000000	21.191653
3003.000000	21.280660
3002.000000	21.367494
3001.000000	21.452894
3000.000000	21.537999
2999.000000	21.622823
2998.000000	21.707378
2997.000000	21.792641
2996.000000	21.879010
2995.000000	21.965362
2994.000000	22.050957
2993.000000	22.136802
2992.000000	22.223839
2991.000000	22.311294
2990.000000	22.398164
2989.000000	22.484846
2988.000000	22.571898
2987.000000	22.658593
2986.000000	22.744036
2985.000000	22.828399
2984.000000	22.911860
2983.000000	22.993816
2982.000000	23.074457
2981.000000	23.155729
2980.000000	23.239320
2979.000000	23.324798
2978.000000	23.410903
2977.000000	23.497330
2976.000000	23.584049
2975.000000	23.670256
2974.000000	23.755362
2973.000000	23.839827
2972.000000	23.923880
2971.000000	24.006636
2970.000000	24.087681
2969.000000	24.168290
2968.000000	24.249895
2967.000000	24.332582
2966.000000	24.416064
2965.000000	24.500650
2964.000000	24.586016
2963.000000	24.670443
2962.000000	24.752646
2961.000000	24.833109
2960.000000	24.912538
2959.000000	24.990522
2958.000000	25.066910
2957.000000	25.143019
2956.000000	25.220058
2955.000000	25.297771
2954.000000	25.375860
2953.000000	25.455231
2952.000000	25.536353
2951.000000	25.617676
2950.000000	25.697164
2949.000000	25.774385
2948.000000	25.850008
2947.000000	25.924449
2946.000000	25.998246
2945.000000	26.072632
2944.000000	26.148502
2943.000000	26.225590
2942.000000	26.303458
2941.000000	26.382167
2940.000000	26.461189
2939.000000	26.539043
2938.000000	26.615041
2937.000000	26.690176
2936.000000	26.765318
2935.000000	26.839842
2934.000000	26.913071
2933.000000	26.985646
2932.000000	27.058318
2931.000000	27.130698
2930.000000	27.202359
2929.000000	27.273910
2928.000000	27.345742
2927.000000	27.417017
2926.000000	27.487097
2925.000000	27.556734
2924.000000	27.626758
2923.000000	27.696794
2922.000000	27.766385
2921.000000	27.836008
2920.000000	27.905840
2919.000000	27.974803
2918.000000	28.041965
2917.000000	28.107797
2916.000000	28.173090
2915.000000	28.237805
2914.000000	28.301970
2913.000000	28.366506
2912.000000	28.432151
2911.000000	28.498567
2910.000000	28.565305
2909.000000	28.632585
2908.000000	28.700227
2907.000000	28.766897
2906.000000	28.831429
2905.000000	28.894043
2904.000000	28.955513
2903.000000	29.016191
2902.000000	29.076510
2901.000000	29.137667
2900.000000	29.200738
2899.000000	29.265641
2898.000000	29.331812
2897.000000	29.398421
2896.000000	29.463900
2895.000000	29.526401
2894.000000	29.585631
2893.000000	29.643210
2892.000000	29.700643
2891.000000	29.758046
2890.000000	29.815355
2889.000000	29.873402
2888.000000	29.932842
2887.000000	29.993151
2886.000000	30.053633
2885.000000	30.114405
2884.000000	30.175565
2883.000000	30.236382
2882.000000	30.296190
2881.000000	30.355182
2880.000000	30.413610
2879.000000	30.471315
2878.000000	30.528989
2877.000000	30.588694
2876.000000	30.651667
2875.000000	30.716104
2874.000000	30.778250
2873.000000	30.835487
2872.000000	30.887958
2871.000000	30.937936
2870.000000	30.988397
2869.000000	31.041516
2868.000000	31.097441
2867.000000	31.154547
2866.000000	31.211291
2865.000000	31.267463
2864.000000	31.323660
2863.000000	31.380287
2862.000000	31.437324
2861.000000	31.494168
2860.000000	31.549472
2859.000000	31.602192
2858.000000	31.653218
2857.000000	31.705026
2856.000000	31.759251
2855.000000	31.815474
2854.000000	31.872585
2853.000000	31.930121
2852.000000	31.987815
2851.000000	32.045033
2850.000000	32.101266
2849.000000	32.156241
2848.000000	32.209272
2847.000000	32.259732
2846.000000	32.308701
2845.000000	32.358965
2844.000000	32.412829
2843.000000	32.470767
2842.000000	32.532201
2841.000000	32.595873
2840.000000	32.658854
2839.000000	32.717083
2838.000000	32.768524
2837.000000	32.815079
2836.000000	32.860449
2835.000000	32.906958
2834.000000	32.955142
2833.000000	33.005155
2832.000000	33.057162
2831.000000	33.110831
2830.000000	33.165613
2829.000000	33.221316
2828.000000	33.277775
2827.000000	33.334435
2826.000000	33.390862
2825.000000	33.447171
2824.000000	33.503416
2823.000000	33.559168
2822.000000	33.614262
2821.000000	33.669246
2820.000000	33.724466
2819.000000	33.779363
2818.000000	33.833297
2817.000000	33.886427
2816.000000	33.939233
2815.000000	33.991867
2814.000000	34.044629
2813.000000	34.098265
2812.000000	34.152900
2811.000000	34.207197
2810.000000	34.259380
2809.000000	34.308748
2808.000000	34.355620
2807.000000	34.400397
2806.000000	34.443444
2805.000000	34.485406
2804.000000	34.526940
2803.000000	34.568418
2802.000000	34.610332
2801.000000	34.653421
2800.000000	34.697729
2799.000000	34.742066
2798.000000	34.785136
2797.000000	34.826797
2796.000000	34.867636
2795.000000	34.907831
2794.000000	34.947216
2793.000000	34.986102
2792.000000	35.025218
2791.000000	35.064955
2790.000000	35.105238
2789.000000	35.146020
2788.000000	35.187448
2787.000000	35.229724
2786.000000	35.273072
2785.000000	35.317513
2784.000000	35.362359
2783.000000	35.406265
2782.000000	35.448155
2781.000000	35.487806
2780.000000	35.525339
2779.000000	35.560781
2778.000000	35.594442
2777.000000	35.627031
2776.000000	35.658847
2775.000000	35.689189
2774.000000	35.716999
2773.000000	35.741666
2772.000000	35.762741
2771.000000	35.779584
2770.000000	35.791870
2769.000000	35.800003
2768.000000	35.804559
2767.000000	35.805555
2766.000000	35.802809
2765.000000	35.796535
2764.000000	35.787074
2763.000000	35.774655
2762.000000	35.759895
2761.000000	35.744088
2760.000000	35.728467
2759.000000	35.713458
2758.000000	35.699179
2757.000000	35.685956
2756.000000	35.673708
2755.000000	35.661332
2754.000000	35.647350
2753.000000	35.630816
2752.000000	35.611005
2751.000000	35.586869
2750.000000	35.557620
2749.000000	35.523452
2748.000000	35.485165
2747.000000	35.443303
2746.000000	35.398236
2745.000000	35.350604
2744.000000	35.300791
2743.000000	35.248398
2742.000000	35.192943
2741.000000	35.134853
2740.000000	35.075528
2739.000000	35.016952
2738.000000	34.961814
2737.000000	34.913795
2736.000000	34.876931
2735.000000	34.854743
2734.000000	34.850232
2733.000000	34.865247
2732.000000	34.899433
2731.000000	34.950376
2730.000000	35.015001
2729.000000	35.090988
2728.000000	35.176096
2727.000000	35.267329
2726.000000	35.361966
2725.000000	35.458544
2724.000000	35.556641
2723.000000	35.655966
2722.000000	35.756078
2721.000000	35.856604
2720.000000	35.956764
2719.000000	36.054956
2718.000000	36.149310
2717.000000	36.238334
2716.000000	36.320667
2715.000000	36.394955
2714.000000	36.460454
2713.000000	36.517616
2712.000000	36.567607
2711.000000	36.611137
2710.000000	36.648508
2709.000000	36.680127
2708.000000	36.706434
2707.000000	36.727779
2706.000000	36.744568
2705.000000	36.757673
2704.000000	36.768021
2703.000000	36.775994
2702.000000	36.781795
2701.000000	36.785743
2700.000000	36.787828
2699.000000	36.787228
2698.000000	36.782975
2697.000000	36.775139
2696.000000	36.764751
2695.000000	36.752939
2694.000000	36.740703
2693.000000	36.729200
2692.000000	36.719549
2691.000000	36.712191
2690.000000	36.706789
2689.000000	36.702550
2688.000000	36.698241
2687.000000	36.692212
2686.000000	36.683024
2685.000000	36.670144
2684.000000	36.653957
2683.000000	36.635557
2682.000000	36.616906
2681.000000	36.600623
2680.000000	36.588770
2679.000000	36.581839
2678.000000	36.579188
2677.000000	36.579935
2676.000000	36.583073
2675.000000	36.587194
2674.000000	36.590950
2673.000000	36.593967
2672.000000	36.596952
2671.000000	36.601366
2670.000000	36.609257
2669.000000	36.622727
2668.000000	36.642822
2667.000000	36.668740
2666.000000	36.698434
2665.000000	36.729726
2664.000000	36.760497
2663.000000	36.788566
2662.000000	36.812157
2661.000000	36.830487
2660.000000	36.843686
2659.000000	36.852471
2658.000000	36.858203
2657.000000	36.862874
2656.000000	36.868322
2655.000000	36.875398
2654.000000	36.884219
2653.000000	36.894825
2652.000000	36.907258
2651.000000	36.921549
2650.000000	36.938241
2649.000000	36.958552
2648.000000	36.983669
2647.000000	37.013985
2646.000000	37.049412
2645.000000	37.090260
2644.000000	37.136931
2643.000000	37.189342
2642.000000	37.246972
2641.000000	37.309212
2640.000000	37.375389
2639.000000	37.444323
2638.000000	37.514572
2637.000000	37.584924
2636.000000	37.654192
2635.000000	37.720723
2634.000000	37.782561
2633.000000	37.838115
2632.000000	37.886547
2631.000000	37.927810
2630.000000	37.962521
2629.000000	37.992014
2628.000000	38.017954
2627.000000	38.041743
2626.000000	38.064515
2625.000000	38.087005
2624.000000	38.109248
2623.000000	38.130375
2622.000000	38.149005
2621.000000	38.163982
2620.000000	38.174309
2619.000000	38.179008
2618.000000	38.177515
2617.000000	38.170088
2616.000000	38.157669
2615.000000	38.141163
2614.000000	38.121390
2613.000000	38.099394
2612.000000	38.076001
2611.000000	38.051340
2610.000000	38.025030
2609.000000	37.996916
2608.000000	37.967340
2607.000000	37.936910
2606.000000	37.906750
2605.000000	37.878995
2604.000000	37.856460
2603.000000	37.841661
2602.000000	37.836627
2601.000000	37.842916
2600.000000	37.861497
2599.000000	37.892296
2598.000000	37.933939
2597.000000	37.984477
2596.000000	38.041536
2595.000000	38.102416
2594.000000	38.164627
2593.000000	38.226265
2592.000000	38.286407
2591.000000	38.345010
2590.000000	38.402870
2589.000000	38.461534
2588.000000	38.522528
2587.000000	38.586674
2586.000000	38.654029
2585.000000	38.724363
2584.000000	38.797343
2583.000000	38.872188
2582.000000	38.947659
2581.000000	39.022545
2580.000000	39.096143
2579.000000	39.168382
2578.000000	39.239667
2577.000000	39.310665
2576.000000	39.381907
2575.000000	39.453378
2574.000000	39.524578
2573.000000	39.595067
2572.000000	39.664652
2571.000000	39.732991
2570.000000	39.799248
2569.000000	39.862188
2568.000000	39.920700
2567.000000	39.973804
2566.000000	40.020478
2565.000000	40.059823
2564.000000	40.091014
2563.000000	40.113475
2562.000000	40.126845
2561.000000	40.131178
2560.000000	40.127235
2559.000000	40.115930
2558.000000	40.098276
2557.000000	40.075615
2556.000000	40.049888
2555.000000	40.023712
2554.000000	40.000110
2553.000000	39.982335
2552.000000	39.973643
2551.000000	39.976902
2550.000000	39.994097
2549.000000	40.026430
2548.000000	40.073919
2547.000000	40.135182
2546.000000	40.208017
2545.000000	40.289747
2544.000000	40.377716
2543.000000	40.468887
2542.000000	40.559582
2541.000000	40.646256
2540.000000	40.726270
2539.000000	40.798230
2538.000000	40.861885
2537.000000	40.918185
2536.000000	40.969188
2535.000000	41.017579
2534.000000	41.065775
2533.000000	41.115456
2532.000000	41.167509
2531.000000	41.221652
2530.000000	41.276360
2529.000000	41.329346
2528.000000	41.378504
2527.000000	41.422599
2526.000000	41.461297
2525.000000	41.495227
2524.000000	41.525776
2523.000000	41.554529
2522.000000	41.582817
2521.000000	41.611665
2520.000000	41.641955
2519.000000	41.674097
2518.000000	41.707633
2517.000000	41.741530
2516.000000	41.774803
2515.000000	41.806790
2514.000000	41.837086
2513.000000	41.865564
2512.000000	41.892377
2511.000000	41.917539
2510.000000	41.940748
2509.000000	41.961844
2508.000000	41.981285
2507.000000	41.999993
2506.000000	42.018855
2505.000000	42.038690
2504.000000	42.060315
2503.000000	42.084135
2502.000000	42.109810
2501.000000	42.136522
2500.000000	42.163295
2499.000000	42.188774
2498.000000	42.211153
2497.000000	42.229049
2496.000000	42.242355
2495.000000	42.252085
2494.000000	42.259769
2493.000000	42.267355
2492.000000	42.277200
2491.000000	42.291212
2490.000000	42.309891
2489.000000	42.332414
2488.000000	42.357196
2487.000000	42.381956
2486.000000	42.403771
2485.000000	42.420151
2484.000000	42.430339
2483.000000	42.435281
2482.000000	42.436728
2481.000000	42.436887
2480.000000	42.438453
2479.000000	42.443937
2478.000000	42.454603
2477.000000	42.470286
2476.000000	42.489888
2475.000000	42.511502
2474.000000	42.532389
2473.000000	42.549790
2472.000000	42.562112
2471.000000	42.569166
2470.000000	42.571659
2469.000000	42.571107
2468.000000	42.569959
2467.000000	42.570866
2466.000000	42.575577
2465.000000	42.584664
2464.000000	42.597957
2463.000000	42.614533
2462.000000	42.632472
2461.000000	42.649425
2460.000000	42.663663
2459.000000	42.674349
2458.000000	42.681152
2457.000000	42.684392
2456.000000	42.685446
2455.000000	42.686299
2454.000000	42.688603
2453.000000	42.693411
2452.000000	42.701430
2451.000000	42.712759
2450.000000	42.726498
2449.000000	42.741289
2448.000000	42.756292
2447.000000	42.771150
2446.000000	42.785159
2445.000000	42.797251
2444.000000	42.806802
2443.000000	42.813891
2442.000000	42.818855
2441.000000	42.822232
2440.000000	42.825126
2439.000000	42.829041
2438.000000	42.835257
2437.000000	42.844687
2436.000000	42.857972
2435.000000	42.875015
2434.000000	42.894405
2433.000000	42.913918
2432.000000	42.931660
2431.000000	42.946317
2430.000000	42.956769
2429.000000	42.962451
2428.000000	42.964252
2427.000000	42.964419
2426.000000	42.965479
2425.000000	42.969625
2424.000000	42.978732
2423.000000	42.993890
2422.000000	43.014562
2421.000000	43.038590
2420.000000	43.063141
2419.000000	43.085395
2418.000000	43.102806
2417.000000	43.113780
2416.000000	43.118552
2415.000000	43.119100
2414.000000	43.118232
2413.000000	43.119038
2412.000000	43.124622
2411.000000	43.137151
2410.000000	43.156689
2409.000000	43.181266
2408.000000	43.208035
2407.000000	43.234097
2406.000000	43.256700
2405.000000	43.273871
2404.000000	43.285330
2403.000000	43.292454
2402.000000	43.297344
2401.000000	43.302296
2400.000000	43.309749
2399.000000	43.321706
2398.000000	43.338836
2397.000000	43.360474
2396.000000	43.385336
2395.000000	43.411846
2394.000000	43.438112
2393.000000	43.462463
2392.000000	43.484306
2391.000000	43.504014
2390.000000	43.522172
2389.000000	43.539496
2388.000000	43.557319
2387.000000	43.577332
2386.000000	43.600810
2385.000000	43.628595
2384.000000	43.661574
2383.000000	43.700493
2382.000000	43.745138
2381.000000	43.794270
2380.000000	43.846175
2379.000000	43.898580
2378.000000	43.948451
2377.000000	43.992770
2376.000000	44.030030
2375.000000	44.060596
2374.000000	44.086105
2373.000000	44.109370
2372.000000	44.134389
2371.000000	44.165097
2370.000000	44.203372
2369.000000	44.248814
2368.000000	44.300077
2367.000000	44.355428
2366.000000	44.412093
2365.000000	44.466444
2364.000000	44.515989
2363.000000	44.559667
2362.000000	44.596856
2361.000000	44.628727
2360.000000	44.657885
2359.000000	44.686617
2358.000000	44.716452
2357.000000	44.748023
2356.000000	44.783197
2355.000000	44.823468
2354.000000	44.868705
2353.000000	44.917409
2352.000000	44.966254
2351.000000	45.012834
2350.000000	45.054898
2349.000000	45.091867
2348.000000	45.127088
2347.000000	45.166247
2346.000000	45.213457
2345.000000	45.264131
2344.000000	45.311012
2343.000000	45.352531
2342.000000	45.392223
2341.000000	45.433633
2340.000000	45.476138
2339.000000	45.518920
2338.000000	45.560493
2337.000000	45.599750
2336.000000	45.636618
2335.000000	45.673173
2334.000000	45.711832
2333.000000	45.754463
2332.000000	45.800893
2331.000000	45.849909
2330.000000	45.898489
2329.000000	45.944334
2328.000000	45.988544
2327.000000	46.032586
2326.000000	46.078497
2325.000000	46.125426
2324.000000	46.173393
2323.000000	46.221529
2322.000000	46.267643
2321.000000	46.309663
2320.000000	46.346887
2319.000000	46.381687
2318.000000	46.416320
2317.000000	46.453362
2316.000000	46.494934
2315.000000	46.542191
2314.000000	46.593405
2313.000000	46.644951
2312.000000	46.694370
2311.000000	46.740722
2310.000000	46.783822
2309.000000	46.822925
2308.000000	46.858582
2307.000000	46.891702
2306.000000	46.922987
2305.000000	46.952412
2304.000000	46.981199
2303.000000	47.011163
2302.000000	47.043189
2301.000000	47.076918
2300.000000	47.112347
2299.000000	47.149586
2298.000000	47.187565
2297.000000	47.224078
2296.000000	47.258153
2295.000000	47.289878
2294.000000	47.319358
2293.000000	47.346127
2292.000000	47.371192
2291.000000	47.396486
2290.000000	47.423425
2289.000000	47.452298
2288.000000	47.483702
2287.000000	47.518087
2286.000000	47.554261
2285.000000	47.589816
2284.000000	47.623420
2283.000000	47.655162
2282.000000	47.684872
2281.000000	47.712240
2280.000000	47.738457
2279.000000	47.766059
2278.000000	47.796436
2277.000000	47.829278
2276.000000	47.863999
2275.000000	47.900096
2274.000000	47.935917
2273.000000	47.969216
2272.000000	47.999343
2271.000000	48.027297
2270.000000	48.053794
2269.000000	48.079030
2268.000000	48.104335
2267.000000	48.131837
2266.000000	48.162088
2265.000000	48.193590
2264.000000	48.224722
2263.000000	48.254318
2262.000000	48.280655
2261.000000	48.302008
2260.000000	48.318689
2259.000000	48.332801
2258.000000	48.345885
2257.000000	48.358419
2256.000000	48.371153
2255.000000	48.384758
2254.000000	48.397949
2253.000000	48.408050
2252.000000	48.413319
2251.000000	48.413139
2250.000000	48.406166
2249.000000	48.390856
2248.000000	48.367961
2247.000000	48.340095
2246.000000	48.308845
2245.000000	48.273939
2244.000000	48.235268
2243.000000	48.193175
2242.000000	48.146597
2241.000000	48.093359
2240.000000	48.032733
2239.000000	47.966311
2238.000000	47.896410
2237.000000	47.825752
2236.000000	47.758609
2235.000000	47.699853
2234.000000	47.652299
2233.000000	47.616174
2232.000000	47.591022
2231.000000	47.575963
2230.000000	47.568289
2229.000000	47.564150
2228.000000	47.561320
2227.000000	47.559884
2226.000000	47.560024
2225.000000	47.561175
2224.000000	47.563311
2223.000000	47.566921
2222.000000	47.571236
2221.000000	47.574202
2220.000000	47.574674
2219.000000	47.572914
2218.000000	47.568942
2217.000000	47.562458
2216.000000	47.554738
2215.000000	47.548580
2214.000000	47.545793
2213.000000	47.546203
2212.000000	47.549125
2211.000000	47.553888
2210.000000	47.558715
2209.000000	47.561161
2208.000000	47.560336
2207.000000	47.557243
2206.000000	47.552863
2205.000000	47.547707
2204.000000	47.543279
2203.000000	47.541821
2202.000000	47.544010
2201.000000	47.548502
2200.000000	47.553953
2199.000000	47.559686
2198.000000	47.564291
2197.000000	47.565623
2196.000000	47.562811
2195.000000	47.556763
2194.000000	47.548455
2193.000000	47.538411
2192.000000	47.527826
2191.000000	47.518145
2190.000000	47.509196
2189.000000	47.499447
2188.000000	47.488385
2187.000000	47.476894
2186.000000	47.465281
2185.000000	47.452951
2184.000000	47.440336
2183.000000	47.429274
2182.000000	47.421054
2181.000000	47.415834
2180.000000	47.414063
2179.000000	47.416614
2178.000000	47.423172
2177.000000	47.432351
2176.000000	47.443828
2175.000000	47.458645
2174.000000	47.477237
2173.000000	47.498876
2172.000000	47.523256
2171.000000	47.550661
2170.000000	47.580327
2169.000000	47.610509
2168.000000	47.640560
2167.000000	47.671208
2166.000000	47.702593
2165.000000	47.733977
2164.000000	47.765639
2163.000000	47.798991
2162.000000	47.834458
2161.000000	47.871070
2160.000000	47.908264
2159.000000	47.946088
2158.000000	47.983457
2157.000000	48.018476
2156.000000	48.050885
2155.000000	48.082241
2154.000000	48.113475
2153.000000	48.144400
2152.000000	48.175648
2151.000000	48.208655
2150.000000	48.243245
2149.000000	48.277419
2148.000000	48.310011
2147.000000	48.341474
2146.000000	48.371835
2145.000000	48.400357
2144.000000	48.427595
2143.000000	48.455405
2142.000000	48.484675
2141.000000	48.515074
2140.000000	48.547103
2139.000000	48.582061
2138.000000	48.619812
2137.000000	48.658943
2136.000000	48.699238
2135.000000	48.741499
2134.000000	48.784789
2133.000000	48.826482
2132.000000	48.865411
2131.000000	48.902550
2130.000000	48.938315
2129.000000	48.971873
2128.000000	49.003410
2127.000000	49.034387
2126.000000	49.065167
2125.000000	49.095017
2124.000000	49.124754
2123.000000	49.156579
2122.000000	49.190951
2121.000000	49.226276
2120.000000	49.261766
2119.000000	49.297703
2118.000000	49.332774
2117.000000	49.364450
2116.000000	49.392711
2115.000000	49.420409
2114.000000	49.449374
2113.000000	49.479029
2112.000000	49.509321
2111.000000	49.541864
2110.000000	49.577274
2109.000000	49.614163
2108.000000	49.651353
2107.000000	49.688272
2106.000000	49.722708
2105.000000	49.751140
2104.000000	49.772182
2103.000000	49.787321
2102.000000	49.797642
2101.000000	49.803127
2100.000000	49.805271
2099.000000	49.807068
2098.000000	49.809760
2097.000000	49.811889
2096.000000	49.812590
2095.000000	49.812387
2094.000000	49.809994
2093.000000	49.802247
2092.000000	49.788483
2091.000000	49.772129
2090.000000	49.756816
2089.000000	49.743592
2088.000000	49.732854
2087.000000	49.726203
2086.000000	49.724958
2085.000000	49.729398
2084.000000	49.740481
2083.000000	49.759898
2082.000000	49.787516
2081.000000	49.821077
2080.000000	49.858903
2079.000000	49.900482
2078.000000	49.943906
2077.000000	49.985340
2076.000000	50.022988
2075.000000	50.058456
2074.000000	50.093641
2073.000000	50.129511
2072.000000	50.167794
2071.000000	50.211717
2070.000000	50.262960
2069.000000	50.319659
2068.000000	50.379034
2067.000000	50.440395
2066.000000	50.504985
2065.000000	50.573889
2064.000000	50.646251
2063.000000	50.718280
2062.000000	50.784777
2061.000000	50.843744
2060.000000	50.899246
2059.000000	50.957541
2058.000000	51.021145
2057.000000	51.089140
2056.000000	51.161673
2055.000000	51.239749
2054.000000	51.321184
2053.000000	51.401310
2052.000000	51.477325
2051.000000	51.548854
2050.000000	51.614738
2049.000000	51.672873
2048.000000	51.723926
2047.000000	51.771952
2046.000000	51.819867
2045.000000	51.867520
2044.000000	51.915589
2043.000000	51.967903
2042.000000	52.028523
2041.000000	52.098652
2040.000000	52.176796
2039.000000	52.259366
2038.000000	52.340975
2037.000000	52.417199
2036.000000	52.487862
2035.000000	52.555248
2034.000000	52.619671
2033.000000	52.680300
2032.000000	52.739840
2031.000000	52.803212
2030.000000	52.872375
2029.000000	52.946158
2028.000000	53.024715
2027.000000	53.109620
2026.000000	53.198651
2025.000000	53.286522
2024.000000	53.369869
2023.000000	53.448398
2022.000000	53.520384
2021.000000	53.581145
2020.000000	53.629130
2019.000000	53.670064
2018.000000	53.714347
2017.000000	53.771788
2016.000000	53.847392
2015.000000	53.938552
2014.000000	54.036742
2013.000000	54.134479
2012.000000	54.230429
2011.000000	54.325777
2010.000000	54.418106
2009.000000	54.503224
2008.000000	54.581892
2007.000000	54.658909
2006.000000	54.735901
2005.000000	54.812591
2004.000000	54.891664
2003.000000	54.978164
2002.000000	55.072799
2001.000000	55.171561
2000.000000	55.273635
1999.000000	55.379494
1998.000000	55.486027
1997.000000	55.587490
1996.000000	55.678543
1995.000000	55.754474
1994.000000	55.812833
1993.000000	55.860812
1992.000000	55.915283
1991.000000	55.986166
1990.000000	56.065676
1989.000000	56.143751
1988.000000	56.224130
1987.000000	56.315480
1986.000000	56.413970
1985.000000	56.507208
1984.000000	56.590680
1983.000000	56.668887
1982.000000	56.741679
1981.000000	56.802971
1980.000000	56.853549
1979.000000	56.900321
1978.000000	56.946443
1977.000000	56.991094
1976.000000	57.037950
1975.000000	57.093826
1974.000000	57.158793
1973.000000	57.227571
1972.000000	57.297982
1971.000000	57.368212
1970.000000	57.428342
1969.000000	57.468156
1968.000000	57.494115
1967.000000	57.525948
1966.000000	57.572035
1965.000000	57.621367
1964.000000	57.664029
1963.000000	57.704284
1962.000000	57.749844
1961.000000	57.802594
1960.000000	57.862712
1959.000000	57.930342
1958.000000	57.999812
1957.000000	58.061094
1956.000000	58.111961
1955.000000	58.158245
1954.000000	58.201268
1953.000000	58.235674
1952.000000	58.260572
1951.000000	58.285061
1950.000000	58.314529
1949.000000	58.345625
1948.000000	58.380345
1947.000000	58.426953
1946.000000	58.482957
1945.000000	58.531466
1944.000000	58.563402
1943.000000	58.592612
1942.000000	58.635731
1941.000000	58.685883
1940.000000	58.724639
1939.000000	58.748334
1938.000000	58.765989
1937.000000	58.784722
1936.000000	58.808466
1935.000000	58.841032
1934.000000	58.884363
1933.000000	58.935798
1932.000000	58.990524
1931.000000	59.047797
1930.000000	59.101718
1929.000000	59.143479
1928.000000	59.173761
1927.000000	59.196917
1926.000000	59.209384
1925.000000	59.198993
1924.000000	59.174264
1923.000000	59.173245
1922.000000	59.220283
1921.000000	59.296453
1920.000000	59.367503
1919.000000	59.422009
1918.000000	59.470245
1917.000000	59.515804
1916.000000	59.549179
1915.000000	59.568625
1914.000000	59.582451
1913.000000	59.592403
1912.000000	59.592645
1911.000000	59.585739
1910.000000	59.583410
1909.000000	59.598997
1908.000000	59.638085
1907.000000	59.694878
1906.000000	59.760333
1905.000000	59.822674
1904.000000	59.876782
1903.000000	59.925962
1902.000000	59.967408
1901.000000	59.994813
1900.000000	60.008277
1899.000000	60.012304
1898.000000	60.008648
1897.000000	59.995438
1896.000000	59.982928
1895.000000	59.995109
1894.000000	60.040970
1893.000000	60.100434
1892.000000	60.147066
1891.000000	60.173611
1890.000000	60.192241
1889.000000	60.214565
1888.000000	60.233855
1887.000000	60.235934
1886.000000	60.219086
1885.000000	60.194628
1884.000000	60.178235
1883.000000	60.179857
1882.000000	60.195825
1881.000000	60.219322
1880.000000	60.252096
1879.000000	60.296436
1878.000000	60.346398
1877.000000	60.389630
1876.000000	60.418119
1875.000000	60.435334
1874.000000	60.446856
1873.000000	60.453060
1872.000000	60.451687
1871.000000	60.436333
1870.000000	60.400589
1869.000000	60.360852
1868.000000	60.352872
1867.000000	60.387252
1866.000000	60.441347
1865.000000	60.491515
1864.000000	60.528808
1863.000000	60.553286
1862.000000	60.563062
1861.000000	60.555361
1860.000000	60.536082
1859.000000	60.517010
1858.000000	60.502696
1857.000000	60.491385
1856.000000	60.484163
1855.000000	60.487113
1854.000000	60.500036
1853.000000	60.516922
1852.000000	60.536301
1851.000000	60.550049
1850.000000	60.548317
1849.000000	60.536852
1848.000000	60.540659
1847.000000	60.575198
1846.000000	60.614435
1845.000000	60.615155
1844.000000	60.574145
1843.000000	60.522285
1842.000000	60.471689
1841.000000	60.426059
1840.000000	60.396233
1839.000000	60.387171
1838.000000	60.392544
1837.000000	60.396502
1836.000000	60.392640
1835.000000	60.387959
1834.000000	60.383386
1833.000000	60.367174
1832.000000	60.322132
1831.000000	60.241025
1830.000000	60.156667
1829.000000	60.108510
1828.000000	60.086950
1827.000000	60.064460
1826.000000	60.035965
1825.000000	60.016653
1824.000000	60.016595
1823.000000	60.020301
1822.000000	60.003969
1821.000000	59.960042
1820.000000	59.893870
1819.000000	59.813417
1818.000000	59.727006
1817.000000	59.643528
1816.000000	59.577291
1815.000000	59.531589
1814.000000	59.490466
1813.000000	59.443022
1812.000000	59.396416
1811.000000	59.369048
1810.000000	59.359358
1809.000000	59.342028
1808.000000	59.307893
1807.000000	59.267884
1806.000000	59.225429
1805.000000	59.168923
1804.000000	59.096503
1803.000000	59.023085
1802.000000	58.965722
1801.000000	58.939951
1800.000000	58.944212
1799.000000	58.956481
1798.000000	58.953226
1797.000000	58.937442
1796.000000	58.941013
1795.000000	58.975715
1794.000000	59.000206
1793.000000	58.963223
1792.000000	58.878257
1791.000000	58.802253
1790.000000	58.749493
1789.000000	58.703735
1788.000000	58.662414
1787.000000	58.626770
1786.000000	58.591572
1785.000000	58.550756
1784.000000	58.509242
1783.000000	58.461566
1782.000000	58.385973
1781.000000	58.287914
1780.000000	58.196187
1779.000000	58.124613
1778.000000	58.052086
1777.000000	57.968368
1776.000000	57.906571
1775.000000	57.887807
1774.000000	57.874477
1773.000000	57.816008
1772.000000	57.734448
1771.000000	57.669876
1770.000000	57.601154
1769.000000	57.502157
1768.000000	57.395491
1767.000000	57.315711
1766.000000	57.257192
1765.000000	57.190781
1764.000000	57.105133
1763.000000	57.007261
1762.000000	56.913781
1761.000000	56.835712
1760.000000	56.766007
1759.000000	56.704135
1758.000000	56.645372
1757.000000	56.588690
1756.000000	56.549905
1755.000000	56.525460
1754.000000	56.484524
1753.000000	56.392670
1752.000000	56.238148
1751.000000	56.051727
1750.000000	55.873723
1749.000000	55.712717
1748.000000	55.586410
1747.000000	55.506772
1746.000000	55.441928
1745.000000	55.359271
1744.000000	55.274440
1743.000000	55.232378
1742.000000	55.223823
1741.000000	55.171066
1740.000000	55.034112
1739.000000	54.878410
1738.000000	54.777355
1737.000000	54.728044
1736.000000	54.668334
1735.000000	54.513801
1734.000000	54.268826
1733.000000	54.002591
1732.000000	53.730278
1731.000000	53.479194
1730.000000	53.283115
1729.000000	53.127855
1728.000000	52.985106
1727.000000	52.829729
1726.000000	52.644363
1725.000000	52.418496
1724.000000	52.167750
1723.000000	51.946062
1722.000000	51.789168
1721.000000	51.675777
1720.000000	51.547835
1719.000000	51.340155
1718.000000	51.045461
1717.000000	50.729793
1716.000000	50.439085
1715.000000	50.176155
1714.000000	49.932464
1713.000000	49.683636
1712.000000	49.418527
1711.000000	49.152426
1710.000000	48.897524
1709.000000	48.653599
1708.000000	48.409057
1707.000000	48.141509
1706.000000	47.852241
1705.000000	47.599855
1704.000000	47.453853
1703.000000	47.418004
1702.000000	47.394409
1701.000000	47.209569
1700.000000	46.837589
1699.000000	46.427643
1698.000000	46.045796
1697.000000	45.667459
1696.000000	45.297936
1695.000000	44.970781
1694.000000	44.668886
1693.000000	44.363678
1692.000000	44.062209
1691.000000	43.770265
1690.000000	43.487992
1689.000000	43.238180
1688.000000	43.059671
1687.000000	42.944231
1686.000000	42.797860
1685.000000	42.474922
1684.000000	42.038927
1683.000000	41.673206
1682.000000	41.350226
1681.000000	41.025041
1680.000000	40.750167
1679.000000	40.567387
1678.000000	40.455729
1677.000000	40.328521
1676.000000	40.117159
1675.000000	39.839207
1674.000000	39.553699
1673.000000	39.279915
1672.000000	39.013787
1671.000000	38.749213
1670.000000	38.473976
1669.000000	38.190338
1668.000000	37.916613
1667.000000	37.675317
1666.000000	37.475364
1665.000000	37.287035
1664.000000	37.068251
1663.000000	36.820449
1662.000000	36.572557
1661.000000	36.327250
1660.000000	36.077768
1659.000000	35.840995
1658.000000	35.644920
1657.000000	35.511622
1656.000000	35.440867
1655.000000	35.376021
1654.000000	35.189561
1653.000000	34.885909
1652.000000	34.569380
1651.000000	34.253269
1650.000000	33.977658
1649.000000	33.746988
1648.000000	33.508404
1647.000000	33.270413
1646.000000	33.063374
1645.000000	32.846018
1644.000000	32.589432
1643.000000	32.336047
1642.000000	32.108816
1641.000000	31.904510
1640.000000	31.727304
1639.000000	31.592372
1638.000000	31.489485
1637.000000	31.362924
1636.000000	31.187817
1635.000000	31.001487
1634.000000	30.804387
1633.000000	30.576260
1632.000000	30.347258
1631.000000	30.149258
1630.000000	29.976459
1629.000000	29.803235
1628.000000	29.631898
1627.000000	29.493253
1626.000000	29.390513
1625.000000	29.288628
1624.000000	29.159843
1623.000000	29.023707
1622.000000	28.907068
1621.000000	28.807136
1620.000000	28.722769
1619.000000	28.658550
1618.000000	28.593306
1617.000000	28.495309
1616.000000	28.371954
1615.000000	28.252391
1614.000000	28.149918
1613.000000	28.064073
1612.000000	27.993404
1611.000000	27.941642
1610.000000	27.905850
1609.000000	27.872025
1608.000000	27.835027
1607.000000	27.804626
1606.000000	27.781064
1605.000000	27.751047
1604.000000	27.710079
1603.000000	27.673651
1602.000000	27.655677
1601.000000	27.648774
1600.000000	27.643332
1599.000000	27.643477
1598.000000	27.652527
1597.000000	27.660977
1596.000000	27.662847
1595.000000	27.668398
1594.000000	27.683870
1593.000000	27.696975
1592.000000	27.697178
1591.000000	27.692791
1590.000000	27.694083
1589.000000	27.697190
1588.000000	27.696345
1587.000000	27.698879
1586.000000	27.711061
1585.000000	27.725608
1584.000000	27.736865
1583.000000	27.748989
1582.000000	27.765774
1581.000000	27.782248
1580.000000	27.797109
1579.000000	27.817043
1578.000000	27.838057
1577.000000	27.834663
1576.000000	27.798556
1575.000000	27.748620
1574.000000	27.696429
1573.000000	27.655857
1572.000000	27.637265
1571.000000	27.633604
1570.000000	27.634620
1569.000000	27.634194
1568.000000	27.620651
1567.000000	27.593597
1566.000000	27.570589
1565.000000	27.561049
1564.000000	27.573508
1563.000000	27.632759
1562.000000	27.749809
1561.000000	27.897003
1560.000000	27.974964
1559.000000	28.022553
1558.000000	28.152783
1557.000000	28.226423
1556.000000	28.211420
1555.000000	28.224697
1554.000000	28.293562
1553.000000	28.380431
1552.000000	28.442247
1551.000000	28.502317
1550.000000	28.607730
1549.000000	28.762711
1548.000000	28.928943
1547.000000	29.084228
1546.000000	29.239417
1545.000000	29.413286
1544.000000	29.619629
1543.000000	29.858766
1542.000000	30.112744
1541.000000	30.354420
1540.000000	30.602617
1539.000000	30.848790
1538.000000	31.012129
1537.000000	31.102815
1536.000000	31.203956
1535.000000	31.361835
1534.000000	31.588914
1533.000000	31.866952
1532.000000	32.137135
1531.000000	32.369753
1530.000000	32.598012
1529.000000	32.848194
1528.000000	33.123199
1527.000000	33.430899
1526.000000	33.775447
1525.000000	34.130011
1524.000000	34.464641
1523.000000	34.792113
1522.000000	35.159825
1521.000000	35.573240
1520.000000	35.946277
1519.000000	36.231804
1518.000000	36.497881
1517.000000	36.822985
1516.000000	37.217288
1515.000000	37.627845
1514.000000	38.017124
1513.000000	38.386413
1512.000000	38.732272
1511.000000	39.057460
1510.000000	39.374532
1509.000000	39.702649
1508.000000	40.074794
1507.000000	40.620484
1506.000000	41.320759
1505.000000	41.840997
1504.000000	42.096279
1503.000000	42.297096
1502.000000	42.575146
1501.000000	42.940084
1500.000000	43.340628
1499.000000	43.739618
1498.000000	44.132475
1497.000000	44.515891
1496.000000	44.870094
1495.000000	45.181466
1494.000000	45.457688
1493.000000	45.713787
1492.000000	45.955102
1491.000000	46.193696
1490.000000	46.463185
1489.000000	46.769912
1488.000000	47.070903
1487.000000	47.345914
1486.000000	47.593026
1485.000000	47.794794
1484.000000	47.950125
1483.000000	48.081679
1482.000000	48.214193
1481.000000	48.345622
1480.000000	48.462398
1479.000000	48.559926
1478.000000	48.628985
1477.000000	48.652283
1476.000000	48.638568
1475.000000	48.615155
1474.000000	48.558515
1473.000000	48.422862
1472.000000	48.228112
1471.000000	48.013998
1470.000000	47.772369
1469.000000	47.493008
1468.000000	47.186882
1467.000000	46.852337
1466.000000	46.433192
1465.000000	45.877880
1464.000000	45.240692
1463.000000	44.624596
1462.000000	44.064041
1461.000000	43.532873
1460.000000	43.001731
1459.000000	42.418290
1458.000000	41.657953
1457.000000	40.670999
1456.000000	39.638144
1455.000000	38.718269
1454.000000	37.869468
1453.000000	36.987899
1452.000000	36.048640
1451.000000	35.094930
1450.000000	34.108243
1449.000000	33.000627
1448.000000	31.770172
1447.000000	30.525916
1446.000000	29.311986
1445.000000	28.074190
1444.000000	26.779047
1443.000000	25.438770
1442.000000	24.052538
1441.000000	22.635136
1440.000000	21.253487
1439.000000	19.911416
1438.000000	18.437371
1437.000000	16.679568
1436.000000	14.869509
1435.000000	13.381367
1434.000000	12.227500
1433.000000	11.222497
1432.000000	10.314998
1431.000000	9.562211
1430.000000	8.974567
1429.000000	8.526903
1428.000000	8.266252
1427.000000	8.239367
1426.000000	8.401580
1425.000000	8.706823
1424.000000	9.181396
1423.000000	9.816994
1422.000000	10.521012
1421.000000	11.260905
1420.000000	12.137691
1419.000000	13.197402
1418.000000	14.268062
1417.000000	15.198401
1416.000000	16.057014
1415.000000	16.948240
1414.000000	17.866076
1413.000000	18.775548
1412.000000	19.701276
1411.000000	20.671153
1410.000000	21.647773
1409.000000	22.588367
1408.000000	23.512343
1407.000000	24.459477
1406.000000	25.435516
1405.000000	26.435469
1404.000000	27.452372
1403.000000	28.445809
1402.000000	29.379118
1401.000000	30.284318
1400.000000	31.232853
1399.000000	32.229716
1398.000000	33.200459
1397.000000	34.121178
1396.000000	35.072567
1395.000000	36.118246
1394.000000	37.203032
1393.000000	38.233057
1392.000000	39.192261
1391.000000	40.119665
1390.000000	41.043492
1389.000000	41.980867
1388.000000	42.942200
1387.000000	43.897344
1386.000000	44.776387
1385.000000	45.545022
1384.000000	46.226049
1383.000000	46.836528
1382.000000	47.360176
1381.000000	47.771481
1380.000000	48.050956
1379.000000	48.172250
1378.000000	48.104048
1377.000000	47.817840
1376.000000	47.271651
1375.000000	46.423420
1374.000000	45.301644
1373.000000	44.020009
1372.000000	42.693947
1371.000000	41.401602
1370.000000	40.233446
1369.000000	39.335719
1368.000000	38.860512
1367.000000	38.867910
1366.000000	39.317220
1365.000000	40.143472
1364.000000	41.303535
1363.000000	42.745967
1362.000000	44.351515
1361.000000	45.948792
1360.000000	47.401153
1359.000000	48.639372
1358.000000	49.627214
1357.000000	50.334103
1356.000000	50.726712
1355.000000	50.776728
1354.000000	50.478692
1353.000000	49.845220
1352.000000	48.893088
1351.000000	47.637517
1350.000000	46.100703
1349.000000	44.324761
1348.000000	42.354424
1347.000000	40.226799
1346.000000	37.979002
1345.000000	35.658584
1344.000000	33.324659
1343.000000	31.024877
1342.000000	28.773809
1341.000000	26.575518
1340.000000	24.483005
1339.000000	22.611164
1338.000000	21.062368
1337.000000	19.854911
1336.000000	18.941206
1335.000000	18.252988
1334.000000	17.705568
1333.000000	17.200950
1332.000000	16.652031
1331.000000	15.999614
1330.000000	15.207758
1329.000000	14.259179
1328.000000	13.168455
1327.000000	11.986831
1326.000000	10.780432
1325.000000	9.611361
1324.000000	8.541408
1323.000000	7.629189
1322.000000	6.902637
1321.000000	6.348304
1320.000000	5.937578
1319.000000	5.641807
1318.000000	5.423180
1317.000000	5.239413
1316.000000	5.069212
1315.000000	4.918137
1314.000000	4.791122
1313.000000	4.681909
1312.000000	4.590694
1311.000000	4.526817
1310.000000	4.491904
1309.000000	4.480098
1308.000000	4.500135
1307.000000	4.575657
1306.000000	4.719218
1305.000000	4.927834
1304.000000	5.201738
1303.000000	5.545433
1302.000000	5.949075
1301.000000	6.388661
1300.000000	6.849341
1299.000000	7.328334
1298.000000	7.817396
1297.000000	8.303213
1296.000000	8.783309
1295.000000	9.263772
1294.000000	9.741061
1293.000000	10.202845
1292.000000	10.644551
1291.000000	11.068735
1290.000000	11.467686
1289.000000	11.823234
1288.000000	12.122055
1287.000000	12.355889
1286.000000	12.512939
1285.000000	12.585783
1284.000000	12.591804
1283.000000	12.574068
1282.000000	12.579170
1281.000000	12.642829
1280.000000	12.790610
1279.000000	13.032060
1278.000000	13.350802
1277.000000	13.716002
1276.000000	14.105096
1275.000000	14.507699
1274.000000	14.913883
1273.000000	15.313548
1272.000000	15.706478
1271.000000	16.098095
1270.000000	16.486043
1269.000000	16.862218
1268.000000	17.225090
1267.000000	17.577987
1266.000000	17.918444
1265.000000	18.240615
1264.000000	18.546234
1263.000000	18.843486
1262.000000	19.136052
1261.000000	19.423938
1260.000000	19.712062
1259.000000	20.006542
1258.000000	20.305162
1257.000000	20.600523
1256.000000	20.890166
1255.000000	21.174832
1254.000000	21.450545
1253.000000	21.711868
1252.000000	21.960390
1251.000000	22.202334
1250.000000	22.440385
1249.000000	22.674897
1248.000000	22.910207
1247.000000	23.151820
1246.000000	23.399502
1245.000000	23.649514
1244.000000	23.900903
1243.000000	24.153438
1242.000000	24.402098
1241.000000	24.640448
1240.000000	24.867455
1239.000000	25.085369
1238.000000	25.294051
1237.000000	25.492982
1236.000000	25.686394
1235.000000	25.880799
1234.000000	26.078918
1233.000000	26.280903
1232.000000	26.488841
1231.000000	26.704759
1230.000000	26.926136
1229.000000	27.147765
1228.000000	27.366411
1227.000000	27.579922
1226.000000	27.784530
1225.000000	27.977551
1224.000000	28.160882
1223.000000	28.338767
1222.000000	28.514356
1221.000000	28.691336
1220.000000	28.876122
1219.000000	29.074388
1218.000000	29.286863
1217.000000	29.510642
1216.000000	29.741831
1215.000000	29.974291
1214.000000	30.198908
1213.000000	30.407889
1212.000000	30.598637
1211.000000	30.772462
1210.000000	30.932782
1209.000000	31.086243
1208.000000	31.242758
1207.000000	31.411567
1206.000000	31.597742
1205.000000	31.802711
1204.000000	32.024879
1203.000000	32.257669
1202.000000	32.489732
1201.000000	32.709560
1200.000000	32.909420
1199.000000	33.085215
1198.000000	33.236254
1197.000000	33.366582
1196.000000	33.482813
1195.000000	33.590190
1194.000000	33.690335
1193.000000	33.781254
1192.000000	33.857377
1191.000000	33.908182
1190.000000	33.922414
1189.000000	33.895927
1188.000000	33.836024
1187.000000	33.760412
1186.000000	33.692375
1185.000000	33.654882
1184.000000	33.664535
1183.000000	33.727999
1182.000000	33.842563
1181.000000	34.002207
1180.000000	34.201094
1179.000000	34.432188
1178.000000	34.687052
1177.000000	34.956043
1176.000000	35.228773
1175.000000	35.493957
1174.000000	35.741608
1173.000000	35.966123
1172.000000	36.166003
1171.000000	36.342289
1170.000000	36.499709
1169.000000	36.647692
1168.000000	36.796804
1167.000000	36.955143
1166.000000	37.128426
1165.000000	37.320578
1164.000000	37.531283
1163.000000	37.754323
1162.000000	37.980693
1161.000000	38.201868
1160.000000	38.409087
1159.000000	38.593730
1158.000000	38.752204
1157.000000	38.889100
1156.000000	39.013389
1155.000000	39.134238
1154.000000	39.261923
1153.000000	39.407426
1152.000000	39.577053
1151.000000	39.768824
1150.000000	39.975657
1149.000000	40.189011
1148.000000	40.397533
1147.000000	40.587282
1146.000000	40.748219
1145.000000	40.878826
1144.000000	40.983672
1143.000000	41.070302
1142.000000	41.150767
1141.000000	41.240756
1140.000000	41.352518
1139.000000	41.490442
1138.000000	41.653742
1137.000000	41.838518
1136.000000	42.034851
1135.000000	42.227116
1134.000000	42.401524
1133.000000	42.551192
1132.000000	42.673398
1131.000000	42.768094
1130.000000	42.841897
1129.000000	42.908931
1128.000000	42.984057
1127.000000	43.078061
1126.000000	43.199034
1125.000000	43.351522
1124.000000	43.530953
1123.000000	43.723493
1122.000000	43.914401
1121.000000	44.093142
1120.000000	44.250418
1119.000000	44.378144
1118.000000	44.476326
1117.000000	44.554911
1116.000000	44.626662
1115.000000	44.702469
1114.000000	44.793892
1113.000000	44.912075
1112.000000	45.060242
1111.000000	45.231703
1110.000000	45.416977
1109.000000	45.607356
1108.000000	45.790346
1107.000000	45.950267
1106.000000	46.078040
1105.000000	46.174899
1104.000000	46.245732
1103.000000	46.296015
1102.000000	46.336419
1101.000000	46.382624
1100.000000	46.446406
1099.000000	46.531837
1098.000000	46.640433
1097.000000	46.772043
1096.000000	46.918710
1095.000000	47.065368
1094.000000	47.199712
1093.000000	47.316052
1092.000000	47.409696
1091.000000	47.477267
1090.000000	47.524935
1089.000000	47.568354
1088.000000	47.621966
1087.000000	47.694783
1086.000000	47.795515
1085.000000	47.931703
1084.000000	48.100477
1083.000000	48.287086
1082.000000	48.475145
1081.000000	48.651530
1080.000000	48.802031
1079.000000	48.913609
1078.000000	48.985722
1077.000000	49.031158
1076.000000	49.064924
1075.000000	49.099901
1074.000000	49.151880
1073.000000	49.236643
1072.000000	49.357988
1071.000000	49.505806
1070.000000	49.666738
1069.000000	49.828299
1068.000000	49.972979
1067.000000	50.080752
1066.000000	50.142798
1065.000000	50.165655
1064.000000	50.161072
1063.000000	50.142766
1062.000000	50.132843
1061.000000	50.158620
1060.000000	50.237332
1059.000000	50.370582
1058.000000	50.552122
1057.000000	50.771658
1056.000000	51.009487
1055.000000	51.238733
1054.000000	51.439479
1053.000000	51.603893
1052.000000	51.728337
1051.000000	51.812356
1050.000000	51.868802
1049.000000	51.922153
1048.000000	51.993147
1047.000000	52.092599
1046.000000	52.228461
1045.000000	52.405189
1044.000000	52.613741
1043.000000	52.832577
1042.000000	53.041862
1041.000000	53.229030
1040.000000	53.381718
1039.000000	53.489293
1038.000000	53.555260
1037.000000	53.597539
1036.000000	53.634074
1035.000000	53.678704
1034.000000	53.749015
1033.000000	53.863380
1032.000000	54.025679
1031.000000	54.222912
1030.000000	54.438786
1029.000000	54.659432
1028.000000	54.865672
1027.000000	55.034625
1026.000000	55.154918
1025.000000	55.231364
1024.000000	55.273962
1023.000000	55.294737
1022.000000	55.315821
1021.000000	55.364956
1020.000000	55.458441
1019.000000	55.596768
1018.000000	55.775873
1017.000000	55.989240
1016.000000	56.217934
1015.000000	56.432527
1014.000000	56.610635
1013.000000	56.743992
1012.000000	56.829463
1011.000000	56.867915
1010.000000	56.875074
1009.000000	56.879570
1008.000000	56.906166
1007.000000	56.969549
1006.000000	57.081695
1005.000000	57.249556
1004.000000	57.462666
1003.000000	57.694862
1002.000000	57.920778
1001.000000	58.121808
1000.000000	58.278617
999.000000	58.374878
998.000000	58.413089
997.000000	58.415215
996.000000	58.405463
995.000000	58.403770
994.000000	58.433629
993.000000	58.518904
992.000000	58.667062
991.000000	58.865534
990.000000	59.094851
989.000000	59.334409
988.000000	59.556120
987.000000	59.729141
986.000000	59.837984
985.000000	59.887526
984.000000	59.890798
983.000000	59.864731
982.000000	59.838062
981.000000	59.845576
980.000000	59.908793
979.000000	60.030470
978.000000	60.206286
977.000000	60.426559
976.000000	60.666106
975.000000	60.888054
974.000000	61.064335
973.000000	61.183178
972.000000	61.239487
971.000000	61.234860
970.000000	61.189754
969.000000	61.140290
968.000000	61.117446
967.000000	61.139317
966.000000	61.219795
965.000000	61.367549
964.000000	61.571472
963.000000	61.801169
962.000000	62.025195
961.000000	62.219868
960.000000	62.362050
959.000000	62.432751
958.000000	62.433656
957.000000	62.388594
956.000000	62.326149
955.000000	62.271823
954.000000	62.254889
953.000000	62.302964
952.000000	62.423784
951.000000	62.602105
950.000000	62.815634
949.000000	63.040462
948.000000	63.243655
947.000000	63.389739
946.000000	63.462574
945.000000	63.469261
944.000000	63.424600
943.000000	63.346580
942.000000	63.266049
941.000000	63.221202
940.000000	63.235826
939.000000	63.313112
938.000000	63.447706
937.000000	63.628265
936.000000	63.827084
935.000000	64.005728
934.000000	64.136583
933.000000	64.209475
932.000000	64.219127
931.000000	64.165741
930.000000	64.068478
929.000000	63.961645
928.000000	63.873016
927.000000	63.817548
926.000000	63.809478
925.000000	63.860454
924.000000	63.962399
923.000000	64.086797
922.000000	64.204337
921.000000	64.292588
920.000000	64.326752
919.000000	64.283682
918.000000	64.161243
917.000000	63.978418
916.000000	63.757758
915.000000	63.520765
914.000000	63.297873
913.000000	63.121915
912.000000	63.005150
911.000000	62.935174
910.000000	62.890714
909.000000	62.846967
908.000000	62.767932
907.000000	62.613307
906.000000	62.361668
905.000000	62.015280
904.000000	61.584941
903.000000	61.088842
902.000000	60.561423
901.000000	60.044919
900.000000	59.564601
899.000000	59.121119
898.000000	58.704795
897.000000	58.298584
896.000000	57.870170
895.000000	57.378946
894.000000	56.796744
893.000000	56.115434
892.000000	55.335072
891.000000	54.463152
890.000000	53.523664
889.000000	52.549489
888.000000	51.565538
887.000000	50.583350
886.000000	49.608797
885.000000	48.641417
884.000000	47.666233
883.000000	46.659509
882.000000	45.602441
881.000000	44.484859
880.000000	43.300299
879.000000	42.047680
878.000000	40.739600
877.000000	39.399847
876.000000	38.053992
875.000000	36.725303
874.000000	35.435164
873.000000	34.199514
872.000000	33.025384
871.000000	31.912681
870.000000	30.856338
869.000000	29.849389
868.000000	28.883840
867.000000	27.953265
866.000000	27.055003
865.000000	26.189672
864.000000	25.363634
863.000000	24.586094
862.000000	23.864127
861.000000	23.201991
860.000000	22.601897
859.000000	22.064523
858.000000	21.584005
857.000000	21.148502
856.000000	20.748015
855.000000	20.375558
854.000000	20.025042
853.000000	19.691617
852.000000	19.376938
851.000000	19.090489
850.000000	18.841730
849.000000	18.638463
848.000000	18.490471
847.000000	18.408363
846.000000	18.398593
845.000000	18.460114
844.000000	18.590204
843.000000	18.786299
842.000000	19.041440
841.000000	19.346382
840.000000	19.694378
839.000000	20.084877
838.000000	20.519935
837.000000	21.001010
836.000000	21.532324
835.000000	22.120107
834.000000	22.763083
833.000000	23.433066
832.000000	24.056280
831.000000	24.483481
830.000000	24.477784
829.000000	23.757455
828.000000	22.149961
827.000000	19.802101
826.000000	17.237698
825.000000	15.137063
824.000000	13.974326
823.000000	13.818457
822.000000	14.432994
821.000000	15.516960
820.000000	16.833294
819.000000	18.203518
818.000000	19.498992
817.000000	20.658587
816.000000	21.690325
815.000000	22.620956
814.000000	23.462880
813.000000	24.223069
812.000000	24.916582
811.000000	25.556468
810.000000	26.149253
809.000000	26.707176
808.000000	27.249283
807.000000	27.788330
806.000000	28.326196
805.000000	28.864959
804.000000	29.407751
803.000000	29.945917
802.000000	30.460843
801.000000	30.940942
800.000000	31.387114
799.000000	31.802517
798.000000	32.190032
797.000000	32.561002
796.000000	32.932895
795.000000	33.317201
794.000000	33.718442
793.000000	34.142369
792.000000	34.593445
791.000000	35.065122
790.000000	35.542880
789.000000	36.015485
788.000000	36.474584
787.000000	36.907621
786.000000	37.303127
785.000000	37.661356
784.000000	37.991565
783.000000	38.302572
782.000000	38.605209
781.000000	38.918337
780.000000	39.261605
779.000000	39.643336
778.000000	40.061050
777.000000	40.507391
776.000000	40.966746
775.000000	41.411801
774.000000	41.814897
773.000000	42.161436
772.000000	42.448542
771.000000	42.680348
770.000000	42.873458
769.000000	43.059416
768.000000	43.270210
767.000000	43.524119
766.000000	43.828061
765.000000	44.182728
764.000000	44.575161
763.000000	44.974018
762.000000	45.343772
761.000000	45.661257
760.000000	45.914916
759.000000	46.100799
758.000000	46.230230
757.000000	46.333338
756.000000	46.444882
755.000000	46.590385
754.000000	46.788079
753.000000	47.050206
752.000000	47.371706
751.000000	47.725785
750.000000	48.080094
749.000000	48.411307
748.000000	48.700885
747.000000	48.932048
746.000000	49.103362
745.000000	49.235722
744.000000	49.356170
743.000000	49.482614
742.000000	49.629092
741.000000	49.811276
740.000000	50.035012
739.000000	50.288763
738.000000	50.556102
737.000000	50.825945
736.000000	51.083616
735.000000	51.305370
734.000000	51.473622
733.000000	51.588625
732.000000	51.657425
731.000000	51.683975
730.000000	51.678340
729.000000	51.662655
728.000000	51.657613
727.000000	51.673027
726.000000	51.717329
725.000000	51.802980
724.000000	51.933016
723.000000	52.093221
722.000000	52.266030
721.000000	52.441107
720.000000	52.606278
719.000000	52.744929
718.000000	52.853685
717.000000	52.950327
716.000000	53.056478
715.000000	53.185746
714.000000	53.354255
713.000000	53.583838
712.000000	53.882181
711.000000	54.231723
710.000000	54.606987
709.000000	54.987576
708.000000	55.347358
707.000000	55.651960
706.000000	55.882721
705.000000	56.050721
704.000000	56.179223
703.000000	56.287768
702.000000	56.401237
701.000000	56.553606
700.000000	56.766461
699.000000	57.035857
698.000000	57.346773
697.000000	57.683442
696.000000	58.016815
695.000000	58.304307
694.000000	58.518833
693.000000	58.665263
692.000000	58.760656
691.000000	58.819573
690.000000	58.868390
689.000000	58.950251
688.000000	59.095883
687.000000	59.302130
686.000000	59.552084
685.000000	59.834268
684.000000	60.128895
683.000000	60.400773
682.000000	60.625641
681.000000	60.806013
680.000000	60.951433
679.000000	61.064559
678.000000	61.158654
677.000000	61.263152
676.000000	61.398767
675.000000	61.563083
674.000000	61.752324
673.000000	61.973969
672.000000	62.221997
671.000000	62.469997
670.000000	62.707252
669.000000	62.953803
668.000000	63.188957
667.000000	63.356637
666.000000	63.489333
665.000000	63.624747
664.000000	63.758481
663.000000	63.883988
662.000000	64.007439
661.000000	64.147438
660.000000	64.317104
659.000000	64.516097
658.000000	64.744628
657.000000	65.005336
656.000000	65.286493
655.000000	65.557646
654.000000	65.793456
653.000000	65.988290
652.000000	66.140283
651.000000	66.244366
650.000000	66.313501
649.000000	66.383593
648.000000	66.484879
647.000000	66.628167
646.000000	66.823005
645.000000	67.082400
644.000000	67.394351
643.000000	67.712039
642.000000	67.989361
641.000000	68.209850
640.000000	68.370063
639.000000	68.465521
638.000000	68.511857
637.000000	68.553722
636.000000	68.634530
635.000000	68.773875
634.000000	68.980624
633.000000	69.259286
632.000000	69.589557
631.000000	69.923418
630.000000	70.219982
629.000000	70.465026
628.000000	70.650864
627.000000	70.769339
626.000000	70.840594
625.000000	70.914699
624.000000	71.024992
623.000000	71.167566
622.000000	71.336928
621.000000	71.547055
620.000000	71.799255
619.000000	72.064484
618.000000	72.317240
617.000000	72.560149
616.000000	72.796380
615.000000	73.009888
614.000000	73.191848
613.000000	73.355448
612.000000	73.503376
611.000000	73.612170
610.000000	73.662048
609.000000	73.647897
608.000000	73.548884
607.000000	73.309215
606.000000	72.865350
605.000000	72.140733
604.000000	70.986172
603.000000	69.168648
602.000000	66.421187
601.000000	62.551645
600.000000	57.587305
599.000000	51.923382
598.000000	46.307493
597.000000	41.575503
596.000000	38.349822
595.000000	36.880817
594.000000	37.038351
593.000000	38.424304
592.000000	40.579898
591.000000	43.099767
590.000000	45.666696
589.000000	48.101785
588.000000	50.343318
587.000000	52.382172
586.000000	54.218098
585.000000	55.861736
584.000000	57.330008
583.000000	58.642523
582.000000	59.836151
581.000000	60.965187
580.000000	62.060456
579.000000	63.098846
578.000000	64.050724
577.000000	64.919428
576.000000	65.707330
575.000000	66.384905
574.000000	66.928838
573.000000	67.366626
572.000000	67.742747
571.000000	68.080256
570.000000	68.404925
569.000000	68.762142
568.000000	69.175080
567.000000	69.616012
566.000000	70.046548
565.000000	70.456711
564.000000	70.836761
563.000000	71.155999
562.000000	71.404235
561.000000	71.615827
560.000000	71.822226
559.000000	72.018233
558.000000	72.202383
557.000000	72.402157
556.000000	72.630388
555.000000	72.860280
554.000000	73.073345
553.000000	73.288183
552.000000	73.515943
551.000000	73.733791
550.000000	73.931720
549.000000	74.137135
548.000000	74.363055
547.000000	74.581491
546.000000	74.774812
545.000000	74.962169
544.000000	75.144729
543.000000	75.285956
542.000000	75.376751
541.000000	75.467318
540.000000	75.601449
539.000000	75.773635
538.000000	75.976532
537.000000	76.231074
536.000000	76.532982
535.000000	76.823406
534.000000	77.052234
533.000000	77.222639
532.000000	77.340792
531.000000	77.383433
530.000000	77.358462
529.000000	77.333750
528.000000	77.369094
527.000000	77.472443
526.000000	77.644534
525.000000	77.892219
524.000000	78.162329
523.000000	78.334827
522.000000	78.318311
521.000000	78.094321
520.000000	77.658701
519.000000	76.993188
518.000000	76.138963
517.000000	75.243706
516.000000	74.472209
515.000000	73.919938
514.000000	73.630553
513.000000	73.619784
512.000000	73.827591
511.000000	74.104053
510.000000	74.295308
509.000000	74.311565
508.000000	74.079267
507.000000	73.508437
506.000000	72.553596
505.000000	71.231402
504.000000	69.557967
503.000000	67.588643
502.000000	65.580363
501.000000	63.947042
500.000000	62.971043
499.000000	62.672280
498.000000	62.944974
497.000000	63.650669
496.000000	64.597139
495.000000	65.561522
494.000000	66.388273
493.000000	67.050238
492.000000	67.587170
491.000000	68.046502
490.000000	68.493772
489.000000	69.008963
488.000000	69.621930
487.000000	70.300300
486.000000	71.023924
485.000000	71.819941
484.000000	72.692536
483.000000	73.579537
482.000000	74.424187
481.000000	75.220259
480.000000	75.942937
479.000000	76.517334
478.000000	76.907793
477.000000	77.177018
476.000000	77.404332
475.000000	77.610558
474.000000	77.823894
473.000000	78.132404
472.000000	78.578400
471.000000	79.057353
470.000000	79.443384
469.000000	79.732055
468.000000	79.954460
467.000000	80.082751
466.000000	80.093644
465.000000	80.044416
464.000000	79.999421
463.000000	79.964602
462.000000	79.955651
461.000000	80.034891
460.000000	80.206775
459.000000	80.362984
458.000000	80.415821
457.000000	80.413309
456.000000	80.399077
455.000000	80.319844
454.000000	80.160753
453.000000	80.007197
452.000000	79.920898
451.000000	79.822658
450.000000	79.591112
449.000000	79.201618
448.000000	78.670000
447.000000	77.966497
446.000000	77.067684
445.000000	75.992812
444.000000	74.704038
443.000000	73.079918
442.000000	71.065406
441.000000	68.760463
440.000000	66.280721
439.000000	63.676972
438.000000	61.045965
437.000000	58.650041
436.000000	56.833379
435.000000	55.813062
434.000000	55.586582
433.000000	56.048096
432.000000	57.107163
431.000000	58.615907
430.000000	60.369567
429.000000	62.240458
428.000000	64.157714
427.000000	65.986346
426.000000	67.601330
425.000000	69.053358
424.000000	70.443066
423.000000	71.712469
422.000000	72.770619
421.000000	73.731599
420.000000	74.788452
419.000000	75.965685
418.000000	77.096756
417.000000	78.029462
416.000000	78.761994
415.000000	79.259352
414.000000	79.487462
413.000000	79.612918
412.000000	79.809149
411.000000	80.007241
410.000000	80.134112
409.000000	80.365592
408.000000	80.826361
407.000000	81.300810
406.000000	81.567996
405.000000	81.761618
404.000000	82.044421
403.000000	82.187592
402.000000	81.994013
401.000000	81.640301
400.000000	81.378830
