PE IR       SUBTECH     SPECTRUM    ASCII       PEDS        4.00        
   -1
23ms175_nitro.asc
24/09/06
16:46:33.00
24/09/06
16:46:33.00
Administrator
Sample 1132 By Administrator Date Friday, September 06 2024
400.000000
#HDR
-1
-1
#GR
cm-1
%T
1.0
0.0
4000.000000
-1.000000
3601
8
97.779312
29.329301
#DATA
4000.000000	82.616257
3999.000000	82.641292
3998.000000	82.668150
3997.000000	82.694935
3996.000000	82.719677
3995.000000	82.740855
3994.000000	82.757966
3993.000000	82.772288
3992.000000	82.786797
3991.000000	82.804533
3990.000000	82.826181
3989.000000	82.849877
3988.000000	82.873765
3987.000000	82.897710
3986.000000	82.922177
3985.000000	82.946256
3984.000000	82.968056
3983.000000	82.986591
3982.000000	83.002405
3981.000000	83.016727
3980.000000	83.030664
3979.000000	83.045409
3978.000000	83.062697
3977.000000	83.083877
3976.000000	83.108191
3975.000000	83.132521
3974.000000	83.153578
3973.000000	83.170233
3972.000000	83.183653
3971.000000	83.196449
3970.000000	83.211387
3969.000000	83.229807
3968.000000	83.251143
3967.000000	83.273852
3966.000000	83.296281
3965.000000	83.317527
3964.000000	83.337505
3963.000000	83.356084
3962.000000	83.372736
3961.000000	83.386629
3960.000000	83.397395
3959.000000	83.407177
3958.000000	83.420214
3957.000000	83.439257
3956.000000	83.463234
3955.000000	83.488880
3954.000000	83.513181
3953.000000	83.534144
3952.000000	83.550363
3951.000000	83.561592
3950.000000	83.568819
3949.000000	83.572887
3948.000000	83.575446
3947.000000	83.579347
3946.000000	83.587966
3945.000000	83.605732
3944.000000	83.636682
3943.000000	83.678310
3942.000000	83.719068
3941.000000	83.747434
3940.000000	83.761988
3939.000000	83.771379
3938.000000	83.783851
3937.000000	83.798509
3936.000000	83.808270
3935.000000	83.810924
3934.000000	83.815303
3933.000000	83.832584
3932.000000	83.863209
3931.000000	83.896362
3930.000000	83.921369
3929.000000	83.937536
3928.000000	83.950748
3927.000000	83.966778
3926.000000	83.989572
3925.000000	84.018899
3924.000000	84.046201
3923.000000	84.060794
3922.000000	84.062346
3921.000000	84.061663
3920.000000	84.068401
3919.000000	84.081791
3918.000000	84.096863
3917.000000	84.114458
3916.000000	84.137196
3915.000000	84.162594
3914.000000	84.187640
3913.000000	84.216050
3912.000000	84.252240
3911.000000	84.293545
3910.000000	84.331174
3909.000000	84.359205
3908.000000	84.376952
3907.000000	84.384229
3906.000000	84.377712
3905.000000	84.355618
3904.000000	84.321305
3903.000000	84.283888
3902.000000	84.257598
3901.000000	84.256992
3900.000000	84.289474
3899.000000	84.346428
3898.000000	84.405180
3897.000000	84.449951
3896.000000	84.481179
3895.000000	84.507933
3894.000000	84.534975
3893.000000	84.560375
3892.000000	84.579800
3891.000000	84.594969
3890.000000	84.606603
3889.000000	84.607882
3888.000000	84.595373
3887.000000	84.586857
3886.000000	84.607661
3885.000000	84.652193
3884.000000	84.683865
3883.000000	84.684644
3882.000000	84.676299
3881.000000	84.690306
3880.000000	84.728872
3879.000000	84.767847
3878.000000	84.789136
3877.000000	84.796744
3876.000000	84.810433
3875.000000	84.848722
3874.000000	84.902498
3873.000000	84.933326
3872.000000	84.913337
3871.000000	84.865138
3870.000000	84.841451
3869.000000	84.858042
3868.000000	84.879944
3867.000000	84.880213
3866.000000	84.879256
3865.000000	84.913265
3864.000000	84.975488
3863.000000	85.024655
3862.000000	85.042222
3861.000000	85.045343
3860.000000	85.058226
3859.000000	85.097839
3858.000000	85.166738
3857.000000	85.247983
3856.000000	85.304449
3855.000000	85.309760
3854.000000	85.280007
3853.000000	85.244202
3852.000000	85.213316
3851.000000	85.192536
3850.000000	85.187733
3849.000000	85.204701
3848.000000	85.241502
3847.000000	85.287265
3846.000000	85.332855
3845.000000	85.375408
3844.000000	85.412576
3843.000000	85.443175
3842.000000	85.463698
3841.000000	85.469540
3840.000000	85.461530
3839.000000	85.446802
3838.000000	85.432507
3837.000000	85.427382
3836.000000	85.437337
3835.000000	85.461173
3834.000000	85.493100
3833.000000	85.531661
3832.000000	85.580183
3831.000000	85.634665
3830.000000	85.681734
3829.000000	85.712377
3828.000000	85.729726
3827.000000	85.746895
3826.000000	85.770356
3825.000000	85.787451
3824.000000	85.778838
3823.000000	85.752334
3822.000000	85.748238
3821.000000	85.789825
3820.000000	85.844439
3819.000000	85.867525
3818.000000	85.852523
3817.000000	85.834363
3816.000000	85.855643
3815.000000	85.912751
3814.000000	85.964494
3813.000000	85.992084
3812.000000	86.015629
3811.000000	86.055865
3810.000000	86.105489
3809.000000	86.140228
3808.000000	86.152740
3807.000000	86.161080
3806.000000	86.175862
3805.000000	86.181481
3804.000000	86.161896
3803.000000	86.132341
3802.000000	86.130069
3801.000000	86.164326
3800.000000	86.200492
3799.000000	86.214435
3798.000000	86.220784
3797.000000	86.247337
3796.000000	86.300790
3795.000000	86.360198
3794.000000	86.404620
3793.000000	86.434981
3792.000000	86.465562
3791.000000	86.502657
3790.000000	86.539994
3789.000000	86.570165
3788.000000	86.593105
3787.000000	86.612269
3786.000000	86.629863
3785.000000	86.645858
3784.000000	86.658108
3783.000000	86.661836
3782.000000	86.656764
3781.000000	86.655112
3780.000000	86.672401
3779.000000	86.707879
3778.000000	86.744513
3777.000000	86.769822
3776.000000	86.786907
3775.000000	86.807614
3774.000000	86.834937
3773.000000	86.856744
3772.000000	86.861373
3771.000000	86.857146
3770.000000	86.860090
3769.000000	86.870385
3768.000000	86.878201
3767.000000	86.884959
3766.000000	86.904377
3765.000000	86.943203
3764.000000	86.985792
3763.000000	87.007359
3762.000000	87.003153
3761.000000	86.996027
3760.000000	87.005537
3759.000000	87.021402
3758.000000	87.028068
3757.000000	87.033024
3756.000000	87.046568
3755.000000	87.062829
3754.000000	87.072252
3753.000000	87.078360
3752.000000	87.085231
3751.000000	87.076953
3750.000000	87.047950
3749.000000	87.029939
3748.000000	87.041122
3747.000000	87.056175
3746.000000	87.053823
3745.000000	87.061037
3744.000000	87.108505
3743.000000	87.170360
3742.000000	87.206781
3741.000000	87.218271
3740.000000	87.226054
3739.000000	87.233872
3738.000000	87.231529
3737.000000	87.229957
3736.000000	87.256225
3735.000000	87.306002
3734.000000	87.343570
3733.000000	87.360523
3732.000000	87.385163
3731.000000	87.434824
3730.000000	87.494728
3729.000000	87.540528
3728.000000	87.569948
3727.000000	87.602762
3726.000000	87.647558
3725.000000	87.687064
3724.000000	87.709478
3723.000000	87.727850
3722.000000	87.756942
3721.000000	87.795008
3720.000000	87.832013
3719.000000	87.861692
3718.000000	87.886148
3717.000000	87.910599
3716.000000	87.930869
3715.000000	87.938365
3714.000000	87.934984
3713.000000	87.936981
3712.000000	87.956153
3711.000000	87.983039
3710.000000	88.005330
3709.000000	88.024712
3708.000000	88.048624
3707.000000	88.081624
3706.000000	88.120301
3705.000000	88.156895
3704.000000	88.189425
3703.000000	88.224913
3702.000000	88.268636
3701.000000	88.314229
3700.000000	88.351831
3699.000000	88.377284
3698.000000	88.395107
3697.000000	88.415209
3696.000000	88.437983
3695.000000	88.450294
3694.000000	88.444443
3693.000000	88.432475
3692.000000	88.431233
3691.000000	88.440931
3690.000000	88.446622
3689.000000	88.443795
3688.000000	88.449963
3687.000000	88.479135
3686.000000	88.521035
3685.000000	88.559932
3684.000000	88.592278
3683.000000	88.618572
3682.000000	88.636197
3681.000000	88.646038
3680.000000	88.657504
3679.000000	88.668836
3678.000000	88.658436
3677.000000	88.623131
3676.000000	88.603152
3675.000000	88.619892
3674.000000	88.639343
3673.000000	88.625803
3672.000000	88.584321
3671.000000	88.565504
3670.000000	88.608544
3669.000000	88.681953
3668.000000	88.737755
3667.000000	88.774364
3666.000000	88.812190
3665.000000	88.863620
3664.000000	88.924572
3663.000000	88.981630
3662.000000	89.025950
3661.000000	89.056312
3660.000000	89.071586
3659.000000	89.067459
3658.000000	89.045801
3657.000000	89.021809
3656.000000	89.010244
3655.000000	89.005998
3654.000000	88.989885
3653.000000	88.950027
3652.000000	88.897584
3651.000000	88.858022
3650.000000	88.839102
3649.000000	88.821406
3648.000000	88.806119
3647.000000	88.817598
3646.000000	88.858271
3645.000000	88.909579
3644.000000	88.960945
3643.000000	89.014839
3642.000000	89.072212
3641.000000	89.122125
3640.000000	89.151273
3639.000000	89.161022
3638.000000	89.161933
3637.000000	89.157809
3636.000000	89.146142
3635.000000	89.133418
3634.000000	89.132803
3633.000000	89.139740
3632.000000	89.128134
3631.000000	89.081535
3630.000000	89.025716
3629.000000	88.999681
3628.000000	88.994918
3627.000000	88.985300
3626.000000	88.971148
3625.000000	88.966815
3624.000000	88.981120
3623.000000	89.009153
3622.000000	89.036234
3621.000000	89.055148
3620.000000	89.068947
3619.000000	89.074527
3618.000000	89.062095
3617.000000	89.031341
3616.000000	88.990956
3615.000000	88.955507
3614.000000	88.938238
3613.000000	88.935786
3612.000000	88.930344
3611.000000	88.912508
3610.000000	88.896111
3609.000000	88.907182
3608.000000	88.951912
3607.000000	89.006443
3606.000000	89.045355
3605.000000	89.062784
3604.000000	89.067962
3603.000000	89.071537
3602.000000	89.076256
3601.000000	89.079331
3600.000000	89.077094
3599.000000	89.066665
3598.000000	89.051547
3597.000000	89.040923
3596.000000	89.041428
3595.000000	89.052344
3594.000000	89.064741
3593.000000	89.065782
3592.000000	89.047615
3591.000000	89.010516
3590.000000	88.966341
3589.000000	88.938926
3588.000000	88.944705
3587.000000	88.970193
3586.000000	88.990198
3585.000000	88.998472
3584.000000	89.005387
3583.000000	89.020724
3582.000000	89.045575
3581.000000	89.073855
3580.000000	89.098461
3579.000000	89.115836
3578.000000	89.126391
3577.000000	89.132215
3576.000000	89.134939
3575.000000	89.134754
3574.000000	89.130495
3573.000000	89.118718
3572.000000	89.094845
3571.000000	89.055280
3570.000000	89.001382
3569.000000	88.949333
3568.000000	88.925020
3567.000000	88.936944
3566.000000	88.964681
3565.000000	88.987509
3564.000000	89.002422
3563.000000	89.017504
3562.000000	89.038336
3561.000000	89.061724
3560.000000	89.079909
3559.000000	89.088440
3558.000000	89.089072
3557.000000	89.086644
3556.000000	89.086244
3555.000000	89.092100
3554.000000	89.106506
3553.000000	89.126515
3552.000000	89.142284
3551.000000	89.142902
3550.000000	89.124183
3549.000000	89.093157
3548.000000	89.064787
3547.000000	89.051671
3546.000000	89.054585
3545.000000	89.065222
3544.000000	89.077191
3543.000000	89.090640
3542.000000	89.107660
3541.000000	89.127177
3540.000000	89.145966
3539.000000	89.161367
3538.000000	89.172389
3537.000000	89.178331
3536.000000	89.177163
3535.000000	89.167823
3534.000000	89.152369
3533.000000	89.136661
3532.000000	89.126995
3531.000000	89.126041
3530.000000	89.130864
3529.000000	89.135992
3528.000000	89.138051
3527.000000	89.137044
3526.000000	89.135246
3525.000000	89.136312
3524.000000	89.143146
3523.000000	89.153796
3522.000000	89.162083
3521.000000	89.164078
3520.000000	89.162732
3519.000000	89.163764
3518.000000	89.168682
3517.000000	89.174045
3516.000000	89.176576
3515.000000	89.176629
3514.000000	89.175122
3513.000000	89.171012
3512.000000	89.164566
3511.000000	89.159616
3510.000000	89.158403
3509.000000	89.157047
3508.000000	89.149053
3507.000000	89.132754
3506.000000	89.113326
3505.000000	89.098643
3504.000000	89.093009
3503.000000	89.094163
3502.000000	89.096697
3501.000000	89.097875
3500.000000	89.099798
3499.000000	89.105404
3498.000000	89.114097
3497.000000	89.121007
3496.000000	89.120135
3495.000000	89.108153
3494.000000	89.085805
3493.000000	89.056893
3492.000000	89.026987
3491.000000	89.001906
3490.000000	88.985465
3489.000000	88.978628
3488.000000	88.979849
3487.000000	88.984681
3486.000000	88.986671
3485.000000	88.981147
3484.000000	88.968297
3483.000000	88.951520
3482.000000	88.931855
3481.000000	88.906792
3480.000000	88.875024
3479.000000	88.840369
3478.000000	88.809776
3477.000000	88.788671
3476.000000	88.778362
3475.000000	88.775639
3474.000000	88.774650
3473.000000	88.770098
3472.000000	88.759366
3471.000000	88.741912
3470.000000	88.717002
3469.000000	88.683625
3468.000000	88.642932
3467.000000	88.598699
3466.000000	88.555238
3465.000000	88.516053
3464.000000	88.484129
3463.000000	88.460979
3462.000000	88.444054
3461.000000	88.427371
3460.000000	88.405805
3459.000000	88.378086
3458.000000	88.345492
3457.000000	88.309120
3456.000000	88.269649
3455.000000	88.228133
3454.000000	88.185203
3453.000000	88.140865
3452.000000	88.095049
3451.000000	88.048225
3450.000000	88.001570
3449.000000	87.957058
3448.000000	87.916795
3447.000000	87.880320
3446.000000	87.843801
3445.000000	87.804133
3444.000000	87.762435
3443.000000	87.721532
3442.000000	87.680763
3441.000000	87.635674
3440.000000	87.583459
3439.000000	87.526123
3438.000000	87.467216
3437.000000	87.407901
3436.000000	87.348225
3435.000000	87.290022
3434.000000	87.235741
3433.000000	87.185851
3432.000000	87.137651
3431.000000	87.086243
3430.000000	87.026026
3429.000000	86.952631
3428.000000	86.865484
3427.000000	86.768035
3426.000000	86.665754
3425.000000	86.564205
3424.000000	86.468611
3423.000000	86.383306
3422.000000	86.309678
3421.000000	86.244710
3420.000000	86.182252
3419.000000	86.115761
3418.000000	86.039993
3417.000000	85.951745
3416.000000	85.850357
3415.000000	85.737275
3414.000000	85.614944
3413.000000	85.486907
3412.000000	85.358429
3411.000000	85.235100
3410.000000	85.119387
3409.000000	85.008923
3408.000000	84.898802
3407.000000	84.784653
3406.000000	84.663848
3405.000000	84.535117
3404.000000	84.397797
3403.000000	84.251297
3402.000000	84.094481
3401.000000	83.926823
3400.000000	83.750614
3399.000000	83.571215
3398.000000	83.394040
3397.000000	83.221106
3396.000000	83.050671
3395.000000	82.879463
3394.000000	82.703895
3393.000000	82.519889
3392.000000	82.323416
3391.000000	82.112462
3390.000000	81.888976
3389.000000	81.657685
3388.000000	81.422516
3387.000000	81.183899
3386.000000	80.939537
3385.000000	80.687960
3384.000000	80.429813
3383.000000	80.166523
3382.000000	79.898750
3381.000000	79.626729
3380.000000	79.350978
3379.000000	79.071589
3378.000000	78.787411
3377.000000	78.496419
3376.000000	78.196237
3375.000000	77.884478
3374.000000	77.559600
3373.000000	77.222029
3372.000000	76.874111
3371.000000	76.517942
3370.000000	76.154974
3369.000000	75.787125
3368.000000	75.416939
3367.000000	75.045698
3366.000000	74.671753
3365.000000	74.291723
3364.000000	73.901881
3363.000000	73.498387
3362.000000	73.078268
3361.000000	72.641225
3360.000000	72.190330
3359.000000	71.730507
3358.000000	71.266815
3357.000000	70.804286
3356.000000	70.346413
3355.000000	69.893198
3354.000000	69.441131
3353.000000	68.985121
3352.000000	68.519871
3351.000000	68.040235
3350.000000	67.543346
3349.000000	67.031120
3348.000000	66.508892
3347.000000	65.981597
3346.000000	65.452048
3345.000000	64.922715
3344.000000	64.396172
3343.000000	63.873088
3342.000000	63.351769
3341.000000	62.829642
3340.000000	62.303876
3339.000000	61.771168
3338.000000	61.229261
3337.000000	60.679361
3336.000000	60.125120
3335.000000	59.569527
3334.000000	59.014559
3333.000000	58.462763
3332.000000	57.916325
3331.000000	57.374575
3330.000000	56.834625
3329.000000	56.294423
3328.000000	55.753342
3327.000000	55.210831
3326.000000	54.667292
3325.000000	54.125630
3324.000000	53.588902
3323.000000	53.057101
3322.000000	52.528479
3321.000000	52.003082
3320.000000	51.482393
3319.000000	50.966383
3318.000000	50.454492
3317.000000	49.948284
3316.000000	49.450237
3315.000000	48.960764
3314.000000	48.479052
3313.000000	48.006012
3312.000000	47.543052
3311.000000	47.089068
3310.000000	46.642417
3309.000000	46.204264
3308.000000	45.777698
3307.000000	45.364526
3306.000000	44.965969
3305.000000	44.585409
3304.000000	44.225327
3303.000000	43.883976
3302.000000	43.557710
3301.000000	43.245382
3300.000000	42.947661
3299.000000	42.663218
3298.000000	42.390131
3297.000000	42.129461
3296.000000	41.883003
3295.000000	41.650042
3294.000000	41.429282
3293.000000	41.223157
3292.000000	41.036321
3291.000000	40.869841
3290.000000	40.721888
3289.000000	40.591039
3288.000000	40.476231
3287.000000	40.374674
3286.000000	40.282991
3285.000000	40.200505
3284.000000	40.126983
3283.000000	40.059714
3282.000000	39.996154
3281.000000	39.937459
3280.000000	39.886534
3279.000000	39.843630
3278.000000	39.807532
3277.000000	39.779318
3276.000000	39.760619
3275.000000	39.749821
3274.000000	39.743441
3273.000000	39.740440
3272.000000	39.742310
3271.000000	39.749727
3270.000000	39.762319
3269.000000	39.780087
3268.000000	39.802092
3267.000000	39.825660
3266.000000	39.849419
3265.000000	39.875735
3264.000000	39.907310
3263.000000	39.943019
3262.000000	39.980170
3261.000000	40.018095
3260.000000	40.056878
3259.000000	40.094822
3258.000000	40.130688
3257.000000	40.167019
3256.000000	40.207582
3255.000000	40.252956
3254.000000	40.301135
3253.000000	40.350742
3252.000000	40.400660
3251.000000	40.448563
3250.000000	40.493141
3249.000000	40.536723
3248.000000	40.583006
3247.000000	40.633491
3246.000000	40.687967
3245.000000	40.746259
3244.000000	40.806989
3243.000000	40.866772
3242.000000	40.923448
3241.000000	40.978109
3240.000000	41.031988
3239.000000	41.083448
3238.000000	41.130583
3237.000000	41.174386
3236.000000	41.217119
3235.000000	41.259982
3234.000000	41.304777
3233.000000	41.354907
3232.000000	41.411253
3231.000000	41.469345
3230.000000	41.523612
3229.000000	41.572340
3228.000000	41.616206
3227.000000	41.654853
3226.000000	41.688199
3225.000000	41.718933
3224.000000	41.750063
3223.000000	41.781815
3222.000000	41.813511
3221.000000	41.846256
3220.000000	41.880802
3219.000000	41.914563
3218.000000	41.943948
3217.000000	41.967860
3216.000000	41.986595
3215.000000	41.999634
3214.000000	42.007094
3213.000000	42.011589
3212.000000	42.015740
3211.000000	42.019479
3210.000000	42.022091
3209.000000	42.024269
3208.000000	42.025958
3207.000000	42.024399
3206.000000	42.017027
3205.000000	42.004396
3204.000000	41.987755
3203.000000	41.966372
3202.000000	41.939857
3201.000000	41.910527
3200.000000	41.880939
3199.000000	41.850802
3198.000000	41.818948
3197.000000	41.785849
3196.000000	41.751605
3195.000000	41.714047
3194.000000	41.671401
3193.000000	41.624843
3192.000000	41.576107
3191.000000	41.524844
3190.000000	41.470964
3189.000000	41.416725
3188.000000	41.363837
3187.000000	41.310913
3186.000000	41.256281
3185.000000	41.200822
3184.000000	41.145530
3183.000000	41.089031
3182.000000	41.030376
3181.000000	40.971903
3180.000000	40.916458
3179.000000	40.864095
3178.000000	40.813955
3177.000000	40.766843
3176.000000	40.723306
3175.000000	40.681497
3174.000000	40.639690
3173.000000	40.598611
3172.000000	40.559011
3171.000000	40.519796
3170.000000	40.480850
3169.000000	40.445090
3168.000000	40.415234
3167.000000	40.390892
3166.000000	40.371234
3165.000000	40.357197
3164.000000	40.348681
3163.000000	40.342565
3162.000000	40.336088
3161.000000	40.329844
3160.000000	40.325094
3159.000000	40.321315
3158.000000	40.318928
3157.000000	40.320944
3156.000000	40.329347
3155.000000	40.342833
3154.000000	40.360754
3153.000000	40.386095
3152.000000	40.421014
3151.000000	40.462579
3150.000000	40.505773
3149.000000	40.548242
3148.000000	40.589766
3147.000000	40.630038
3146.000000	40.670181
3145.000000	40.713733
3144.000000	40.762972
3143.000000	40.816637
3142.000000	40.873326
3141.000000	40.934596
3140.000000	41.002081
3139.000000	41.074148
3138.000000	41.148154
3137.000000	41.223351
3136.000000	41.299546
3135.000000	41.375751
3134.000000	41.452288
3133.000000	41.531904
3132.000000	41.616341
3131.000000	41.704725
3130.000000	41.796867
3129.000000	41.894582
3128.000000	41.997584
3127.000000	42.101492
3126.000000	42.202616
3125.000000	42.301765
3124.000000	42.400953
3123.000000	42.499896
3122.000000	42.598647
3121.000000	42.700303
3120.000000	42.807782
3119.000000	42.920340
3118.000000	43.036189
3117.000000	43.155843
3116.000000	43.280154
3115.000000	43.407632
3114.000000	43.536136
3113.000000	43.665297
3112.000000	43.795068
3111.000000	43.924649
3110.000000	44.054898
3109.000000	44.188944
3108.000000	44.328032
3107.000000	44.469178
3106.000000	44.608913
3105.000000	44.746845
3104.000000	44.883835
3103.000000	45.019709
3102.000000	45.155372
3101.000000	45.294114
3100.000000	45.438500
3099.000000	45.587818
3098.000000	45.740461
3097.000000	45.895923
3096.000000	46.052550
3095.000000	46.206370
3094.000000	46.354664
3093.000000	46.498692
3092.000000	46.641247
3091.000000	46.784024
3090.000000	46.928838
3089.000000	47.078366
3088.000000	47.233396
3087.000000	47.391629
3086.000000	47.550900
3085.000000	47.711149
3084.000000	47.871770
3083.000000	48.029802
3082.000000	48.183048
3081.000000	48.332583
3080.000000	48.480696
3079.000000	48.628751
3078.000000	48.778565
3077.000000	48.932893
3076.000000	49.092522
3075.000000	49.255102
3074.000000	49.418291
3073.000000	49.581604
3072.000000	49.743874
3071.000000	49.901962
3070.000000	50.054277
3069.000000	50.203097
3068.000000	50.351704
3067.000000	50.501277
3066.000000	50.652068
3065.000000	50.804951
3064.000000	50.959882
3063.000000	51.115097
3062.000000	51.269514
3061.000000	51.423853
3060.000000	51.578139
3059.000000	51.730593
3058.000000	51.880361
3057.000000	52.028981
3056.000000	52.177529
3055.000000	52.324747
3054.000000	52.469358
3053.000000	52.612207
3052.000000	52.754538
3051.000000	52.896388
3050.000000	53.037955
3049.000000	53.180226
3048.000000	53.323052
3047.000000	53.464871
3046.000000	53.605658
3045.000000	53.747798
3044.000000	53.892753
3043.000000	54.039060
3042.000000	54.184872
3041.000000	54.329746
3040.000000	54.472736
3039.000000	54.611184
3038.000000	54.743584
3037.000000	54.871721
3036.000000	54.998676
3035.000000	55.126717
3034.000000	55.258138
3033.000000	55.395487
3032.000000	55.538715
3031.000000	55.684014
3030.000000	55.827111
3029.000000	55.966089
3028.000000	56.100095
3027.000000	56.227833
3026.000000	56.349494
3025.000000	56.468262
3024.000000	56.587998
3023.000000	56.710547
3022.000000	56.836241
3021.000000	56.965114
3020.000000	57.096238
3019.000000	57.227282
3018.000000	57.356232
3017.000000	57.482224
3016.000000	57.604379
3015.000000	57.721814
3014.000000	57.835848
3013.000000	57.950233
3012.000000	58.067875
3011.000000	58.188859
3010.000000	58.312231
3009.000000	58.437597
3008.000000	58.563986
3007.000000	58.689285
3006.000000	58.812179
3005.000000	58.933078
3004.000000	59.052242
3003.000000	59.168623
3002.000000	59.281579
3001.000000	59.392039
3000.000000	59.501261
2999.000000	59.610008
2998.000000	59.719618
2997.000000	59.831657
2996.000000	59.945536
2995.000000	60.058376
2994.000000	60.168395
2993.000000	60.276876
2992.000000	60.385907
2991.000000	60.496026
2990.000000	60.607008
2989.000000	60.719004
2988.000000	60.831467
2987.000000	60.942554
2986.000000	61.050727
2985.000000	61.155792
2984.000000	61.257670
2983.000000	61.355913
2982.000000	61.451451
2981.000000	61.547240
2980.000000	61.646008
2979.000000	61.748405
2978.000000	61.853922
2977.000000	61.962009
2976.000000	62.071474
2975.000000	62.180318
2974.000000	62.287184
2973.000000	62.391675
2972.000000	62.492948
2971.000000	62.589758
2970.000000	62.682677
2969.000000	62.774636
2968.000000	62.868345
2967.000000	62.964731
2966.000000	63.064232
2965.000000	63.167536
2964.000000	63.273816
2963.000000	63.380054
2962.000000	63.483284
2961.000000	63.582295
2960.000000	63.676523
2959.000000	63.765474
2958.000000	63.850129
2957.000000	63.933221
2956.000000	64.016847
2955.000000	64.101554
2954.000000	64.188414
2953.000000	64.279666
2952.000000	64.375697
2951.000000	64.473035
2950.000000	64.566978
2949.000000	64.655063
2948.000000	64.737239
2947.000000	64.814473
2946.000000	64.888853
2945.000000	64.963791
2944.000000	65.042450
2943.000000	65.126059
2942.000000	65.214295
2941.000000	65.306118
2940.000000	65.399702
2939.000000	65.492711
2938.000000	65.583673
2937.000000	65.672234
2936.000000	65.757873
2935.000000	65.839642
2934.000000	65.917752
2933.000000	65.994031
2932.000000	66.070178
2931.000000	66.146900
2930.000000	66.225120
2929.000000	66.306220
2928.000000	66.390021
2927.000000	66.474025
2926.000000	66.555693
2925.000000	66.634334
2924.000000	66.710282
2923.000000	66.783677
2922.000000	66.854993
2921.000000	66.925379
2920.000000	66.995528
2919.000000	67.065177
2918.000000	67.134167
2917.000000	67.202898
2916.000000	67.271357
2915.000000	67.338984
2914.000000	67.405969
2913.000000	67.473486
2912.000000	67.542388
2911.000000	67.612743
2910.000000	67.684703
2909.000000	67.758538
2908.000000	67.833303
2907.000000	67.907082
2906.000000	67.978711
2905.000000	68.048258
2904.000000	68.115553
2903.000000	68.179886
2902.000000	68.241407
2901.000000	68.302600
2900.000000	68.365190
2899.000000	68.430014
2898.000000	68.497478
2897.000000	68.567695
2896.000000	68.639359
2895.000000	68.709959
2894.000000	68.777822
2893.000000	68.842909
2892.000000	68.905276
2891.000000	68.964274
2890.000000	69.019994
2889.000000	69.074199
2888.000000	69.129002
2887.000000	69.185625
2886.000000	69.244939
2885.000000	69.307903
2884.000000	69.374530
2883.000000	69.443212
2882.000000	69.511790
2881.000000	69.578615
2880.000000	69.642420
2879.000000	69.702572
2878.000000	69.760414
2877.000000	69.819300
2876.000000	69.881932
2875.000000	69.947659
2874.000000	70.012929
2873.000000	70.074306
2872.000000	70.131149
2871.000000	70.185999
2870.000000	70.242482
2869.000000	70.302272
2868.000000	70.363666
2867.000000	70.423343
2866.000000	70.479396
2865.000000	70.532486
2864.000000	70.584907
2863.000000	70.639253
2862.000000	70.697219
2861.000000	70.758171
2860.000000	70.819104
2859.000000	70.877329
2858.000000	70.933157
2857.000000	70.988951
2856.000000	71.045987
2855.000000	71.103614
2854.000000	71.161164
2853.000000	71.219021
2852.000000	71.277789
2851.000000	71.337743
2850.000000	71.398935
2849.000000	71.460466
2848.000000	71.519976
2847.000000	71.575608
2846.000000	71.628575
2845.000000	71.682320
2844.000000	71.739494
2843.000000	71.801084
2842.000000	71.867702
2841.000000	71.938801
2840.000000	72.010318
2839.000000	72.075893
2838.000000	72.132200
2837.000000	72.181700
2836.000000	72.229215
2835.000000	72.277349
2834.000000	72.326104
2833.000000	72.375222
2832.000000	72.425154
2831.000000	72.476495
2830.000000	72.529839
2829.000000	72.585840
2828.000000	72.644584
2827.000000	72.705212
2826.000000	72.766671
2825.000000	72.828258
2824.000000	72.889076
2823.000000	72.947834
2822.000000	73.003903
2821.000000	73.057967
2820.000000	73.111169
2819.000000	73.164218
2818.000000	73.217684
2817.000000	73.272330
2816.000000	73.328523
2815.000000	73.385933
2814.000000	73.444232
2813.000000	73.503340
2812.000000	73.562507
2811.000000	73.619896
2810.000000	73.673840
2809.000000	73.724151
2808.000000	73.771813
2807.000000	73.817957
2806.000000	73.863565
2805.000000	73.909497
2804.000000	73.956165
2803.000000	74.003418
2802.000000	74.051025
2801.000000	74.098915
2800.000000	74.146767
2799.000000	74.193983
2798.000000	74.240414
2797.000000	74.286593
2796.000000	74.332907
2795.000000	74.378976
2794.000000	74.424124
2793.000000	74.467943
2792.000000	74.510156
2791.000000	74.550549
2790.000000	74.589507
2789.000000	74.628276
2788.000000	74.668421
2787.000000	74.711264
2786.000000	74.757737
2785.000000	74.808006
2784.000000	74.860879
2783.000000	74.913986
2782.000000	74.964923
2781.000000	75.012048
2780.000000	75.054408
2779.000000	75.091833
2778.000000	75.125474
2777.000000	75.157623
2776.000000	75.190500
2775.000000	75.225371
2774.000000	75.262728
2773.000000	75.302543
2772.000000	75.343841
2771.000000	75.384517
2770.000000	75.421971
2769.000000	75.453861
2768.000000	75.478507
2767.000000	75.495348
2766.000000	75.505534
2765.000000	75.511624
2764.000000	75.516296
2763.000000	75.521480
2762.000000	75.528412
2761.000000	75.537707
2760.000000	75.549033
2759.000000	75.561143
2758.000000	75.572631
2757.000000	75.582308
2756.000000	75.588944
2755.000000	75.591464
2754.000000	75.589857
2753.000000	75.585446
2752.000000	75.579830
2751.000000	75.573866
2750.000000	75.567699
2749.000000	75.560953
2748.000000	75.552591
2747.000000	75.541044
2746.000000	75.525028
2745.000000	75.504194
2744.000000	75.478879
2743.000000	75.449905
2742.000000	75.418691
2741.000000	75.386851
2740.000000	75.355360
2739.000000	75.324441
2738.000000	75.294502
2737.000000	75.266802
2736.000000	75.243115
2735.000000	75.225457
2734.000000	75.216554
2733.000000	75.219422
2732.000000	75.236197
2731.000000	75.267704
2730.000000	75.313773
2729.000000	75.373384
2728.000000	75.443700
2727.000000	75.519965
2726.000000	75.597303
2725.000000	75.672212
2724.000000	75.742896
2723.000000	75.809173
2722.000000	75.872660
2721.000000	75.936506
2720.000000	76.003844
2719.000000	76.076415
2718.000000	76.154406
2717.000000	76.236597
2716.000000	76.320035
2715.000000	76.400172
2714.000000	76.472100
2713.000000	76.532156
2712.000000	76.578857
2711.000000	76.613068
2710.000000	76.638098
2709.000000	76.658979
2708.000000	76.680774
2707.000000	76.707110
2706.000000	76.739451
2705.000000	76.777085
2704.000000	76.817117
2703.000000	76.855006
2702.000000	76.886106
2701.000000	76.907100
2700.000000	76.916764
2699.000000	76.916153
2698.000000	76.908529
2697.000000	76.898683
2696.000000	76.891235
2695.000000	76.889197
2694.000000	76.893649
2693.000000	76.903924
2692.000000	76.917783
2691.000000	76.931950
2690.000000	76.943328
2689.000000	76.949965
2688.000000	76.951046
2687.000000	76.946617
2686.000000	76.937750
2685.000000	76.926664
2684.000000	76.916023
2683.000000	76.907815
2682.000000	76.902872
2681.000000	76.900964
2680.000000	76.901085
2679.000000	76.901976
2678.000000	76.902859
2677.000000	76.903682
2676.000000	76.904710
2675.000000	76.906127
2674.000000	76.908078
2673.000000	76.910760
2672.000000	76.914211
2671.000000	76.918376
2670.000000	76.923547
2669.000000	76.930419
2668.000000	76.939663
2667.000000	76.951713
2666.000000	76.967122
2665.000000	76.986584
2664.000000	77.010139
2663.000000	77.036708
2662.000000	77.064354
2661.000000	77.090599
2660.000000	77.112521
2659.000000	77.127426
2658.000000	77.134183
2657.000000	77.134004
2656.000000	77.129785
2655.000000	77.124931
2654.000000	77.122854
2653.000000	77.126628
2652.000000	77.138220
2651.000000	77.157861
2650.000000	77.184207
2649.000000	77.214741
2648.000000	77.246220
2647.000000	77.275602
2646.000000	77.301407
2645.000000	77.324527
2644.000000	77.347473
2643.000000	77.373443
2642.000000	77.405896
2641.000000	77.447840
2640.000000	77.500488
2639.000000	77.562089
2638.000000	77.628693
2637.000000	77.695937
2636.000000	77.760086
2635.000000	77.818177
2634.000000	77.868193
2633.000000	77.909631
2632.000000	77.943755
2631.000000	77.973157
2630.000000	78.000798
2629.000000	78.029243
2628.000000	78.059969
2627.000000	78.092964
2626.000000	78.127114
2625.000000	78.160767
2624.000000	78.192239
2623.000000	78.220103
2622.000000	78.243588
2621.000000	78.262983
2620.000000	78.279276
2619.000000	78.293350
2618.000000	78.305413
2617.000000	78.314993
2616.000000	78.321409
2615.000000	78.324034
2614.000000	78.322637
2613.000000	78.317772
2612.000000	78.310744
2611.000000	78.303258
2610.000000	78.296733
2609.000000	78.291691
2608.000000	78.287473
2607.000000	78.282370
2606.000000	78.274408
2605.000000	78.262175
2604.000000	78.245371
2603.000000	78.225103
2602.000000	78.204045
2601.000000	78.186182
2600.000000	78.176117
2599.000000	78.178107
2598.000000	78.194904
2597.000000	78.226900
2596.000000	78.271287
2595.000000	78.322454
2594.000000	78.373771
2593.000000	78.419463
2592.000000	78.456131
2591.000000	78.483260
2590.000000	78.503255
2589.000000	78.521007
2588.000000	78.542636
2587.000000	78.573849
2586.000000	78.618274
2585.000000	78.676345
2584.000000	78.745107
2583.000000	78.818890
2582.000000	78.890883
2581.000000	78.954953
2580.000000	79.007298
2579.000000	79.047614
2578.000000	79.079230
2577.000000	79.107985
2576.000000	79.140240
2575.000000	79.180939
2574.000000	79.232434
2573.000000	79.294105
2572.000000	79.362493
2571.000000	79.432047
2570.000000	79.496621
2569.000000	79.551261
2568.000000	79.593617
2567.000000	79.624292
2566.000000	79.646275
2565.000000	79.663927
2564.000000	79.681439
2563.000000	79.701565
2562.000000	79.724747
2561.000000	79.749145
2560.000000	79.771532
2559.000000	79.788288
2558.000000	79.796767
2557.000000	79.796342
2556.000000	79.788827
2555.000000	79.778106
2554.000000	79.769116
2553.000000	79.766650
2552.000000	79.774068
2551.000000	79.792428
2550.000000	79.820385
2549.000000	79.855231
2548.000000	79.894027
2547.000000	79.934507
2546.000000	79.975920
2545.000000	80.019152
2544.000000	80.066577
2543.000000	80.120805
2542.000000	80.183087
2541.000000	80.252368
2540.000000	80.325001
2539.000000	80.395377
2538.000000	80.457246
2537.000000	80.505628
2536.000000	80.538414
2535.000000	80.557272
2534.000000	80.567351
2533.000000	80.576214
2532.000000	80.591918
2531.000000	80.620371
2530.000000	80.663364
2529.000000	80.718226
2528.000000	80.778912
2527.000000	80.837701
2526.000000	80.886929
2525.000000	80.921073
2524.000000	80.938550
2523.000000	80.942325
2522.000000	80.939091
2521.000000	80.937362
2520.000000	80.945236
2519.000000	80.968000
2518.000000	81.006635
2517.000000	81.057726
2516.000000	81.114663
2515.000000	81.169224
2514.000000	81.213663
2513.000000	81.243042
2512.000000	81.256867
2511.000000	81.258807
2510.000000	81.255213
2509.000000	81.253445
2508.000000	81.260056
2507.000000	81.278842
2506.000000	81.309548
2505.000000	81.348459
2504.000000	81.390181
2503.000000	81.429302
2502.000000	81.461411
2501.000000	81.484282
2500.000000	81.498656
2499.000000	81.507712
2498.000000	81.515359
2497.000000	81.525035
2496.000000	81.538968
2495.000000	81.557450
2494.000000	81.578509
2493.000000	81.599032
2492.000000	81.616823
2491.000000	81.631576
2490.000000	81.644356
2489.000000	81.656866
2488.000000	81.671279
2487.000000	81.689605
2486.000000	81.712403
2485.000000	81.737950
2484.000000	81.762855
2483.000000	81.783248
2482.000000	81.796007
2481.000000	81.799796
2480.000000	81.795943
2479.000000	81.788489
2478.000000	81.783220
2477.000000	81.786122
2476.000000	81.801485
2475.000000	81.830076
2474.000000	81.868331
2473.000000	81.909574
2472.000000	81.946123
2471.000000	81.971189
2470.000000	81.980298
2469.000000	81.973014
2468.000000	81.953877
2467.000000	81.931126
2466.000000	81.913785
2465.000000	81.909187
2464.000000	81.921671
2463.000000	81.951482
2462.000000	81.993973
2461.000000	82.040420
2460.000000	82.080858
2459.000000	82.107229
2458.000000	82.115400
2457.000000	82.106173
2456.000000	82.085197
2455.000000	82.061206
2454.000000	82.043356
2453.000000	82.038773
2452.000000	82.051054
2451.000000	82.079255
2450.000000	82.117960
2449.000000	82.158990
2448.000000	82.194206
2447.000000	82.217822
2446.000000	82.227433
2445.000000	82.224422
2444.000000	82.213668
2443.000000	82.201858
2442.000000	82.195026
2441.000000	82.196974
2440.000000	82.208783
2439.000000	82.228813
2438.000000	82.252999
2437.000000	82.276390
2436.000000	82.295287
2435.000000	82.308454
2434.000000	82.316867
2433.000000	82.322974
2432.000000	82.329824
2431.000000	82.339697
2430.000000	82.352854
2429.000000	82.367608
2428.000000	82.381561
2427.000000	82.392438
2426.000000	82.398433
2425.000000	82.398978
2424.000000	82.396003
2423.000000	82.393975
2422.000000	82.398282
2421.000000	82.412915
2420.000000	82.438789
2419.000000	82.472961
2418.000000	82.509179
2417.000000	82.539925
2416.000000	82.559047
2415.000000	82.563404
2414.000000	82.553445
2413.000000	82.533548
2412.000000	82.511689
2411.000000	82.497475
2410.000000	82.498963
2409.000000	82.520050
2408.000000	82.559241
2407.000000	82.609924
2406.000000	82.661872
2405.000000	82.704087
2404.000000	82.728022
2403.000000	82.729968
2402.000000	82.712048
2401.000000	82.682123
2400.000000	82.651880
2399.000000	82.633039
2398.000000	82.633718
2397.000000	82.656790
2396.000000	82.699732
2395.000000	82.754845
2394.000000	82.810739
2393.000000	82.855735
2392.000000	82.881887
2391.000000	82.886910
2390.000000	82.874178
2389.000000	82.851780
2388.000000	82.830877
2387.000000	82.822106
2386.000000	82.831907
2385.000000	82.861324
2384.000000	82.906571
2383.000000	82.960846
2382.000000	83.015735
2381.000000	83.063511
2380.000000	83.099543
2379.000000	83.122752
2378.000000	83.135931
2377.000000	83.145067
2376.000000	83.157282
2375.000000	83.177256
2374.000000	83.205154
2373.000000	83.238471
2372.000000	83.273982
2371.000000	83.308062
2370.000000	83.336533
2369.000000	83.357415
2368.000000	83.372002
2367.000000	83.384007
2366.000000	83.398622
2365.000000	83.420463
2364.000000	83.451649
2363.000000	83.490394
2362.000000	83.531896
2361.000000	83.570983
2360.000000	83.603223
2359.000000	83.625115
2358.000000	83.636507
2357.000000	83.642785
2356.000000	83.653247
2355.000000	83.675383
2354.000000	83.712690
2353.000000	83.760994
2352.000000	83.807524
2351.000000	83.839384
2350.000000	83.856459
2349.000000	83.870227
2348.000000	83.892869
2347.000000	83.926684
2346.000000	83.960554
2345.000000	83.980312
2344.000000	83.984749
2343.000000	83.989418
2342.000000	84.011114
2341.000000	84.054210
2340.000000	84.111546
2339.000000	84.170850
2338.000000	84.220407
2337.000000	84.251571
2336.000000	84.261817
2335.000000	84.256522
2334.000000	84.246921
2333.000000	84.245001
2332.000000	84.257971
2331.000000	84.287981
2330.000000	84.333297
2329.000000	84.388572
2328.000000	84.446850
2327.000000	84.502164
2326.000000	84.549521
2325.000000	84.584591
2324.000000	84.604466
2323.000000	84.612056
2322.000000	84.614852
2321.000000	84.621743
2320.000000	84.638873
2319.000000	84.668807
2318.000000	84.710302
2317.000000	84.758866
2316.000000	84.807847
2315.000000	84.850349
2314.000000	84.880734
2313.000000	84.897183
2312.000000	84.903104
2311.000000	84.906181
2310.000000	84.914344
2309.000000	84.932939
2308.000000	84.963753
2307.000000	85.004919
2306.000000	85.050190
2305.000000	85.090712
2304.000000	85.119158
2303.000000	85.133239
2302.000000	85.135485
2301.000000	85.131740
2300.000000	85.129800
2299.000000	85.137679
2298.000000	85.160089
2297.000000	85.196808
2296.000000	85.243255
2295.000000	85.292279
2294.000000	85.335327
2293.000000	85.364787
2292.000000	85.377212
2291.000000	85.374911
2290.000000	85.364550
2289.000000	85.354992
2288.000000	85.355383
2287.000000	85.372353
2286.000000	85.407010
2285.000000	85.454497
2284.000000	85.506729
2283.000000	85.554902
2282.000000	85.590697
2281.000000	85.608348
2280.000000	85.607865
2279.000000	85.595827
2278.000000	85.582297
2277.000000	85.577145
2276.000000	85.587794
2275.000000	85.617316
2274.000000	85.662727
2273.000000	85.715693
2272.000000	85.765988
2271.000000	85.804741
2270.000000	85.826027
2269.000000	85.828500
2268.000000	85.817038
2267.000000	85.801579
2266.000000	85.792869
2265.000000	85.798647
2264.000000	85.822242
2263.000000	85.861901
2262.000000	85.910426
2261.000000	85.957182
2260.000000	85.992282
2259.000000	86.009782
2258.000000	86.008390
2257.000000	85.991721
2256.000000	85.968393
2255.000000	85.949530
2254.000000	85.944061
2253.000000	85.955586
2252.000000	85.982318
2251.000000	86.017955
2250.000000	86.052499
2249.000000	86.075128
2248.000000	86.077798
2247.000000	86.058736
2246.000000	86.021387
2245.000000	85.973227
2244.000000	85.924568
2243.000000	85.885669
2242.000000	85.862697
2241.000000	85.855813
2240.000000	85.860061
2239.000000	85.867032
2238.000000	85.866652
2237.000000	85.850666
2236.000000	85.816615
2235.000000	85.768633
2234.000000	85.714912
2233.000000	85.665211
2232.000000	85.629393
2231.000000	85.614778
2230.000000	85.622811
2229.000000	85.648363
2228.000000	85.682311
2227.000000	85.714445
2226.000000	85.735239
2225.000000	85.738423
2224.000000	85.723862
2223.000000	85.697493
2222.000000	85.667992
2221.000000	85.643793
2220.000000	85.631844
2219.000000	85.635943
2218.000000	85.654507
2217.000000	85.680762
2216.000000	85.706059
2215.000000	85.723014
2214.000000	85.726720
2213.000000	85.715797
2212.000000	85.693710
2211.000000	85.667974
2210.000000	85.646939
2209.000000	85.637057
2208.000000	85.641678
2207.000000	85.659944
2206.000000	85.686100
2205.000000	85.711522
2204.000000	85.728799
2203.000000	85.734081
2202.000000	85.726815
2201.000000	85.709573
2200.000000	85.688458
2199.000000	85.671379
2198.000000	85.664426
2197.000000	85.669781
2196.000000	85.686195
2195.000000	85.709449
2194.000000	85.732419
2193.000000	85.747167
2192.000000	85.748777
2191.000000	85.737065
2190.000000	85.715266
2189.000000	85.688782
2188.000000	85.664858
2187.000000	85.650674
2186.000000	85.649902
2185.000000	85.661289
2184.000000	85.680231
2183.000000	85.700585
2182.000000	85.715571
2181.000000	85.719801
2180.000000	85.712106
2179.000000	85.695921
2178.000000	85.676909
2177.000000	85.661142
2176.000000	85.654694
2175.000000	85.661941
2174.000000	85.682818
2173.000000	85.712574
2172.000000	85.744655
2171.000000	85.773188
2170.000000	85.793433
2169.000000	85.802722
2168.000000	85.802349
2167.000000	85.797361
2166.000000	85.793775
2165.000000	85.796564
2164.000000	85.809412
2163.000000	85.833778
2162.000000	85.867172
2161.000000	85.903782
2160.000000	85.937649
2159.000000	85.964658
2158.000000	85.982150
2157.000000	85.989281
2156.000000	85.988725
2155.000000	85.986350
2154.000000	85.988120
2153.000000	85.997806
2152.000000	86.016992
2151.000000	86.044911
2150.000000	86.077569
2149.000000	86.108933
2148.000000	86.134210
2147.000000	86.151423
2146.000000	86.160536
2145.000000	86.163187
2144.000000	86.163416
2143.000000	86.166604
2142.000000	86.176402
2141.000000	86.193478
2140.000000	86.216939
2139.000000	86.244911
2138.000000	86.273731
2137.000000	86.299015
2136.000000	86.318779
2135.000000	86.334304
2134.000000	86.347781
2133.000000	86.360799
2132.000000	86.375205
2131.000000	86.393036
2130.000000	86.414500
2129.000000	86.437515
2128.000000	86.459613
2127.000000	86.478973
2126.000000	86.493846
2125.000000	86.503329
2124.000000	86.509341
2123.000000	86.516137
2122.000000	86.527421
2121.000000	86.545018
2120.000000	86.569760
2119.000000	86.600913
2118.000000	86.634280
2117.000000	86.663432
2116.000000	86.684067
2115.000000	86.695831
2114.000000	86.700259
2113.000000	86.699535
2112.000000	86.697785
2111.000000	86.700837
2110.000000	86.713180
2109.000000	86.736225
2108.000000	86.769140
2107.000000	86.808840
2106.000000	86.848745
2105.000000	86.880271
2104.000000	86.897474
2103.000000	86.899204
2102.000000	86.887500
2101.000000	86.866643
2100.000000	86.843896
2099.000000	86.828145
2098.000000	86.825218
2097.000000	86.836081
2096.000000	86.858723
2095.000000	86.889065
2094.000000	86.919836
2093.000000	86.941774
2092.000000	86.948589
2091.000000	86.939969
2090.000000	86.919926
2089.000000	86.894409
2088.000000	86.870728
2087.000000	86.856222
2086.000000	86.855129
2085.000000	86.867470
2084.000000	86.891052
2083.000000	86.922740
2082.000000	86.957423
2081.000000	86.988852
2080.000000	87.012904
2079.000000	87.029408
2078.000000	87.039616
2077.000000	87.044855
2076.000000	87.048116
2075.000000	87.054106
2074.000000	87.066780
2073.000000	87.086460
2072.000000	87.111638
2071.000000	87.140791
2070.000000	87.171515
2069.000000	87.200183
2068.000000	87.224298
2067.000000	87.244634
2066.000000	87.264467
2065.000000	87.287886
2064.000000	87.318025
2063.000000	87.354813
2062.000000	87.393775
2061.000000	87.428726
2060.000000	87.456449
2059.000000	87.477824
2058.000000	87.495042
2057.000000	87.510195
2056.000000	87.526897
2055.000000	87.550069
2054.000000	87.583203
2053.000000	87.626375
2052.000000	87.677628
2051.000000	87.733427
2050.000000	87.787342
2049.000000	87.831383
2048.000000	87.861028
2047.000000	87.876883
2046.000000	87.881792
2045.000000	87.879456
2044.000000	87.876239
2043.000000	87.881196
2042.000000	87.902636
2041.000000	87.944963
2040.000000	88.007304
2039.000000	88.082958
2038.000000	88.160290
2037.000000	88.226757
2036.000000	88.274350
2035.000000	88.301246
2034.000000	88.310006
2033.000000	88.307218
2032.000000	88.303683
2031.000000	88.310881
2030.000000	88.336162
2029.000000	88.381027
2028.000000	88.444174
2027.000000	88.520653
2026.000000	88.601352
2025.000000	88.674509
2024.000000	88.731851
2023.000000	88.770973
2022.000000	88.792452
2021.000000	88.798508
2020.000000	88.794424
2019.000000	88.788574
2018.000000	88.790581
2017.000000	88.810088
2016.000000	88.853830
2015.000000	88.920482
2014.000000	88.999677
2013.000000	89.078073
2012.000000	89.146262
2011.000000	89.199859
2010.000000	89.237793
2009.000000	89.262264
2008.000000	89.280097
2007.000000	89.298827
2006.000000	89.323379
2005.000000	89.355528
2004.000000	89.396267
2003.000000	89.445517
2002.000000	89.498686
2001.000000	89.551539
2000.000000	89.601417
1999.000000	89.648675
1998.000000	89.694584
1997.000000	89.739543
1996.000000	89.782260
1995.000000	89.818438
1994.000000	89.841957
1993.000000	89.851746
1992.000000	89.857156
1991.000000	89.869393
1990.000000	89.889305
1989.000000	89.912084
1988.000000	89.939280
1987.000000	89.976338
1986.000000	90.023124
1985.000000	90.075045
1984.000000	90.129909
1983.000000	90.186851
1982.000000	90.238419
1981.000000	90.275728
1980.000000	90.295222
1979.000000	90.300658
1978.000000	90.295651
1977.000000	90.283331
1976.000000	90.272706
1975.000000	90.276126
1974.000000	90.299495
1973.000000	90.341182
1972.000000	90.398837
1971.000000	90.467405
1970.000000	90.531435
1969.000000	90.570383
1968.000000	90.575951
1967.000000	90.558223
1966.000000	90.532403
1965.000000	90.507017
1964.000000	90.489059
1963.000000	90.487089
1962.000000	90.504501
1961.000000	90.538529
1960.000000	90.587658
1959.000000	90.650552
1958.000000	90.716368
1957.000000	90.767534
1956.000000	90.795086
1955.000000	90.801929
1954.000000	90.793416
1953.000000	90.771793
1952.000000	90.746193
1951.000000	90.730875
1950.000000	90.733223
1949.000000	90.753292
1948.000000	90.790701
1947.000000	90.842814
1946.000000	90.896098
1945.000000	90.930365
1944.000000	90.935865
1943.000000	90.920887
1942.000000	90.903270
1941.000000	90.893013
1940.000000	90.890423
1939.000000	90.896228
1938.000000	90.909084
1937.000000	90.922562
1936.000000	90.934430
1935.000000	90.949742
1934.000000	90.971561
1933.000000	90.994444
1932.000000	91.016570
1931.000000	91.040700
1930.000000	91.065725
1929.000000	91.088892
1928.000000	91.108115
1927.000000	91.127484
1926.000000	91.139683
1925.000000	91.130952
1924.000000	91.098527
1923.000000	91.058139
1922.000000	91.030047
1921.000000	91.018919
1920.000000	91.021926
1919.000000	91.042896
1918.000000	91.081819
1917.000000	91.131434
1916.000000	91.179063
1915.000000	91.218766
1914.000000	91.250786
1913.000000	91.265527
1912.000000	91.250004
1911.000000	91.204563
1910.000000	91.146694
1909.000000	91.101241
1908.000000	91.084134
1907.000000	91.105712
1906.000000	91.161439
1905.000000	91.234492
1904.000000	91.305385
1903.000000	91.358168
1902.000000	91.384569
1901.000000	91.382400
1900.000000	91.352738
1899.000000	91.306142
1898.000000	91.254949
1897.000000	91.208848
1896.000000	91.179628
1895.000000	91.183331
1894.000000	91.228977
1893.000000	91.303470
1892.000000	91.378222
1891.000000	91.426758
1890.000000	91.434843
1889.000000	91.408739
1888.000000	91.364745
1887.000000	91.314332
1886.000000	91.267010
1885.000000	91.231123
1884.000000	91.213555
1883.000000	91.218810
1882.000000	91.247505
1881.000000	91.293015
1880.000000	91.340234
1879.000000	91.377136
1878.000000	91.397807
1877.000000	91.397803
1876.000000	91.380740
1875.000000	91.359750
1874.000000	91.345335
1873.000000	91.339690
1872.000000	91.342340
1871.000000	91.351788
1870.000000	91.353702
1869.000000	91.330443
1868.000000	91.291957
1867.000000	91.261121
1866.000000	91.249169
1865.000000	91.256050
1864.000000	91.274467
1863.000000	91.295094
1862.000000	91.313682
1861.000000	91.331072
1860.000000	91.344891
1859.000000	91.348669
1858.000000	91.337228
1857.000000	91.309803
1856.000000	91.269461
1855.000000	91.225066
1854.000000	91.187891
1853.000000	91.173703
1852.000000	91.184504
1851.000000	91.218652
1850.000000	91.272803
1849.000000	91.329273
1848.000000	91.362601
1847.000000	91.359300
1846.000000	91.321331
1845.000000	91.243971
1844.000000	91.132728
1843.000000	91.025697
1842.000000	90.952008
1841.000000	90.925358
1840.000000	90.954098
1839.000000	91.028817
1838.000000	91.114194
1837.000000	91.181662
1836.000000	91.225591
1835.000000	91.244277
1834.000000	91.229847
1833.000000	91.179304
1832.000000	91.096414
1831.000000	90.988214
1830.000000	90.871060
1829.000000	90.784976
1828.000000	90.753170
1827.000000	90.771032
1826.000000	90.824999
1825.000000	90.888366
1824.000000	90.934454
1823.000000	90.947042
1822.000000	90.919641
1821.000000	90.854284
1820.000000	90.758543
1819.000000	90.651644
1818.000000	90.557905
1817.000000	90.505295
1816.000000	90.511038
1815.000000	90.559175
1814.000000	90.617544
1813.000000	90.655329
1812.000000	90.657765
1811.000000	90.622699
1810.000000	90.554690
1809.000000	90.473426
1808.000000	90.404299
1807.000000	90.360311
1806.000000	90.337981
1805.000000	90.325224
1804.000000	90.313492
1803.000000	90.293318
1802.000000	90.265733
1801.000000	90.235569
1800.000000	90.210014
1799.000000	90.187433
1798.000000	90.161956
1797.000000	90.138273
1796.000000	90.127733
1795.000000	90.134229
1794.000000	90.147886
1793.000000	90.133501
1792.000000	90.077818
1791.000000	90.014424
1790.000000	89.963543
1789.000000	89.917766
1788.000000	89.867795
1787.000000	89.811834
1786.000000	89.761161
1785.000000	89.743272
1784.000000	89.775735
1783.000000	89.829481
1782.000000	89.870841
1781.000000	89.875105
1780.000000	89.841329
1779.000000	89.784030
1778.000000	89.707253
1777.000000	89.613425
1776.000000	89.513388
1775.000000	89.436388
1774.000000	89.408791
1773.000000	89.402962
1772.000000	89.381868
1771.000000	89.352284
1770.000000	89.312013
1769.000000	89.266837
1768.000000	89.242507
1767.000000	89.230455
1766.000000	89.189233
1765.000000	89.098276
1764.000000	88.987000
1763.000000	88.890176
1762.000000	88.825032
1761.000000	88.798212
1760.000000	88.805625
1759.000000	88.825527
1758.000000	88.842430
1757.000000	88.846650
1756.000000	88.826427
1755.000000	88.771038
1754.000000	88.672821
1753.000000	88.549483
1752.000000	88.428055
1751.000000	88.332030
1750.000000	88.261359
1749.000000	88.205937
1748.000000	88.177476
1747.000000	88.184720
1746.000000	88.202242
1745.000000	88.183127
1744.000000	88.124015
1743.000000	88.058115
1742.000000	87.997085
1741.000000	87.925399
1740.000000	87.852833
1739.000000	87.801578
1738.000000	87.754927
1737.000000	87.688380
1736.000000	87.629373
1735.000000	87.567820
1734.000000	87.439068
1733.000000	87.280161
1732.000000	87.119665
1731.000000	86.970246
1730.000000	86.866978
1729.000000	86.819058
1728.000000	86.801975
1727.000000	86.791512
1726.000000	86.766354
1725.000000	86.690127
1724.000000	86.560285
1723.000000	86.414448
1722.000000	86.272720
1721.000000	86.134378
1720.000000	86.011769
1719.000000	85.905577
1718.000000	85.760276
1717.000000	85.587180
1716.000000	85.444182
1715.000000	85.336261
1714.000000	85.250612
1713.000000	85.162225
1712.000000	85.039525
1711.000000	84.875481
1710.000000	84.691779
1709.000000	84.514748
1708.000000	84.350263
1707.000000	84.199252
1706.000000	84.064912
1705.000000	83.963085
1704.000000	83.887510
1703.000000	83.817682
1702.000000	83.778887
1701.000000	83.719017
1700.000000	83.523975
1699.000000	83.225467
1698.000000	82.874195
1697.000000	82.533220
1696.000000	82.287802
1695.000000	82.159551
1694.000000	82.070532
1693.000000	81.963361
1692.000000	81.860438
1691.000000	81.766372
1690.000000	81.633155
1689.000000	81.444349
1688.000000	81.237623
1687.000000	81.069293
1686.000000	80.947759
1685.000000	80.736727
1684.000000	80.379726
1683.000000	80.086952
1682.000000	79.887714
1681.000000	79.716032
1680.000000	79.577592
1679.000000	79.468427
1678.000000	79.357027
1677.000000	79.215317
1676.000000	79.031975
1675.000000	78.826123
1674.000000	78.639978
1673.000000	78.461474
1672.000000	78.285471
1671.000000	78.114262
1670.000000	77.910698
1669.000000	77.672838
1668.000000	77.449535
1667.000000	77.265486
1666.000000	77.108573
1665.000000	76.954791
1664.000000	76.786175
1663.000000	76.592821
1662.000000	76.404271
1661.000000	76.240156
1660.000000	76.088990
1659.000000	75.960032
1658.000000	75.845377
1657.000000	75.712989
1656.000000	75.557097
1655.000000	75.434351
1654.000000	75.237707
1653.000000	74.907852
1652.000000	74.717041
1651.000000	74.598177
1650.000000	74.445935
1649.000000	74.299958
1648.000000	74.140217
1647.000000	73.907907
1646.000000	73.666349
1645.000000	73.457351
1644.000000	73.239613
1643.000000	73.003608
1642.000000	72.788914
1641.000000	72.623011
1640.000000	72.498980
1639.000000	72.412792
1638.000000	72.357183
1637.000000	72.288595
1636.000000	72.132411
1635.000000	71.951790
1634.000000	71.797484
1633.000000	71.619615
1632.000000	71.416829
1631.000000	71.226183
1630.000000	71.061493
1629.000000	70.907747
1628.000000	70.766376
1627.000000	70.664492
1626.000000	70.612279
1625.000000	70.575424
1624.000000	70.507660
1623.000000	70.404146
1622.000000	70.301818
1621.000000	70.201522
1620.000000	70.091584
1619.000000	69.998549
1618.000000	69.936839
1617.000000	69.864251
1616.000000	69.766877
1615.000000	69.675799
1614.000000	69.605271
1613.000000	69.559939
1612.000000	69.540025
1611.000000	69.529789
1610.000000	69.515909
1609.000000	69.490484
1608.000000	69.457494
1607.000000	69.432463
1606.000000	69.429544
1605.000000	69.436981
1604.000000	69.432793
1603.000000	69.420318
1602.000000	69.412867
1601.000000	69.407840
1600.000000	69.399995
1599.000000	69.402122
1598.000000	69.428147
1597.000000	69.469364
1596.000000	69.510901
1595.000000	69.555823
1594.000000	69.611762
1593.000000	69.665003
1592.000000	69.693915
1591.000000	69.697083
1590.000000	69.686523
1589.000000	69.665159
1588.000000	69.634100
1587.000000	69.612675
1586.000000	69.622522
1585.000000	69.666949
1584.000000	69.727258
1583.000000	69.800221
1582.000000	69.894224
1581.000000	69.987209
1580.000000	70.039494
1579.000000	70.051422
1578.000000	70.052463
1577.000000	70.022640
1576.000000	69.938204
1575.000000	69.857152
1574.000000	69.809895
1573.000000	69.789480
1572.000000	69.813617
1571.000000	69.885582
1570.000000	69.953640
1569.000000	69.987795
1568.000000	69.989715
1567.000000	69.973398
1566.000000	69.955218
1565.000000	69.940788
1564.000000	69.920808
1563.000000	69.905654
1562.000000	69.946337
1561.000000	70.100892
1560.000000	70.278121
1559.000000	70.273919
1558.000000	70.354690
1557.000000	70.493727
1556.000000	70.544795
1555.000000	70.584625
1554.000000	70.683218
1553.000000	70.796458
1552.000000	70.869538
1551.000000	70.933252
1550.000000	71.045599
1549.000000	71.215673
1548.000000	71.399365
1547.000000	71.570747
1546.000000	71.747428
1545.000000	71.935092
1544.000000	72.122277
1543.000000	72.324073
1542.000000	72.553605
1541.000000	72.768282
1540.000000	72.951431
1539.000000	73.199828
1538.000000	73.451721
1537.000000	73.604905
1536.000000	73.704608
1535.000000	73.832130
1534.000000	74.001176
1533.000000	74.189404
1532.000000	74.391059
1531.000000	74.605303
1530.000000	74.840887
1529.000000	75.103206
1528.000000	75.383659
1527.000000	75.683752
1526.000000	76.011225
1525.000000	76.335145
1524.000000	76.607021
1523.000000	76.832013
1522.000000	77.044173
1521.000000	77.288800
1520.000000	77.555033
1519.000000	77.789477
1518.000000	78.013581
1517.000000	78.277941
1516.000000	78.598060
1515.000000	78.935679
1514.000000	79.254655
1513.000000	79.552344
1512.000000	79.823439
1511.000000	80.039167
1510.000000	80.201154
1509.000000	80.346908
1508.000000	80.508449
1507.000000	80.708692
1506.000000	81.116548
1505.000000	81.610461
1504.000000	81.956522
1503.000000	82.188682
1502.000000	82.417456
1501.000000	82.667741
1500.000000	82.898927
1499.000000	83.081651
1498.000000	83.228029
1497.000000	83.375798
1496.000000	83.574832
1495.000000	83.816787
1494.000000	84.046985
1493.000000	84.246593
1492.000000	84.434217
1491.000000	84.607433
1490.000000	84.740717
1489.000000	84.848572
1488.000000	84.963016
1487.000000	85.095689
1486.000000	85.243010
1485.000000	85.399606
1484.000000	85.550873
1483.000000	85.700633
1482.000000	85.854037
1481.000000	85.997332
1480.000000	86.114021
1479.000000	86.199223
1478.000000	86.251455
1477.000000	86.256328
1476.000000	86.221116
1475.000000	86.172908
1474.000000	86.122911
1473.000000	86.047724
1472.000000	85.969356
1471.000000	85.908521
1470.000000	85.803548
1469.000000	85.600784
1468.000000	85.299463
1467.000000	84.890870
1466.000000	84.324450
1465.000000	83.583208
1464.000000	82.796503
1463.000000	82.134592
1462.000000	81.628053
1461.000000	81.232682
1460.000000	80.934310
1459.000000	80.742975
1458.000000	80.609286
1457.000000	80.494587
1456.000000	80.460890
1455.000000	80.437378
1454.000000	80.313938
1453.000000	80.075900
1452.000000	79.754328
1451.000000	79.366848
1450.000000	78.865893
1449.000000	78.170397
1448.000000	77.275880
1447.000000	76.260467
1446.000000	75.162986
1445.000000	73.931881
1444.000000	72.522542
1443.000000	70.943857
1442.000000	69.200114
1441.000000	67.314851
1440.000000	65.355915
1439.000000	63.300141
1438.000000	60.877113
1437.000000	57.835068
1436.000000	54.545488
1435.000000	51.664328
1434.000000	49.247033
1433.000000	47.004221
1432.000000	44.853763
1431.000000	42.917685
1430.000000	41.288651
1429.000000	40.019267
1428.000000	39.240528
1427.000000	39.020337
1426.000000	39.266155
1425.000000	39.892979
1424.000000	40.910490
1423.000000	42.238757
1422.000000	43.678792
1421.000000	45.202057
1420.000000	47.008871
1419.000000	49.146579
1418.000000	51.265710
1417.000000	53.098882
1416.000000	54.768524
1415.000000	56.446755
1414.000000	58.126257
1413.000000	59.746858
1412.000000	61.330627
1411.000000	62.907365
1410.000000	64.426327
1409.000000	65.837819
1408.000000	67.175066
1407.000000	68.483054
1406.000000	69.766354
1405.000000	71.023462
1404.000000	72.248931
1403.000000	73.390190
1402.000000	74.394287
1401.000000	75.296984
1400.000000	76.178447
1399.000000	77.049141
1398.000000	77.847719
1397.000000	78.562770
1396.000000	79.268875
1395.000000	80.022245
1394.000000	80.793788
1393.000000	81.518564
1392.000000	82.168237
1391.000000	82.748061
1390.000000	83.268521
1389.000000	83.745293
1388.000000	84.195390
1387.000000	84.619346
1386.000000	84.999712
1385.000000	85.325419
1384.000000	85.601675
1383.000000	85.831077
1382.000000	86.001325
1381.000000	86.102167
1380.000000	86.130740
1379.000000	86.082019
1378.000000	85.951084
1377.000000	85.728570
1376.000000	85.381235
1375.000000	84.863036
1374.000000	84.180891
1373.000000	83.406080
1372.000000	82.589557
1371.000000	81.732396
1370.000000	80.854851
1369.000000	80.042531
1368.000000	79.421343
1367.000000	79.082578
1366.000000	79.041619
1365.000000	79.271832
1364.000000	79.739127
1363.000000	80.404869
1362.000000	81.211446
1361.000000	82.075390
1360.000000	82.910244
1359.000000	83.654647
1358.000000	84.278653
1357.000000	84.770651
1356.000000	85.123298
1355.000000	85.333508
1354.000000	85.410593
1353.000000	85.367172
1352.000000	85.203421
1351.000000	84.899644
1350.000000	84.433707
1349.000000	83.790696
1348.000000	82.951518
1347.000000	81.894579
1346.000000	80.605197
1345.000000	79.087400
1344.000000	77.368736
1343.000000	75.481332
1342.000000	73.440991
1341.000000	71.264943
1340.000000	69.039023
1339.000000	66.951642
1338.000000	65.196127
1337.000000	63.846812
1336.000000	62.858328
1335.000000	62.125588
1334.000000	61.509567
1333.000000	60.854176
1332.000000	60.021251
1331.000000	58.913430
1330.000000	57.465009
1329.000000	55.632041
1328.000000	53.407318
1327.000000	50.842543
1326.000000	48.040798
1325.000000	45.135004
1324.000000	42.294522
1323.000000	39.711803
1322.000000	37.532165
1321.000000	35.800600
1320.000000	34.485261
1319.000000	33.509188
1318.000000	32.758634
1317.000000	32.115360
1316.000000	31.514741
1315.000000	30.963119
1314.000000	30.481473
1313.000000	30.072495
1312.000000	29.741901
1311.000000	29.504479
1310.000000	29.366267
1309.000000	29.329301
1308.000000	29.427530
1307.000000	29.721858
1306.000000	30.246412
1305.000000	30.995927
1304.000000	31.955481
1303.000000	33.106133
1302.000000	34.402105
1301.000000	35.774798
1300.000000	37.174504
1299.000000	38.577773
1298.000000	39.961912
1297.000000	41.303391
1296.000000	42.596441
1295.000000	43.848510
1294.000000	45.056348
1293.000000	46.206397
1292.000000	47.292271
1291.000000	48.314648
1290.000000	49.260870
1289.000000	50.105632
1288.000000	50.829605
1287.000000	51.419501
1286.000000	51.862273
1285.000000	52.154726
1284.000000	52.327749
1283.000000	52.451686
1282.000000	52.613043
1281.000000	52.890231
1280.000000	53.338654
1279.000000	53.973600
1278.000000	54.759685
1277.000000	55.633506
1276.000000	56.539639
1275.000000	57.444430
1274.000000	58.328604
1273.000000	59.182877
1272.000000	60.010605
1271.000000	60.819347
1270.000000	61.608466
1269.000000	62.369528
1268.000000	63.095586
1267.000000	63.780390
1266.000000	64.415340
1265.000000	64.994570
1264.000000	65.521636
1263.000000	66.009215
1262.000000	66.471959
1261.000000	66.925336
1260.000000	67.385670
1259.000000	67.863619
1258.000000	68.358637
1257.000000	68.860994
1256.000000	69.357226
1255.000000	69.831707
1254.000000	70.268604
1253.000000	70.658721
1252.000000	71.002996
1251.000000	71.310305
1250.000000	71.594558
1249.000000	71.872880
1248.000000	72.162902
1247.000000	72.477264
1246.000000	72.820003
1245.000000	73.187100
1244.000000	73.567551
1243.000000	73.944417
1242.000000	74.299131
1241.000000	74.617660
1240.000000	74.893606
1239.000000	75.127924
1238.000000	75.329806
1237.000000	75.515389
1236.000000	75.702107
1235.000000	75.903518
1234.000000	76.127566
1233.000000	76.376945
1232.000000	76.648133
1231.000000	76.931678
1230.000000	77.215994
1229.000000	77.490679
1228.000000	77.746179
1227.000000	77.974603
1226.000000	78.174089
1225.000000	78.350479
1224.000000	78.511718
1223.000000	78.664230
1222.000000	78.815582
1221.000000	78.975743
1220.000000	79.152872
1219.000000	79.350105
1218.000000	79.567780
1217.000000	79.804468
1216.000000	80.053097
1215.000000	80.299650
1214.000000	80.529102
1213.000000	80.730558
1212.000000	80.896540
1211.000000	81.022987
1210.000000	81.115175
1209.000000	81.189039
1208.000000	81.264232
1207.000000	81.358212
1206.000000	81.485863
1205.000000	81.657429
1204.000000	81.872075
1203.000000	82.115634
1202.000000	82.366515
1201.000000	82.601581
1200.000000	82.797760
1199.000000	82.936680
1198.000000	83.013606
1197.000000	83.040226
1196.000000	83.035883
1195.000000	83.021231
1194.000000	83.017283
1193.000000	83.040315
1192.000000	83.092972
1191.000000	83.161901
1190.000000	83.227137
1189.000000	83.270839
1188.000000	83.279419
1187.000000	83.247829
1186.000000	83.186662
1185.000000	83.119906
1184.000000	83.070939
1183.000000	83.052488
1182.000000	83.069138
1181.000000	83.125532
1180.000000	83.228727
1179.000000	83.384548
1178.000000	83.593225
1177.000000	83.842221
1176.000000	84.104796
1175.000000	84.349139
1174.000000	84.552951
1173.000000	84.708154
1172.000000	84.815242
1171.000000	84.880885
1170.000000	84.921081
1169.000000	84.957578
1168.000000	85.006578
1167.000000	85.076153
1166.000000	85.172673
1165.000000	85.302277
1164.000000	85.463964
1163.000000	85.647970
1162.000000	85.841759
1161.000000	86.032513
1160.000000	86.203722
1159.000000	86.338647
1158.000000	86.429800
1157.000000	86.480708
1156.000000	86.499210
1155.000000	86.497244
1154.000000	86.496778
1153.000000	86.524510
1152.000000	86.597796
1151.000000	86.719979
1150.000000	86.887330
1149.000000	87.089744
1148.000000	87.303728
1147.000000	87.494546
1146.000000	87.631650
1145.000000	87.698388
1144.000000	87.691398
1143.000000	87.621944
1142.000000	87.521241
1141.000000	87.433311
1140.000000	87.396194
1139.000000	87.431418
1138.000000	87.545630
1137.000000	87.729802
1136.000000	87.953738
1135.000000	88.171474
1134.000000	88.339134
1133.000000	88.427423
1132.000000	88.423187
1131.000000	88.334178
1130.000000	88.194849
1129.000000	88.056812
1128.000000	87.966256
1127.000000	87.951574
1126.000000	88.024819
1125.000000	88.181053
1124.000000	88.392482
1123.000000	88.614218
1122.000000	88.803372
1121.000000	88.931421
1120.000000	88.983483
1119.000000	88.959694
1118.000000	88.881543
1117.000000	88.786389
1116.000000	88.710884
1115.000000	88.680943
1114.000000	88.712553
1113.000000	88.808687
1112.000000	88.952982
1111.000000	89.115266
1110.000000	89.268747
1109.000000	89.397513
1108.000000	89.491130
1107.000000	89.543655
1106.000000	89.561152
1105.000000	89.559747
1104.000000	89.552985
1103.000000	89.547658
1102.000000	89.549926
1101.000000	89.565395
1100.000000	89.594745
1099.000000	89.632815
1098.000000	89.681135
1097.000000	89.747211
1096.000000	89.832470
1095.000000	89.929550
1094.000000	90.030333
1093.000000	90.126689
1092.000000	90.202230
1091.000000	90.236447
1090.000000	90.220121
1089.000000	90.160171
1088.000000	90.071309
1087.000000	89.973412
1086.000000	89.895940
1085.000000	89.870232
1084.000000	89.911038
1083.000000	90.009361
1082.000000	90.140347
1081.000000	90.268503
1080.000000	90.347987
1079.000000	90.333081
1078.000000	90.200275
1077.000000	89.953087
1076.000000	89.612570
1075.000000	89.212354
1074.000000	88.795696
1073.000000	88.402998
1072.000000	88.049475
1071.000000	87.719614
1070.000000	87.378494
1069.000000	86.978626
1068.000000	86.468942
1067.000000	85.811587
1066.000000	85.005353
1065.000000	84.092693
1064.000000	83.148413
1063.000000	82.265984
1062.000000	81.543724
1061.000000	81.064731
1060.000000	80.872417
1059.000000	80.968120
1058.000000	81.312150
1057.000000	81.835938
1056.000000	82.455370
1055.000000	83.082991
1054.000000	83.652166
1053.000000	84.126184
1052.000000	84.496168
1051.000000	84.775719
1050.000000	84.999364
1049.000000	85.210954
1048.000000	85.444816
1047.000000	85.715339
1046.000000	86.020360
1045.000000	86.347001
1044.000000	86.671563
1043.000000	86.967057
1042.000000	87.217446
1041.000000	87.422006
1040.000000	87.587200
1039.000000	87.721702
1038.000000	87.839919
1037.000000	87.959697
1036.000000	88.091992
1035.000000	88.239836
1034.000000	88.406403
1033.000000	88.596790
1032.000000	88.810674
1031.000000	89.042140
1030.000000	89.286764
1029.000000	89.540761
1028.000000	89.790718
1027.000000	90.013540
1026.000000	90.187877
1025.000000	90.301107
1024.000000	90.346011
1023.000000	90.324839
1022.000000	90.260373
1021.000000	90.191710
1020.000000	90.157846
1019.000000	90.188297
1018.000000	90.303249
1017.000000	90.506224
1016.000000	90.772840
1015.000000	91.054303
1014.000000	91.297295
1013.000000	91.457997
1012.000000	91.506034
1011.000000	91.432976
1010.000000	91.265971
1009.000000	91.062618
1008.000000	90.887911
1007.000000	90.796851
1006.000000	90.828196
1005.000000	90.993690
1004.000000	91.266256
1003.000000	91.586591
1002.000000	91.886503
1001.000000	92.106722
1000.000000	92.203190
999.000000	92.158585
998.000000	91.995975
997.000000	91.773219
996.000000	91.557517
995.000000	91.406893
994.000000	91.363848
993.000000	91.446853
992.000000	91.639412
991.000000	91.894818
990.000000	92.156425
989.000000	92.373508
988.000000	92.506480
987.000000	92.534980
986.000000	92.469530
985.000000	92.346519
984.000000	92.208159
983.000000	92.089268
982.000000	92.018289
981.000000	92.013185
980.000000	92.072824
979.000000	92.179341
978.000000	92.312848
977.000000	92.456923
976.000000	92.594360
975.000000	92.708981
974.000000	92.794317
973.000000	92.851023
972.000000	92.875136
971.000000	92.857974
970.000000	92.797962
969.000000	92.705287
968.000000	92.594354
967.000000	92.484221
966.000000	92.404467
965.000000	92.389156
964.000000	92.457984
963.000000	92.608826
962.000000	92.821790
961.000000	93.060783
960.000000	93.271870
959.000000	93.397100
958.000000	93.398978
957.000000	93.272991
956.000000	93.043572
955.000000	92.760555
954.000000	92.497062
953.000000	92.330152
952.000000	92.311272
951.000000	92.450654
950.000000	92.722350
949.000000	93.068813
948.000000	93.405383
947.000000	93.640438
946.000000	93.710317
945.000000	93.597859
944.000000	93.329757
943.000000	92.970269
942.000000	92.612516
941.000000	92.351894
940.000000	92.252261
939.000000	92.331351
938.000000	92.565210
937.000000	92.894705
936.000000	93.231590
935.000000	93.482052
934.000000	93.580695
933.000000	93.509178
932.000000	93.290168
931.000000	92.979270
930.000000	92.655896
929.000000	92.400415
928.000000	92.264658
927.000000	92.261663
926.000000	92.374428
925.000000	92.562286
924.000000	92.763923
923.000000	92.914748
922.000000	92.974791
921.000000	92.937323
920.000000	92.817187
919.000000	92.641752
918.000000	92.449443
917.000000	92.276337
916.000000	92.139770
915.000000	92.037772
914.000000	91.962814
913.000000	91.906377
912.000000	91.854877
911.000000	91.795807
910.000000	91.731018
909.000000	91.673190
908.000000	91.627173
907.000000	91.583240
906.000000	91.525992
905.000000	91.437362
904.000000	91.292291
903.000000	91.069114
902.000000	90.767724
901.000000	90.413689
900.000000	90.045610
899.000000	89.705980
898.000000	89.437411
897.000000	89.267746
896.000000	89.191240
895.000000	89.167105
894.000000	89.135221
893.000000	89.031105
892.000000	88.794920
891.000000	88.390529
890.000000	87.826472
889.000000	87.152749
888.000000	86.440592
887.000000	85.764355
886.000000	85.187775
885.000000	84.742819
884.000000	84.412647
883.000000	84.138345
882.000000	83.840472
881.000000	83.437868
880.000000	82.864276
879.000000	82.088158
878.000000	81.128880
877.000000	80.046786
876.000000	78.919152
875.000000	77.822609
874.000000	76.817862
873.000000	75.934433
872.000000	75.163005
871.000000	74.464649
870.000000	73.786210
869.000000	73.073185
868.000000	72.282929
867.000000	71.400469
866.000000	70.443931
865.000000	69.452759
864.000000	68.474004
863.000000	67.554558
862.000000	66.731685
861.000000	66.023337
860.000000	65.426516
859.000000	64.926972
858.000000	64.502687
857.000000	64.123689
856.000000	63.760380
855.000000	63.393518
854.000000	63.019519
853.000000	62.645119
852.000000	62.284553
851.000000	61.961504
850.000000	61.701359
849.000000	61.521491
848.000000	61.429844
847.000000	61.430441
846.000000	61.526452
845.000000	61.712801
844.000000	61.979048
843.000000	62.317497
842.000000	62.722388
841.000000	63.183522
840.000000	63.683952
839.000000	64.211684
838.000000	64.763638
837.000000	65.335983
836.000000	65.923217
835.000000	66.528620
834.000000	67.165313
833.000000	67.833117
832.000000	68.501953
831.000000	69.079688
830.000000	69.350196
829.000000	68.923922
828.000000	67.386921
827.000000	64.690916
826.000000	61.438767
825.000000	58.676689
824.000000	57.279973
823.000000	57.484195
822.000000	58.942594
821.000000	61.122850
820.000000	63.579719
819.000000	65.997403
818.000000	68.186191
817.000000	70.083992
816.000000	71.722859
815.000000	73.134046
814.000000	74.313030
813.000000	75.251207
812.000000	75.969943
811.000000	76.507079
810.000000	76.913901
809.000000	77.265629
808.000000	77.645108
807.000000	78.108523
806.000000	78.671178
805.000000	79.321133
804.000000	80.022308
803.000000	80.707976
802.000000	81.302123
801.000000	81.757562
800.000000	82.068155
799.000000	82.255937
798.000000	82.364801
797.000000	82.459939
796.000000	82.606119
795.000000	82.840005
794.000000	83.167994
793.000000	83.579746
792.000000	84.047875
791.000000	84.522825
790.000000	84.950839
789.000000	85.300945
788.000000	85.568517
787.000000	85.762445
786.000000	85.902378
785.000000	86.018078
784.000000	86.135901
783.000000	86.265909
782.000000	86.410494
781.000000	86.576070
780.000000	86.767626
779.000000	86.980548
778.000000	87.210191
777.000000	87.461545
776.000000	87.737671
775.000000	88.023999
774.000000	88.294228
773.000000	88.524670
772.000000	88.694472
771.000000	88.784375
770.000000	88.790109
769.000000	88.734710
768.000000	88.659448
767.000000	88.610068
766.000000	88.633061
765.000000	88.768577
764.000000	89.027761
763.000000	89.378435
762.000000	89.759098
761.000000	90.102679
760.000000	90.345640
759.000000	90.437390
758.000000	90.363939
757.000000	90.162323
756.000000	89.905342
755.000000	89.676501
754.000000	89.555639
753.000000	89.602576
752.000000	89.831624
751.000000	90.200639
750.000000	90.631363
749.000000	91.036569
748.000000	91.332385
747.000000	91.452927
746.000000	91.380040
745.000000	91.157957
744.000000	90.870697
743.000000	90.607900
742.000000	90.447297
741.000000	90.442630
740.000000	90.603703
739.000000	90.889196
738.000000	91.228199
737.000000	91.546739
736.000000	91.777185
735.000000	91.868508
734.000000	91.809643
733.000000	91.638412
732.000000	91.417676
731.000000	91.207700
730.000000	91.058511
729.000000	91.004947
728.000000	91.050990
727.000000	91.167063
726.000000	91.312237
725.000000	91.454942
724.000000	91.571537
723.000000	91.644391
722.000000	91.675046
721.000000	91.687858
720.000000	91.708100
719.000000	91.743679
718.000000	91.793561
717.000000	91.857606
716.000000	91.927655
715.000000	91.984561
714.000000	92.019042
713.000000	92.045654
712.000000	92.088670
711.000000	92.165542
710.000000	92.290717
709.000000	92.475251
708.000000	92.707097
707.000000	92.943487
706.000000	93.134735
705.000000	93.248067
704.000000	93.266118
703.000000	93.184506
702.000000	93.028319
701.000000	92.857805
700.000000	92.740308
699.000000	92.723495
698.000000	92.833002
697.000000	93.071242
696.000000	93.400061
695.000000	93.739585
694.000000	94.005594
693.000000	94.143943
692.000000	94.129493
691.000000	93.964283
690.000000	93.695117
689.000000	93.415097
688.000000	93.221719
687.000000	93.170996
686.000000	93.278926
685.000000	93.535884
684.000000	93.892445
683.000000	94.256017
682.000000	94.533564
681.000000	94.670417
680.000000	94.646489
679.000000	94.470262
678.000000	94.197783
677.000000	93.927380
676.000000	93.743784
675.000000	93.692427
674.000000	93.785565
673.000000	94.006786
672.000000	94.305711
671.000000	94.619704
670.000000	94.904796
669.000000	95.118564
668.000000	95.172987
667.000000	95.010391
666.000000	94.734005
665.000000	94.490694
664.000000	94.350474
663.000000	94.325910
662.000000	94.403309
661.000000	94.554700
660.000000	94.739716
659.000000	94.910322
658.000000	95.030192
657.000000	95.089943
656.000000	95.094777
655.000000	95.064406
654.000000	95.026976
653.000000	95.005512
652.000000	95.012782
651.000000	95.050816
650.000000	95.110504
649.000000	95.172117
648.000000	95.212955
647.000000	95.221644
646.000000	95.207886
645.000000	95.198095
644.000000	95.216163
643.000000	95.269756
642.000000	95.352922
641.000000	95.452257
640.000000	95.547633
639.000000	95.613748
638.000000	95.629195
637.000000	95.585842
636.000000	95.492206
635.000000	95.374035
634.000000	95.272222
633.000000	95.229258
632.000000	95.269610
631.000000	95.391060
630.000000	95.570344
629.000000	95.769423
628.000000	95.939150
627.000000	96.032181
626.000000	96.025379
625.000000	95.930095
624.000000	95.777214
623.000000	95.604581
622.000000	95.457995
621.000000	95.385109
620.000000	95.414561
619.000000	95.542890
618.000000	95.740847
617.000000	95.964259
616.000000	96.157066
615.000000	96.263710
614.000000	96.255266
613.000000	96.141703
612.000000	95.956043
611.000000	95.738597
610.000000	95.536269
609.000000	95.391448
608.000000	95.318119
607.000000	95.293098
606.000000	95.270836
605.000000	95.192391
604.000000	94.971586
603.000000	94.493618
602.000000	93.630520
601.000000	92.270884
600.000000	90.367359
599.000000	88.024736
598.000000	85.555221
597.000000	83.407976
596.000000	82.003587
595.000000	81.573974
594.000000	82.086526
593.000000	83.293066
592.000000	84.872956
591.000000	86.530825
590.000000	88.047178
589.000000	89.319659
588.000000	90.343511
587.000000	91.157307
586.000000	91.806976
585.000000	92.340152
584.000000	92.790874
583.000000	93.174638
582.000000	93.500820
581.000000	93.788152
580.000000	94.057470
579.000000	94.314913
578.000000	94.557822
577.000000	94.788150
576.000000	95.006402
575.000000	95.199018
574.000000	95.345732
573.000000	95.438864
572.000000	95.482445
571.000000	95.482057
570.000000	95.449779
569.000000	95.409691
568.000000	95.391179
567.000000	95.417478
566.000000	95.501127
565.000000	95.640858
564.000000	95.815119
563.000000	95.986536
562.000000	96.119746
561.000000	96.195498
560.000000	96.205300
559.000000	96.146747
558.000000	96.036037
557.000000	95.912413
556.000000	95.817718
555.000000	95.779523
554.000000	95.814219
553.000000	95.926689
552.000000	96.097604
551.000000	96.282410
550.000000	96.435158
549.000000	96.528576
548.000000	96.549581
547.000000	96.496173
546.000000	96.391809
545.000000	96.282334
544.000000	96.204187
543.000000	96.169317
542.000000	96.181414
541.000000	96.245621
540.000000	96.351925
539.000000	96.468367
538.000000	96.563133
537.000000	96.623735
536.000000	96.647779
535.000000	96.634395
534.000000	96.594508
533.000000	96.555949
532.000000	96.536534
531.000000	96.529244
530.000000	96.523533
529.000000	96.516954
528.000000	96.498673
527.000000	96.453211
526.000000	96.392153
525.000000	96.353736
524.000000	96.357716
523.000000	96.381852
522.000000	96.397736
521.000000	96.398044
520.000000	96.373096
519.000000	96.290429
518.000000	96.121164
517.000000	95.876407
516.000000	95.596275
515.000000	95.319917
514.000000	95.085718
513.000000	94.938638
512.000000	94.904889
511.000000	94.970008
510.000000	95.094269
509.000000	95.234328
508.000000	95.325079
507.000000	95.278781
506.000000	95.030634
505.000000	94.570216
504.000000	93.925239
503.000000	93.166638
502.000000	92.449697
501.000000	91.964585
500.000000	91.802220
499.000000	91.923083
498.000000	92.240594
497.000000	92.666410
496.000000	93.095972
495.000000	93.417964
494.000000	93.571931
493.000000	93.579037
492.000000	93.504017
491.000000	93.419140
490.000000	93.393708
489.000000	93.485568
488.000000	93.710490
487.000000	94.040028
486.000000	94.432572
485.000000	94.842340
484.000000	95.199183
483.000000	95.430134
482.000000	95.522844
481.000000	95.529726
480.000000	95.509326
479.000000	95.497535
478.000000	95.526899
477.000000	95.633075
476.000000	95.817125
475.000000	96.027092
474.000000	96.197724
473.000000	96.287256
472.000000	96.280336
471.000000	96.192129
470.000000	96.061214
469.000000	95.944238
468.000000	95.898364
467.000000	95.953611
466.000000	96.095597
465.000000	96.278375
464.000000	96.435751
463.000000	96.494869
462.000000	96.425313
461.000000	96.259286
460.000000	96.046264
459.000000	95.818878
458.000000	95.633769
457.000000	95.601907
456.000000	95.778373
455.000000	96.087523
454.000000	96.420973
453.000000	96.703240
452.000000	96.859938
451.000000	96.807886
450.000000	96.511871
449.000000	96.036052
448.000000	95.507331
447.000000	95.047774
446.000000	94.732060
445.000000	94.583964
444.000000	94.561316
443.000000	94.533529
442.000000	94.331235
441.000000	93.853193
440.000000	93.092039
439.000000	92.085964
438.000000	90.925081
437.000000	89.798439
436.000000	88.964928
435.000000	88.623066
434.000000	88.803918
433.000000	89.417745
432.000000	90.343238
431.000000	91.407620
430.000000	92.408225
429.000000	93.214092
428.000000	93.772325
427.000000	94.056464
426.000000	94.104733
425.000000	94.072673
424.000000	94.141144
423.000000	94.384516
422.000000	94.758398
421.000000	95.220144
420.000000	95.754008
419.000000	96.287205
418.000000	96.716011
417.000000	96.972660
416.000000	97.037358
415.000000	96.918612
414.000000	96.702656
413.000000	96.578365
412.000000	96.676449
411.000000	96.936633
410.000000	97.230450
409.000000	97.500676
408.000000	97.711812
407.000000	97.779312
406.000000	97.669021
405.000000	97.483090
404.000000	97.326931
403.000000	97.210206
402.000000	97.130116
401.000000	97.167189
400.000000	96.013583
