PE IR       SUBTECH     SPECTRUM    ASCII       PEDS        4.00        
   -1
23ms188,154_nitrito.asc
24/08/30
17:39:22.00
24/08/30
17:39:22.00
Administrator
Sample 1076 By Administrator Date Friday, August 30 2024
400.000000
#HDR
-1
-1
#GR
cm-1
%T
1.0
0.0
4000.000000
-1.000000
3601
8
93.076099
18.043715
#DATA
4000.000000	76.484610
3999.000000	76.515053
3998.000000	76.542693
3997.000000	76.570529
3996.000000	76.601225
3995.000000	76.635739
3994.000000	76.673072
3993.000000	76.711519
3992.000000	76.750092
3991.000000	76.788122
3990.000000	76.823899
3989.000000	76.855368
3988.000000	76.882826
3987.000000	76.909735
3986.000000	76.940033
3985.000000	76.975052
3984.000000	77.013407
3983.000000	77.052791
3982.000000	77.091057
3981.000000	77.126334
3980.000000	77.157139
3979.000000	77.183556
3978.000000	77.208187
3977.000000	77.234646
3976.000000	77.265031
3975.000000	77.298655
3974.000000	77.333486
3973.000000	77.367963
3972.000000	77.401261
3971.000000	77.433372
3970.000000	77.464470
3969.000000	77.494166
3968.000000	77.521811
3967.000000	77.547289
3966.000000	77.571431
3965.000000	77.596197
3964.000000	77.624042
3963.000000	77.655960
3962.000000	77.690452
3961.000000	77.723573
3960.000000	77.751581
3959.000000	77.775278
3958.000000	77.799160
3957.000000	77.826492
3956.000000	77.856754
3955.000000	77.887703
3954.000000	77.918031
3953.000000	77.947157
3952.000000	77.974215
3951.000000	77.998719
3950.000000	78.021047
3949.000000	78.042091
3948.000000	78.063085
3947.000000	78.084230
3946.000000	78.105513
3945.000000	78.131009
3944.000000	78.168355
3943.000000	78.218174
3942.000000	78.268858
3941.000000	78.306992
3940.000000	78.331243
3939.000000	78.353802
3938.000000	78.384862
3937.000000	78.420003
3936.000000	78.447002
3935.000000	78.462835
3934.000000	78.480095
3933.000000	78.511890
3932.000000	78.556499
3931.000000	78.600626
3930.000000	78.633881
3929.000000	78.658359
3928.000000	78.681716
3927.000000	78.710072
3926.000000	78.747801
3925.000000	78.793073
3924.000000	78.833484
3923.000000	78.855749
3922.000000	78.860854
3921.000000	78.863829
3920.000000	78.877160
3919.000000	78.900545
3918.000000	78.929713
3917.000000	78.965830
3916.000000	79.009818
3915.000000	79.055023
3914.000000	79.096665
3913.000000	79.139303
3912.000000	79.187439
3911.000000	79.237183
3910.000000	79.278851
3909.000000	79.307653
3908.000000	79.326784
3907.000000	79.339799
3906.000000	79.346776
3905.000000	79.346963
3904.000000	79.339552
3903.000000	79.325647
3902.000000	79.312000
3901.000000	79.313944
3900.000000	79.347003
3899.000000	79.406725
3898.000000	79.469824
3897.000000	79.520661
3896.000000	79.563502
3895.000000	79.611113
3894.000000	79.666877
3893.000000	79.723127
3892.000000	79.770978
3891.000000	79.807098
3890.000000	79.823379
3889.000000	79.809116
3888.000000	79.776541
3887.000000	79.769320
3886.000000	79.819140
3885.000000	79.898050
3884.000000	79.945835
3883.000000	79.945700
3882.000000	79.938954
3881.000000	79.969818
3880.000000	80.033939
3879.000000	80.089374
3878.000000	80.108662
3877.000000	80.106143
3876.000000	80.121531
3875.000000	80.180957
3874.000000	80.261814
3873.000000	80.307298
3872.000000	80.291382
3871.000000	80.257153
3870.000000	80.266012
3869.000000	80.314736
3868.000000	80.345585
3867.000000	80.336760
3866.000000	80.335459
3865.000000	80.386222
3864.000000	80.464790
3863.000000	80.517243
3862.000000	80.532251
3861.000000	80.540327
3860.000000	80.569739
3859.000000	80.629536
3858.000000	80.713832
3857.000000	80.803760
3856.000000	80.869822
3855.000000	80.894269
3854.000000	80.888801
3853.000000	80.872394
3852.000000	80.849057
3851.000000	80.822889
3850.000000	80.813206
3849.000000	80.839920
3848.000000	80.897329
3847.000000	80.961810
3846.000000	81.017674
3845.000000	81.063067
3844.000000	81.101787
3843.000000	81.135863
3842.000000	81.159922
3841.000000	81.171778
3840.000000	81.179894
3839.000000	81.194377
3838.000000	81.217293
3837.000000	81.244734
3836.000000	81.272356
3835.000000	81.298268
3834.000000	81.324287
3833.000000	81.358560
3832.000000	81.406950
3831.000000	81.460435
3830.000000	81.503381
3829.000000	81.531430
3828.000000	81.557620
3827.000000	81.602108
3826.000000	81.663659
3825.000000	81.711688
3824.000000	81.719499
3823.000000	81.704915
3822.000000	81.718763
3821.000000	81.777643
3820.000000	81.832312
3819.000000	81.833889
3818.000000	81.799026
3817.000000	81.794796
3816.000000	81.862425
3815.000000	81.961021
3814.000000	82.024642
3813.000000	82.046710
3812.000000	82.069020
3811.000000	82.116400
3810.000000	82.171114
3809.000000	82.204689
3808.000000	82.222803
3807.000000	82.254818
3806.000000	82.299710
3805.000000	82.323144
3804.000000	82.310143
3803.000000	82.298084
3802.000000	82.333663
3801.000000	82.402322
3800.000000	82.441854
3799.000000	82.431535
3798.000000	82.415757
3797.000000	82.444871
3796.000000	82.519155
3795.000000	82.595762
3794.000000	82.644692
3793.000000	82.675459
3792.000000	82.710889
3791.000000	82.756539
3790.000000	82.801959
3789.000000	82.839123
3788.000000	82.870482
3787.000000	82.901632
3786.000000	82.935485
3785.000000	82.971283
3784.000000	83.002995
3783.000000	83.021078
3782.000000	83.025593
3781.000000	83.033112
3780.000000	83.061051
3779.000000	83.106447
3778.000000	83.149453
3777.000000	83.178406
3776.000000	83.202498
3775.000000	83.237896
3774.000000	83.282996
3773.000000	83.316786
3772.000000	83.328073
3771.000000	83.334987
3770.000000	83.356679
3769.000000	83.383417
3768.000000	83.396197
3767.000000	83.401428
3766.000000	83.427117
3765.000000	83.482472
3764.000000	83.539297
3763.000000	83.565506
3762.000000	83.566483
3761.000000	83.578075
3760.000000	83.615951
3759.000000	83.659024
3758.000000	83.690583
3757.000000	83.718496
3756.000000	83.748435
3755.000000	83.771910
3754.000000	83.785978
3753.000000	83.802372
3752.000000	83.822091
3751.000000	83.827548
3750.000000	83.823342
3749.000000	83.836805
3748.000000	83.862978
3747.000000	83.870833
3746.000000	83.865963
3745.000000	83.899800
3744.000000	83.983497
3743.000000	84.053017
3742.000000	84.065563
3741.000000	84.053126
3740.000000	84.060690
3739.000000	84.087641
3738.000000	84.110484
3737.000000	84.135951
3736.000000	84.190952
3735.000000	84.262071
3734.000000	84.307969
3733.000000	84.329668
3732.000000	84.363859
3731.000000	84.421183
3730.000000	84.475020
3729.000000	84.505117
3728.000000	84.528983
3727.000000	84.576225
3726.000000	84.642436
3725.000000	84.693630
3724.000000	84.718324
3723.000000	84.738621
3722.000000	84.772070
3721.000000	84.815656
3720.000000	84.858788
3719.000000	84.899071
3718.000000	84.943483
3717.000000	84.993180
3716.000000	85.035084
3715.000000	85.056582
3714.000000	85.063252
3713.000000	85.073147
3712.000000	85.092544
3711.000000	85.111595
3710.000000	85.128114
3709.000000	85.153952
3708.000000	85.198669
3707.000000	85.259594
3706.000000	85.323445
3705.000000	85.377347
3704.000000	85.419055
3703.000000	85.456063
3702.000000	85.493621
3701.000000	85.528673
3700.000000	85.555071
3699.000000	85.572423
3698.000000	85.593762
3697.000000	85.634194
3696.000000	85.686437
3695.000000	85.724892
3694.000000	85.739288
3693.000000	85.747847
3692.000000	85.768956
3691.000000	85.795033
3690.000000	85.806118
3689.000000	85.804505
3688.000000	85.813315
3687.000000	85.838433
3686.000000	85.865549
3685.000000	85.890909
3684.000000	85.922578
3683.000000	85.959652
3682.000000	85.991332
3681.000000	86.015945
3680.000000	86.043299
3679.000000	86.063179
3678.000000	86.046474
3677.000000	86.000678
3676.000000	85.980614
3675.000000	86.006646
3674.000000	86.026245
3673.000000	85.993847
3672.000000	85.936838
3671.000000	85.930567
3670.000000	85.999995
3669.000000	86.082753
3668.000000	86.124188
3667.000000	86.134914
3666.000000	86.146882
3665.000000	86.174811
3664.000000	86.210305
3663.000000	86.239708
3662.000000	86.259328
3661.000000	86.270483
3660.000000	86.269784
3659.000000	86.249858
3658.000000	86.214202
3657.000000	86.183059
3656.000000	86.170534
3655.000000	86.161990
3654.000000	86.128229
3653.000000	86.062566
3652.000000	85.993369
3651.000000	85.950075
3650.000000	85.919812
3649.000000	85.869622
3648.000000	85.815141
3647.000000	85.797114
3646.000000	85.815727
3645.000000	85.842395
3644.000000	85.863432
3643.000000	85.886005
3642.000000	85.913010
3641.000000	85.930621
3640.000000	85.926470
3639.000000	85.906860
3638.000000	85.882471
3637.000000	85.849770
3636.000000	85.802173
3635.000000	85.751455
3634.000000	85.714280
3633.000000	85.679905
3632.000000	85.616293
3631.000000	85.516374
3630.000000	85.423131
3629.000000	85.378177
3628.000000	85.362609
3627.000000	85.339307
3626.000000	85.306510
3625.000000	85.285803
3624.000000	85.287010
3623.000000	85.293495
3622.000000	85.280525
3621.000000	85.244197
3620.000000	85.198149
3619.000000	85.148577
3618.000000	85.090562
3617.000000	85.021334
3616.000000	84.946926
3615.000000	84.882958
3614.000000	84.840993
3613.000000	84.811410
3612.000000	84.771578
3611.000000	84.712816
3610.000000	84.654625
3609.000000	84.626957
3608.000000	84.632917
3607.000000	84.645557
3606.000000	84.641739
3605.000000	84.621196
3604.000000	84.596822
3603.000000	84.576319
3602.000000	84.556896
3601.000000	84.534131
3600.000000	84.503757
3599.000000	84.460214
3598.000000	84.404679
3597.000000	84.346012
3596.000000	84.293729
3595.000000	84.251621
3594.000000	84.215043
3593.000000	84.175091
3592.000000	84.124135
3591.000000	84.059088
3590.000000	83.989128
3589.000000	83.935750
3588.000000	83.909980
3587.000000	83.895977
3586.000000	83.872478
3585.000000	83.838664
3584.000000	83.808650
3583.000000	83.792253
3582.000000	83.786239
3581.000000	83.779607
3580.000000	83.763375
3579.000000	83.734380
3578.000000	83.694417
3577.000000	83.647939
3576.000000	83.599447
3575.000000	83.552277
3574.000000	83.507433
3573.000000	83.461995
3572.000000	83.409136
3571.000000	83.339396
3570.000000	83.248946
3569.000000	83.152321
3568.000000	83.074216
3567.000000	83.023081
3566.000000	82.985848
3565.000000	82.951254
3564.000000	82.921131
3563.000000	82.902408
3562.000000	82.894567
3561.000000	82.887288
3560.000000	82.869043
3559.000000	82.834903
3558.000000	82.787446
3557.000000	82.732880
3556.000000	82.677103
3555.000000	82.623683
3554.000000	82.574299
3553.000000	82.528225
3552.000000	82.480813
3551.000000	82.424437
3550.000000	82.354147
3549.000000	82.275927
3548.000000	82.204320
3547.000000	82.149020
3546.000000	82.106034
3545.000000	82.065654
3544.000000	82.024305
3543.000000	81.984654
3542.000000	81.948024
3541.000000	81.911931
3540.000000	81.873231
3539.000000	81.829971
3538.000000	81.782086
3537.000000	81.731101
3536.000000	81.679169
3535.000000	81.627594
3534.000000	81.576649
3533.000000	81.527678
3532.000000	81.481935
3531.000000	81.437217
3530.000000	81.387621
3529.000000	81.329936
3528.000000	81.267827
3527.000000	81.207467
3526.000000	81.152615
3525.000000	81.105790
3524.000000	81.068891
3523.000000	81.039189
3522.000000	81.008957
3521.000000	80.972647
3520.000000	80.932169
3519.000000	80.891894
3518.000000	80.851892
3517.000000	80.808995
3516.000000	80.762677
3515.000000	80.715938
3514.000000	80.669908
3513.000000	80.622190
3512.000000	80.571452
3511.000000	80.519351
3510.000000	80.466486
3509.000000	80.410474
3508.000000	80.349046
3507.000000	80.283636
3506.000000	80.219514
3505.000000	80.162768
3504.000000	80.115157
3503.000000	80.071588
3502.000000	80.024531
3501.000000	79.970998
3500.000000	79.913623
3499.000000	79.854971
3498.000000	79.794451
3497.000000	79.731003
3496.000000	79.666240
3495.000000	79.603274
3494.000000	79.543748
3493.000000	79.487196
3492.000000	79.431955
3491.000000	79.374781
3490.000000	79.311152
3489.000000	79.238892
3488.000000	79.160297
3487.000000	79.079133
3486.000000	78.998092
3485.000000	78.920463
3484.000000	78.851087
3483.000000	78.791911
3482.000000	78.737220
3481.000000	78.676970
3480.000000	78.604592
3479.000000	78.520483
3478.000000	78.429838
3477.000000	78.339759
3476.000000	78.256543
3475.000000	78.182279
3474.000000	78.114604
3473.000000	78.049898
3472.000000	77.985153
3471.000000	77.916270
3470.000000	77.837353
3469.000000	77.745184
3468.000000	77.643403
3467.000000	77.539648
3466.000000	77.439997
3465.000000	77.347499
3464.000000	77.263337
3463.000000	77.185513
3462.000000	77.107378
3461.000000	77.021401
3460.000000	76.924896
3459.000000	76.821063
3458.000000	76.715442
3457.000000	76.612671
3456.000000	76.515763
3455.000000	76.424819
3454.000000	76.336526
3453.000000	76.246534
3452.000000	76.151436
3451.000000	76.048652
3450.000000	75.936749
3449.000000	75.817897
3448.000000	75.698004
3447.000000	75.581619
3446.000000	75.468556
3445.000000	75.357478
3444.000000	75.249466
3443.000000	75.145058
3442.000000	75.040069
3441.000000	74.928372
3440.000000	74.808438
3439.000000	74.683960
3438.000000	74.558249
3437.000000	74.430942
3436.000000	74.300749
3435.000000	74.167780
3434.000000	74.032495
3433.000000	73.894703
3432.000000	73.753127
3431.000000	73.605510
3430.000000	73.449674
3429.000000	73.286157
3428.000000	73.119248
3427.000000	72.953476
3426.000000	72.790003
3425.000000	72.627121
3424.000000	72.462841
3423.000000	72.295479
3422.000000	72.122824
3421.000000	71.943050
3420.000000	71.756344
3419.000000	71.564435
3418.000000	71.369342
3417.000000	71.173293
3416.000000	70.978120
3415.000000	70.782976
3414.000000	70.583766
3413.000000	70.376709
3412.000000	70.161107
3411.000000	69.937667
3410.000000	69.705933
3409.000000	69.465393
3408.000000	69.218025
3407.000000	68.967538
3406.000000	68.717041
3405.000000	68.468106
3404.000000	68.220110
3403.000000	67.968837
3402.000000	67.707072
3401.000000	67.429154
3400.000000	67.135029
3399.000000	66.829246
3398.000000	66.517245
3397.000000	66.203209
3396.000000	65.889415
3395.000000	65.575414
3394.000000	65.257534
3393.000000	64.930522
3392.000000	64.589941
3391.000000	64.233627
3390.000000	63.863253
3389.000000	63.484138
3388.000000	63.101837
3387.000000	62.717988
3386.000000	62.330516
3385.000000	61.937678
3384.000000	61.538764
3383.000000	61.131504
3382.000000	60.712088
3381.000000	60.278885
3380.000000	59.834030
3379.000000	59.380420
3378.000000	58.919729
3377.000000	58.453806
3376.000000	57.984549
3375.000000	57.511421
3374.000000	57.031155
3373.000000	56.540857
3372.000000	56.039568
3371.000000	55.526190
3370.000000	54.999892
3369.000000	54.462913
3368.000000	53.920182
3367.000000	53.375062
3366.000000	52.827303
3365.000000	52.275689
3364.000000	51.719088
3363.000000	51.154732
3362.000000	50.579494
3361.000000	49.993895
3360.000000	49.402348
3359.000000	48.808512
3358.000000	48.212986
3357.000000	47.615970
3356.000000	47.017909
3355.000000	46.417146
3354.000000	45.810243
3353.000000	45.195709
3352.000000	44.575201
3351.000000	43.950949
3350.000000	43.325138
3349.000000	42.701415
3348.000000	42.082985
3347.000000	41.468658
3346.000000	40.854114
3345.000000	40.237301
3344.000000	39.619374
3343.000000	39.000976
3342.000000	38.381686
3341.000000	37.763152
3340.000000	37.148815
3339.000000	36.540373
3338.000000	35.937958
3337.000000	35.343083
3336.000000	34.757397
3335.000000	34.178892
3334.000000	33.603705
3333.000000	33.031770
3332.000000	32.466364
3331.000000	31.908953
3330.000000	31.358582
3329.000000	30.815687
3328.000000	30.282555
3327.000000	29.759817
3326.000000	29.247127
3325.000000	28.746404
3324.000000	28.259623
3323.000000	27.784753
3322.000000	27.317900
3321.000000	26.859093
3320.000000	26.411851
3319.000000	25.977306
3318.000000	25.554446
3317.000000	25.144174
3316.000000	24.748436
3315.000000	24.366030
3314.000000	23.993457
3313.000000	23.629939
3312.000000	23.276829
3311.000000	22.933301
3310.000000	22.598105
3309.000000	22.273858
3308.000000	21.965710
3307.000000	21.676060
3306.000000	21.404673
3305.000000	21.152677
3304.000000	20.919996
3303.000000	20.701353
3302.000000	20.489722
3301.000000	20.283065
3300.000000	20.083888
3299.000000	19.893292
3298.000000	19.711137
3297.000000	19.540103
3296.000000	19.383270
3295.000000	19.239174
3294.000000	19.103832
3293.000000	18.977244
3292.000000	18.862962
3291.000000	18.761555
3290.000000	18.670448
3289.000000	18.588233
3288.000000	18.514799
3287.000000	18.448217
3286.000000	18.385937
3285.000000	18.328836
3284.000000	18.278870
3283.000000	18.234564
3282.000000	18.193267
3281.000000	18.156018
3280.000000	18.125843
3279.000000	18.102286
3278.000000	18.082672
3277.000000	18.067271
3276.000000	18.057902
3275.000000	18.052901
3274.000000	18.048398
3273.000000	18.044121
3272.000000	18.043715
3271.000000	18.049962
3270.000000	18.063739
3269.000000	18.085815
3268.000000	18.115130
3267.000000	18.146898
3266.000000	18.176505
3265.000000	18.204309
3264.000000	18.232972
3263.000000	18.262114
3262.000000	18.290132
3261.000000	18.318677
3260.000000	18.350600
3259.000000	18.385093
3258.000000	18.419485
3257.000000	18.454481
3256.000000	18.492770
3255.000000	18.534007
3254.000000	18.575564
3253.000000	18.616847
3252.000000	18.658558
3251.000000	18.699274
3250.000000	18.737298
3249.000000	18.774693
3248.000000	18.815246
3247.000000	18.859519
3246.000000	18.905508
3245.000000	18.952410
3244.000000	18.999977
3243.000000	19.046050
3242.000000	19.089008
3241.000000	19.130998
3240.000000	19.174947
3239.000000	19.219831
3238.000000	19.262542
3237.000000	19.302445
3236.000000	19.340677
3235.000000	19.377262
3234.000000	19.412829
3233.000000	19.450823
3232.000000	19.493600
3231.000000	19.538276
3230.000000	19.580413
3229.000000	19.619690
3228.000000	19.658045
3227.000000	19.694667
3226.000000	19.727327
3225.000000	19.756775
3224.000000	19.785263
3223.000000	19.812506
3222.000000	19.837066
3221.000000	19.859999
3220.000000	19.883136
3219.000000	19.905372
3218.000000	19.924545
3217.000000	19.941077
3216.000000	19.956157
3215.000000	19.968498
3214.000000	19.976574
3213.000000	19.982130
3212.000000	19.987488
3211.000000	19.991427
3210.000000	19.991526
3209.000000	19.988266
3208.000000	19.983234
3207.000000	19.975494
3206.000000	19.963567
3205.000000	19.949000
3204.000000	19.933865
3203.000000	19.917022
3202.000000	19.896576
3201.000000	19.873662
3200.000000	19.850122
3199.000000	19.824507
3198.000000	19.794466
3197.000000	19.760886
3196.000000	19.725876
3195.000000	19.689018
3194.000000	19.649272
3193.000000	19.608321
3192.000000	19.568160
3191.000000	19.527537
3190.000000	19.484635
3189.000000	19.440807
3188.000000	19.397915
3187.000000	19.354461
3186.000000	19.308142
3185.000000	19.259978
3184.000000	19.212195
3183.000000	19.164507
3182.000000	19.116254
3181.000000	19.069561
3180.000000	19.026345
3179.000000	18.984573
3178.000000	18.941321
3177.000000	18.897234
3176.000000	18.854337
3175.000000	18.812069
3174.000000	18.769416
3173.000000	18.728366
3172.000000	18.691252
3171.000000	18.657151
3170.000000	18.624437
3169.000000	18.594282
3168.000000	18.567941
3167.000000	18.543248
3166.000000	18.517854
3165.000000	18.493276
3164.000000	18.472093
3163.000000	18.453909
3162.000000	18.437680
3161.000000	18.425282
3160.000000	18.418574
3159.000000	18.415465
3158.000000	18.412774
3157.000000	18.410227
3156.000000	18.408437
3155.000000	18.406152
3154.000000	18.403720
3153.000000	18.406487
3152.000000	18.419924
3151.000000	18.443617
3150.000000	18.473282
3149.000000	18.506100
3148.000000	18.540602
3147.000000	18.574365
3146.000000	18.606421
3145.000000	18.639649
3144.000000	18.676898
3143.000000	18.717200
3142.000000	18.759035
3141.000000	18.804743
3140.000000	18.857830
3139.000000	18.918161
3138.000000	18.983410
3137.000000	19.052447
3136.000000	19.124114
3135.000000	19.195682
3134.000000	19.266085
3133.000000	19.338544
3132.000000	19.416395
3131.000000	19.499104
3130.000000	19.585221
3129.000000	19.675731
3128.000000	19.771111
3127.000000	19.868216
3126.000000	19.963966
3125.000000	20.059376
3124.000000	20.156363
3123.000000	20.253960
3122.000000	20.351468
3121.000000	20.452172
3120.000000	20.559718
3119.000000	20.673132
3118.000000	20.789385
3117.000000	20.908273
3116.000000	21.031148
3115.000000	21.157382
3114.000000	21.285521
3113.000000	21.415777
3112.000000	21.548126
3111.000000	21.680590
3110.000000	21.812608
3109.000000	21.947255
3108.000000	22.086918
3107.000000	22.229388
3106.000000	22.371302
3105.000000	22.512764
3104.000000	22.655301
3103.000000	22.798336
3102.000000	22.941292
3101.000000	23.086445
3100.000000	23.236215
3099.000000	23.389600
3098.000000	23.544397
3097.000000	23.700410
3096.000000	23.857538
3095.000000	24.013545
3094.000000	24.166962
3093.000000	24.319915
3092.000000	24.475300
3091.000000	24.633479
3090.000000	24.794147
3089.000000	24.958278
3088.000000	25.125246
3087.000000	25.291116
3086.000000	25.453115
3085.000000	25.613426
3084.000000	25.775589
3083.000000	25.939781
3082.000000	26.104703
3081.000000	26.271190
3080.000000	26.440731
3079.000000	26.612692
3078.000000	26.786024
3077.000000	26.961342
3076.000000	27.138452
3075.000000	27.314437
3074.000000	27.487123
3073.000000	27.658222
3072.000000	27.830264
3071.000000	28.002829
3070.000000	28.174597
3069.000000	28.346542
3068.000000	28.520086
3067.000000	28.694237
3066.000000	28.867401
3065.000000	29.040126
3064.000000	29.213633
3063.000000	29.387775
3062.000000	29.562638
3061.000000	29.739573
3060.000000	29.918296
3059.000000	30.095442
3058.000000	30.268466
3057.000000	30.438628
3056.000000	30.607961
3055.000000	30.776130
3054.000000	30.942841
3053.000000	31.110710
3052.000000	31.282611
3051.000000	31.458085
3050.000000	31.634634
3049.000000	31.810301
3048.000000	31.982969
3047.000000	32.149933
3046.000000	32.311095
3045.000000	32.470550
3044.000000	32.632619
3043.000000	32.798313
3042.000000	32.967272
3041.000000	33.139961
3040.000000	33.315210
3039.000000	33.488270
3038.000000	33.654732
3037.000000	33.814727
3036.000000	33.971361
3035.000000	34.127287
3034.000000	34.284875
3033.000000	34.446847
3032.000000	34.613510
3031.000000	34.781310
3030.000000	34.946541
3029.000000	35.108593
3028.000000	35.267859
3027.000000	35.423437
3026.000000	35.575718
3025.000000	35.728527
3024.000000	35.885404
3023.000000	36.045511
3022.000000	36.205553
3021.000000	36.363701
3020.000000	36.519213
3019.000000	36.670509
3018.000000	36.816862
3017.000000	36.960390
3016.000000	37.103962
3015.000000	37.248632
3014.000000	37.395076
3013.000000	37.545378
3012.000000	37.700615
3011.000000	37.858389
3010.000000	38.015041
3009.000000	38.168945
3008.000000	38.319901
3007.000000	38.467523
3006.000000	38.612526
3005.000000	38.757676
3004.000000	38.905066
3003.000000	39.053613
3002.000000	39.201001
3001.000000	39.346301
3000.000000	39.489207
2999.000000	39.629014
2998.000000	39.766477
2997.000000	39.904534
2996.000000	40.044963
2995.000000	40.186251
2994.000000	40.326757
2993.000000	40.467791
2992.000000	40.611116
2991.000000	40.755438
2990.000000	40.898032
2989.000000	41.038231
2988.000000	41.176935
2987.000000	41.314254
2986.000000	41.449970
2985.000000	41.584929
2984.000000	41.719778
2983.000000	41.853698
2982.000000	41.986404
2981.000000	42.119817
2980.000000	42.255615
2979.000000	42.392510
2978.000000	42.528069
2977.000000	42.661915
2976.000000	42.795271
2975.000000	42.928871
2974.000000	43.063314
2973.000000	43.199991
2972.000000	43.339638
2971.000000	43.481210
2970.000000	43.623936
2969.000000	43.768886
2968.000000	43.916666
2967.000000	44.065284
2966.000000	44.212434
2965.000000	44.358411
2964.000000	44.504819
2963.000000	44.651895
2962.000000	44.799038
2961.000000	44.946109
2960.000000	45.091875
2959.000000	45.232901
2958.000000	45.366117
2957.000000	45.491291
2956.000000	45.609151
2955.000000	45.719227
2954.000000	45.821995
2953.000000	45.921167
2952.000000	46.021127
2951.000000	46.122941
2950.000000	46.225222
2949.000000	46.327614
2948.000000	46.431291
2947.000000	46.537342
2946.000000	46.646844
2945.000000	46.761702
2944.000000	46.883202
2943.000000	47.010434
2942.000000	47.141533
2941.000000	47.275486
2940.000000	47.411441
2939.000000	47.547836
2938.000000	47.684198
2937.000000	47.822514
2936.000000	47.965166
2935.000000	48.112774
2934.000000	48.265487
2933.000000	48.424626
2932.000000	48.590945
2931.000000	48.762831
2930.000000	48.938675
2929.000000	49.119829
2928.000000	49.309382
2927.000000	49.509313
2926.000000	49.720799
2925.000000	49.945936
2924.000000	50.186372
2923.000000	50.441046
2922.000000	50.706463
2921.000000	50.977593
2920.000000	51.245114
2919.000000	51.491573
2918.000000	51.692845
2917.000000	51.824474
2916.000000	51.870323
2915.000000	51.830188
2914.000000	51.723418
2913.000000	51.583787
2912.000000	51.446054
2911.000000	51.333267
2910.000000	51.254018
2909.000000	51.207864
2908.000000	51.190478
2907.000000	51.196370
2906.000000	51.220453
2905.000000	51.258769
2904.000000	51.307751
2903.000000	51.363045
2902.000000	51.421684
2901.000000	51.482291
2900.000000	51.544083
2899.000000	51.605873
2898.000000	51.666614
2897.000000	51.726448
2896.000000	51.785552
2895.000000	51.843548
2894.000000	51.900843
2893.000000	51.959105
2892.000000	52.018768
2891.000000	52.077423
2890.000000	52.132200
2889.000000	52.182640
2888.000000	52.229936
2887.000000	52.274846
2886.000000	52.317990
2885.000000	52.360847
2884.000000	52.404380
2883.000000	52.447436
2882.000000	52.488014
2881.000000	52.525309
2880.000000	52.559337
2879.000000	52.590130
2878.000000	52.619199
2877.000000	52.650552
2876.000000	52.687887
2875.000000	52.731015
2874.000000	52.776790
2873.000000	52.822956
2872.000000	52.869722
2871.000000	52.918577
2870.000000	52.971578
2869.000000	53.031694
2868.000000	53.102067
2867.000000	53.184798
2866.000000	53.281222
2865.000000	53.392284
2864.000000	53.517351
2863.000000	53.653284
2862.000000	53.796081
2861.000000	53.943316
2860.000000	54.094584
2859.000000	54.251290
2858.000000	54.417621
2857.000000	54.600898
2856.000000	54.809364
2855.000000	55.049775
2854.000000	55.326093
2853.000000	55.635845
2852.000000	55.961991
2851.000000	56.266671
2850.000000	56.499205
2849.000000	56.618284
2848.000000	56.614183
2847.000000	56.514630
2846.000000	56.369533
2845.000000	56.226829
2844.000000	56.115977
2843.000000	56.045635
2842.000000	56.011691
2841.000000	56.006297
2840.000000	56.021435
2839.000000	56.050222
2838.000000	56.088778
2837.000000	56.136196
2836.000000	56.191655
2835.000000	56.252293
2834.000000	56.314567
2833.000000	56.376723
2832.000000	56.438870
2831.000000	56.501488
2830.000000	56.565275
2829.000000	56.631384
2828.000000	56.700175
2827.000000	56.770212
2826.000000	56.839491
2825.000000	56.907194
2824.000000	56.973448
2823.000000	57.038373
2822.000000	57.102590
2821.000000	57.167793
2820.000000	57.235373
2819.000000	57.304801
2818.000000	57.374307
2817.000000	57.442578
2816.000000	57.508958
2815.000000	57.573016
2814.000000	57.635289
2813.000000	57.697835
2812.000000	57.762739
2811.000000	57.830317
2810.000000	57.899511
2809.000000	57.969231
2808.000000	58.038252
2807.000000	58.104834
2806.000000	58.168012
2805.000000	58.228998
2804.000000	58.290180
2803.000000	58.353151
2802.000000	58.418453
2801.000000	58.486171
2800.000000	58.555274
2799.000000	58.623028
2798.000000	58.686650
2797.000000	58.745616
2796.000000	58.801629
2795.000000	58.857008
2794.000000	58.914035
2793.000000	58.974781
2792.000000	59.039673
2791.000000	59.106297
2790.000000	59.170895
2789.000000	59.231044
2788.000000	59.286357
2787.000000	59.337610
2786.000000	59.386750
2785.000000	59.437154
2784.000000	59.491947
2783.000000	59.551534
2782.000000	59.613464
2781.000000	59.674421
2780.000000	59.731550
2779.000000	59.782795
2778.000000	59.827935
2777.000000	59.869603
2776.000000	59.912153
2775.000000	59.959083
2774.000000	60.011693
2773.000000	60.069179
2772.000000	60.128643
2771.000000	60.185573
2770.000000	60.236226
2769.000000	60.280202
2768.000000	60.320337
2767.000000	60.360438
2766.000000	60.403704
2765.000000	60.452273
2764.000000	60.506292
2763.000000	60.563047
2762.000000	60.618187
2761.000000	60.668307
2760.000000	60.712252
2759.000000	60.750813
2758.000000	60.786556
2757.000000	60.823535
2756.000000	60.865426
2755.000000	60.913147
2754.000000	60.964529
2753.000000	61.016025
2752.000000	61.064200
2751.000000	61.106579
2750.000000	61.142914
2749.000000	61.175958
2748.000000	61.209915
2747.000000	61.247654
2746.000000	61.289590
2745.000000	61.334491
2744.000000	61.380220
2743.000000	61.424147
2742.000000	61.464292
2741.000000	61.500505
2740.000000	61.534107
2739.000000	61.566711
2738.000000	61.599981
2737.000000	61.635664
2736.000000	61.674386
2735.000000	61.714487
2734.000000	61.753186
2733.000000	61.788969
2732.000000	61.822156
2731.000000	61.853691
2730.000000	61.884564
2729.000000	61.916031
2728.000000	61.948965
2727.000000	61.982857
2726.000000	62.016374
2725.000000	62.048777
2724.000000	62.079958
2723.000000	62.109721
2722.000000	62.138443
2721.000000	62.168054
2720.000000	62.200656
2719.000000	62.235949
2718.000000	62.271293
2717.000000	62.304423
2716.000000	62.335040
2715.000000	62.363897
2714.000000	62.391859
2713.000000	62.420147
2712.000000	62.450104
2711.000000	62.481910
2710.000000	62.514217
2709.000000	62.545193
2708.000000	62.573324
2707.000000	62.597515
2706.000000	62.617651
2705.000000	62.635397
2704.000000	62.653402
2703.000000	62.673319
2702.000000	62.695075
2701.000000	62.717598
2700.000000	62.739149
2699.000000	62.757056
2698.000000	62.768701
2697.000000	62.773656
2696.000000	62.774218
2695.000000	62.773779
2694.000000	62.775202
2693.000000	62.780182
2692.000000	62.788627
2691.000000	62.798056
2690.000000	62.804686
2689.000000	62.805785
2688.000000	62.800879
2687.000000	62.791389
2686.000000	62.780132
2685.000000	62.770819
2684.000000	62.766323
2683.000000	62.766602
2682.000000	62.768817
2681.000000	62.769455
2680.000000	62.765908
2679.000000	62.756806
2678.000000	62.742610
2677.000000	62.726308
2676.000000	62.712296
2675.000000	62.703813
2674.000000	62.701642
2673.000000	62.704796
2672.000000	62.711258
2671.000000	62.718358
2670.000000	62.724078
2669.000000	62.728812
2668.000000	62.735570
2667.000000	62.748061
2666.000000	62.769142
2665.000000	62.800432
2664.000000	62.841625
2663.000000	62.890032
2662.000000	62.941505
2661.000000	62.992631
2660.000000	63.042060
2659.000000	63.090162
2658.000000	63.138747
2657.000000	63.190675
2656.000000	63.248278
2655.000000	63.311473
2654.000000	63.377608
2653.000000	63.443265
2652.000000	63.505707
2651.000000	63.563201
2650.000000	63.615458
2649.000000	63.664233
2648.000000	63.712529
2647.000000	63.762633
2646.000000	63.815075
2645.000000	63.868979
2644.000000	63.922508
2643.000000	63.972958
2642.000000	64.017845
2641.000000	64.056612
2640.000000	64.090753
2639.000000	64.122396
2638.000000	64.153228
2637.000000	64.184533
2636.000000	64.216987
2635.000000	64.249853
2634.000000	64.281323
2633.000000	64.309884
2632.000000	64.334951
2631.000000	64.356517
2630.000000	64.375147
2629.000000	64.392453
2628.000000	64.410328
2627.000000	64.429258
2626.000000	64.448126
2625.000000	64.465679
2624.000000	64.481490
2623.000000	64.495467
2622.000000	64.507470
2621.000000	64.517823
2620.000000	64.527270
2619.000000	64.536205
2618.000000	64.544582
2617.000000	64.552648
2616.000000	64.561000
2615.000000	64.569752
2614.000000	64.578427
2613.000000	64.586647
2612.000000	64.594033
2611.000000	64.599530
2610.000000	64.601719
2609.000000	64.600058
2608.000000	64.595062
2607.000000	64.587230
2606.000000	64.576898
2605.000000	64.564795
2604.000000	64.551568
2603.000000	64.536529
2602.000000	64.517708
2601.000000	64.493687
2600.000000	64.464441
2599.000000	64.430639
2598.000000	64.393535
2597.000000	64.355703
2596.000000	64.320777
2595.000000	64.291782
2594.000000	64.270194
2593.000000	64.256402
2592.000000	64.250292
2591.000000	64.251075
2590.000000	64.257918
2589.000000	64.271251
2588.000000	64.292537
2587.000000	64.323424
2586.000000	64.365171
2585.000000	64.418645
2584.000000	64.483628
2583.000000	64.557335
2582.000000	64.635249
2581.000000	64.713433
2580.000000	64.789926
2579.000000	64.864671
2578.000000	64.939014
2577.000000	65.015583
2576.000000	65.096913
2575.000000	65.183454
2574.000000	65.273445
2573.000000	65.364489
2572.000000	65.454476
2571.000000	65.541247
2570.000000	65.623052
2569.000000	65.700178
2568.000000	65.775284
2567.000000	65.851542
2566.000000	65.930868
2565.000000	66.013695
2564.000000	66.099019
2563.000000	66.184154
2562.000000	66.265544
2561.000000	66.340834
2560.000000	66.410075
2559.000000	66.474863
2558.000000	66.537353
2557.000000	66.600096
2556.000000	66.665375
2555.000000	66.733723
2554.000000	66.803318
2553.000000	66.871300
2552.000000	66.935100
2551.000000	66.992755
2550.000000	67.043628
2549.000000	67.089423
2548.000000	67.133699
2547.000000	67.179448
2546.000000	67.227405
2545.000000	67.276728
2544.000000	67.325733
2543.000000	67.371736
2542.000000	67.411599
2541.000000	67.443553
2540.000000	67.468358
2539.000000	67.487962
2538.000000	67.504044
2537.000000	67.517856
2536.000000	67.529735
2535.000000	67.538188
2534.000000	67.539811
2533.000000	67.531371
2532.000000	67.511635
2531.000000	67.480888
2530.000000	67.440639
2529.000000	67.394054
2528.000000	67.345667
2527.000000	67.299531
2526.000000	67.257825
2525.000000	67.221604
2524.000000	67.191669
2523.000000	67.168296
2522.000000	67.151290
2521.000000	67.141521
2520.000000	67.141203
2519.000000	67.152547
2518.000000	67.176708
2517.000000	67.213683
2516.000000	67.262600
2515.000000	67.320724
2514.000000	67.383787
2513.000000	67.448246
2512.000000	67.512366
2511.000000	67.575744
2510.000000	67.638595
2509.000000	67.702167
2508.000000	67.768388
2507.000000	67.837744
2506.000000	67.908330
2505.000000	67.977398
2504.000000	68.043016
2503.000000	68.103866
2502.000000	68.159050
2501.000000	68.209120
2500.000000	68.256467
2499.000000	68.303536
2498.000000	68.351095
2497.000000	68.398848
2496.000000	68.446294
2495.000000	68.492231
2494.000000	68.534558
2493.000000	68.571795
2492.000000	68.604568
2491.000000	68.634733
2490.000000	68.663902
2489.000000	68.693399
2488.000000	68.724297
2487.000000	68.756458
2486.000000	68.788075
2485.000000	68.817175
2484.000000	68.843203
2483.000000	68.866604
2482.000000	68.887966
2481.000000	68.908265
2480.000000	68.928869
2479.000000	68.950336
2478.000000	68.971776
2477.000000	68.992177
2476.000000	69.011518
2475.000000	69.030046
2474.000000	69.047644
2473.000000	69.064632
2472.000000	69.082151
2471.000000	69.100778
2470.000000	69.119614
2469.000000	69.137543
2468.000000	69.154430
2467.000000	69.170438
2466.000000	69.185349
2465.000000	69.199478
2464.000000	69.214227
2463.000000	69.230641
2462.000000	69.248224
2461.000000	69.265814
2460.000000	69.282655
2459.000000	69.297951
2458.000000	69.310718
2457.000000	69.321219
2456.000000	69.331604
2455.000000	69.344140
2454.000000	69.359573
2453.000000	69.377649
2452.000000	69.397775
2451.000000	69.418143
2450.000000	69.435664
2449.000000	69.448405
2448.000000	69.457571
2447.000000	69.466329
2446.000000	69.477479
2445.000000	69.492749
2444.000000	69.512729
2443.000000	69.535963
2442.000000	69.558952
2441.000000	69.578366
2440.000000	69.592947
2439.000000	69.603112
2438.000000	69.610279
2437.000000	69.617406
2436.000000	69.628514
2435.000000	69.645904
2434.000000	69.668226
2433.000000	69.691905
2432.000000	69.713489
2431.000000	69.730217
2430.000000	69.740420
2429.000000	69.745327
2428.000000	69.749676
2427.000000	69.759025
2426.000000	69.776476
2425.000000	69.801966
2424.000000	69.832884
2423.000000	69.864334
2422.000000	69.890632
2421.000000	69.908693
2420.000000	69.919994
2419.000000	69.928739
2418.000000	69.939054
2417.000000	69.954195
2416.000000	69.976104
2415.000000	70.003698
2414.000000	70.032552
2413.000000	70.057850
2412.000000	70.077358
2411.000000	70.091365
2410.000000	70.101578
2409.000000	70.111298
2408.000000	70.124902
2407.000000	70.145049
2406.000000	70.170625
2405.000000	70.198054
2404.000000	70.223688
2403.000000	70.244610
2402.000000	70.259306
2401.000000	70.269422
2400.000000	70.279790
2399.000000	70.295170
2398.000000	70.317338
2397.000000	70.345456
2396.000000	70.377229
2395.000000	70.408749
2394.000000	70.435442
2393.000000	70.455494
2392.000000	70.471502
2391.000000	70.487974
2390.000000	70.508512
2389.000000	70.535409
2388.000000	70.570135
2387.000000	70.611113
2386.000000	70.653399
2385.000000	70.692785
2384.000000	70.728401
2383.000000	70.762695
2382.000000	70.798512
2381.000000	70.838904
2380.000000	70.887160
2379.000000	70.943062
2378.000000	71.002280
2377.000000	71.059701
2376.000000	71.112476
2375.000000	71.158869
2374.000000	71.198186
2373.000000	71.233392
2372.000000	71.271269
2371.000000	71.316908
2370.000000	71.368606
2369.000000	71.423137
2368.000000	71.478360
2367.000000	71.530567
2366.000000	71.574644
2365.000000	71.609755
2364.000000	71.644329
2363.000000	71.682259
2362.000000	71.722305
2361.000000	71.769983
2360.000000	71.826339
2359.000000	71.888663
2358.000000	71.946211
2357.000000	71.990228
2356.000000	72.024142
2355.000000	72.049312
2354.000000	72.075461
2353.000000	72.112692
2352.000000	72.169207
2351.000000	72.241331
2350.000000	72.305352
2349.000000	72.350031
2348.000000	72.380978
2347.000000	72.424856
2346.000000	72.492992
2345.000000	72.563397
2344.000000	72.617389
2343.000000	72.651071
2342.000000	72.684073
2341.000000	72.724361
2340.000000	72.767305
2339.000000	72.807627
2338.000000	72.844492
2337.000000	72.880614
2336.000000	72.919618
2335.000000	72.964048
2334.000000	73.018154
2333.000000	73.080718
2332.000000	73.145521
2331.000000	73.207930
2330.000000	73.258852
2329.000000	73.302797
2328.000000	73.339342
2327.000000	73.375882
2326.000000	73.418169
2325.000000	73.466586
2324.000000	73.523851
2323.000000	73.581352
2322.000000	73.635646
2321.000000	73.679014
2320.000000	73.712563
2319.000000	73.740448
2318.000000	73.768141
2317.000000	73.801642
2316.000000	73.844148
2315.000000	73.898602
2314.000000	73.959946
2313.000000	74.021019
2312.000000	74.073501
2311.000000	74.115815
2310.000000	74.149432
2309.000000	74.178885
2308.000000	74.210044
2307.000000	74.248152
2306.000000	74.295313
2305.000000	74.348278
2304.000000	74.402970
2303.000000	74.454684
2302.000000	74.499358
2301.000000	74.534998
2300.000000	74.563990
2299.000000	74.593279
2298.000000	74.628078
2297.000000	74.671003
2296.000000	74.721053
2295.000000	74.775334
2294.000000	74.827792
2293.000000	74.872075
2292.000000	74.906120
2291.000000	74.932812
2290.000000	74.957484
2289.000000	74.984774
2288.000000	75.019121
2287.000000	75.062431
2286.000000	75.112462
2285.000000	75.163067
2284.000000	75.209090
2283.000000	75.247878
2282.000000	75.278994
2281.000000	75.303996
2280.000000	75.327823
2279.000000	75.356786
2278.000000	75.394289
2277.000000	75.439217
2276.000000	75.487514
2275.000000	75.534184
2274.000000	75.573731
2273.000000	75.603091
2272.000000	75.624094
2271.000000	75.642254
2270.000000	75.662756
2269.000000	75.688717
2268.000000	75.721868
2267.000000	75.761462
2266.000000	75.802608
2265.000000	75.838872
2264.000000	75.866667
2263.000000	75.886634
2262.000000	75.901371
2261.000000	75.914261
2260.000000	75.930064
2259.000000	75.952184
2258.000000	75.979917
2257.000000	76.009034
2256.000000	76.035768
2255.000000	76.057914
2254.000000	76.073530
2253.000000	76.082095
2252.000000	76.086534
2251.000000	76.091648
2250.000000	76.100063
2249.000000	76.111008
2248.000000	76.123033
2247.000000	76.134935
2246.000000	76.143953
2245.000000	76.147289
2244.000000	76.144910
2243.000000	76.139151
2242.000000	76.131696
2241.000000	76.123164
2240.000000	76.114824
2239.000000	76.107793
2238.000000	76.100784
2237.000000	76.091093
2236.000000	76.077834
2235.000000	76.061920
2234.000000	76.043671
2233.000000	76.022961
2232.000000	76.001137
2231.000000	75.980016
2230.000000	75.959199
2229.000000	75.936894
2228.000000	75.913010
2227.000000	75.889045
2226.000000	75.865514
2225.000000	75.842000
2224.000000	75.819109
2223.000000	75.797643
2222.000000	75.776168
2221.000000	75.752129
2220.000000	75.725172
2219.000000	75.697175
2218.000000	75.669687
2217.000000	75.643848
2216.000000	75.622025
2215.000000	75.606329
2214.000000	75.595485
2213.000000	75.585543
2212.000000	75.573573
2211.000000	75.558683
2210.000000	75.540519
2209.000000	75.519905
2208.000000	75.500600
2207.000000	75.487427
2206.000000	75.482263
2205.000000	75.483585
2204.000000	75.489036
2203.000000	75.495862
2202.000000	75.499839
2201.000000	75.497352
2200.000000	75.489132
2199.000000	75.479920
2198.000000	75.474648
2197.000000	75.476647
2196.000000	75.488020
2195.000000	75.508145
2194.000000	75.531830
2193.000000	75.551832
2192.000000	75.563948
2191.000000	75.568280
2190.000000	75.566975
2189.000000	75.563657
2188.000000	75.564083
2187.000000	75.573478
2186.000000	75.592242
2185.000000	75.615952
2184.000000	75.638934
2183.000000	75.656037
2182.000000	75.662799
2181.000000	75.658089
2180.000000	75.646834
2179.000000	75.637222
2178.000000	75.634768
2177.000000	75.640571
2176.000000	75.653540
2175.000000	75.670646
2174.000000	75.685682
2173.000000	75.691888
2172.000000	75.687023
2171.000000	75.674266
2170.000000	75.658815
2169.000000	75.646013
2168.000000	75.641322
2167.000000	75.647802
2166.000000	75.662768
2165.000000	75.679296
2164.000000	75.691363
2163.000000	75.696050
2162.000000	75.692467
2161.000000	75.682298
2160.000000	75.671178
2159.000000	75.665969
2158.000000	75.669772
2157.000000	75.681125
2156.000000	75.696895
2155.000000	75.713241
2154.000000	75.725032
2153.000000	75.728383
2152.000000	75.724387
2151.000000	75.717934
2150.000000	75.713065
2149.000000	75.711713
2148.000000	75.715548
2147.000000	75.725134
2146.000000	75.737352
2145.000000	75.746943
2144.000000	75.751027
2143.000000	75.750064
2142.000000	75.745192
2141.000000	75.737756
2140.000000	75.730975
2139.000000	75.728385
2138.000000	75.730250
2137.000000	75.734013
2136.000000	75.737964
2135.000000	75.741797
2134.000000	75.744277
2133.000000	75.743753
2132.000000	75.740992
2131.000000	75.738623
2130.000000	75.737854
2129.000000	75.738388
2128.000000	75.740796
2127.000000	75.745865
2126.000000	75.752110
2125.000000	75.757091
2124.000000	75.760881
2123.000000	75.765287
2122.000000	75.770283
2121.000000	75.774312
2120.000000	75.777610
2119.000000	75.781938
2118.000000	75.787400
2117.000000	75.792943
2116.000000	75.799608
2115.000000	75.809800
2114.000000	75.823486
2113.000000	75.838353
2112.000000	75.853612
2111.000000	75.870402
2110.000000	75.888797
2109.000000	75.908099
2108.000000	75.929909
2107.000000	75.957454
2106.000000	75.991551
2105.000000	76.030249
2104.000000	76.072355
2103.000000	76.117642
2102.000000	76.164229
2101.000000	76.209481
2100.000000	76.253856
2099.000000	76.300845
2098.000000	76.352346
2097.000000	76.407849
2096.000000	76.467463
2095.000000	76.531644
2094.000000	76.597875
2093.000000	76.661038
2092.000000	76.718215
2091.000000	76.770369
2090.000000	76.819554
2089.000000	76.867705
2088.000000	76.917755
2087.000000	76.971841
2086.000000	77.027659
2085.000000	77.079585
2084.000000	77.123841
2083.000000	77.159970
2082.000000	77.187960
2081.000000	77.208076
2080.000000	77.223414
2079.000000	77.238773
2078.000000	77.255634
2077.000000	77.271704
2076.000000	77.284702
2075.000000	77.293370
2074.000000	77.295809
2073.000000	77.289867
2072.000000	77.277285
2071.000000	77.263629
2070.000000	77.253331
2069.000000	77.247332
2068.000000	77.244596
2067.000000	77.243001
2066.000000	77.239089
2065.000000	77.230906
2064.000000	77.220961
2063.000000	77.213643
2062.000000	77.210549
2061.000000	77.211374
2060.000000	77.217794
2059.000000	77.232454
2058.000000	77.254394
2057.000000	77.279249
2056.000000	77.303979
2055.000000	77.328161
2054.000000	77.351863
2053.000000	77.375755
2052.000000	77.403457
2051.000000	77.439731
2050.000000	77.485284
2049.000000	77.536840
2048.000000	77.592107
2047.000000	77.650556
2046.000000	77.710316
2045.000000	77.768851
2044.000000	77.826700
2043.000000	77.887275
2042.000000	77.953263
2041.000000	78.026251
2040.000000	78.107841
2039.000000	78.197405
2038.000000	78.289880
2037.000000	78.379646
2036.000000	78.466501
2035.000000	78.554450
2034.000000	78.645964
2033.000000	78.741654
2032.000000	78.842729
2031.000000	78.949525
2030.000000	79.058020
2029.000000	79.162412
2028.000000	79.261686
2027.000000	79.358623
2026.000000	79.455076
2025.000000	79.551348
2024.000000	79.650221
2023.000000	79.755653
2022.000000	79.866005
2021.000000	79.974232
2020.000000	80.073827
2019.000000	80.162036
2018.000000	80.239368
2017.000000	80.311340
2016.000000	80.387991
2015.000000	80.476270
2014.000000	80.573682
2013.000000	80.672514
2012.000000	80.767469
2011.000000	80.855828
2010.000000	80.934018
2009.000000	81.000289
2008.000000	81.059531
2007.000000	81.119216
2006.000000	81.183447
2005.000000	81.252246
2004.000000	81.325812
2003.000000	81.402800
2002.000000	81.475830
2001.000000	81.538041
2000.000000	81.588299
1999.000000	81.631679
1998.000000	81.674741
1997.000000	81.722303
1996.000000	81.777507
1995.000000	81.837746
1994.000000	81.893734
1993.000000	81.938326
1992.000000	81.975583
1991.000000	82.013249
1990.000000	82.050306
1989.000000	82.082218
1988.000000	82.113527
1987.000000	82.152816
1986.000000	82.200494
1985.000000	82.250395
1984.000000	82.300148
1983.000000	82.349599
1982.000000	82.392674
1981.000000	82.423561
1980.000000	82.445234
1979.000000	82.466679
1978.000000	82.491237
1977.000000	82.516627
1976.000000	82.545408
1975.000000	82.582110
1974.000000	82.623255
1973.000000	82.660496
1972.000000	82.692924
1971.000000	82.724194
1970.000000	82.750051
1969.000000	82.762054
1968.000000	82.763822
1967.000000	82.770809
1966.000000	82.791460
1965.000000	82.820513
1964.000000	82.852616
1963.000000	82.887276
1962.000000	82.919947
1961.000000	82.943407
1960.000000	82.959117
1959.000000	82.975252
1958.000000	82.992177
1957.000000	83.004050
1956.000000	83.012998
1955.000000	83.027890
1954.000000	83.049926
1953.000000	83.071118
1952.000000	83.090596
1951.000000	83.113645
1950.000000	83.137325
1949.000000	83.154576
1948.000000	83.166998
1947.000000	83.181878
1946.000000	83.196105
1945.000000	83.197840
1944.000000	83.185668
1943.000000	83.174035
1942.000000	83.177635
1941.000000	83.196159
1940.000000	83.220806
1939.000000	83.246377
1938.000000	83.266439
1937.000000	83.273021
1936.000000	83.268472
1935.000000	83.265687
1934.000000	83.272333
1933.000000	83.283791
1932.000000	83.298351
1931.000000	83.316612
1930.000000	83.332631
1929.000000	83.338970
1928.000000	83.335742
1927.000000	83.332983
1926.000000	83.329577
1925.000000	83.316724
1924.000000	83.298402
1923.000000	83.289913
1922.000000	83.298508
1921.000000	83.308970
1920.000000	83.305459
1919.000000	83.289385
1918.000000	83.267589
1917.000000	83.244519
1916.000000	83.224167
1915.000000	83.215563
1914.000000	83.226742
1913.000000	83.249006
1912.000000	83.266447
1911.000000	83.269357
1910.000000	83.256993
1909.000000	83.231543
1908.000000	83.195758
1907.000000	83.161280
1906.000000	83.136770
1905.000000	83.123687
1904.000000	83.122898
1903.000000	83.132572
1902.000000	83.149469
1901.000000	83.166130
1900.000000	83.173457
1899.000000	83.168899
1898.000000	83.151429
1897.000000	83.120956
1896.000000	83.088171
1895.000000	83.072771
1894.000000	83.086986
1893.000000	83.120143
1892.000000	83.149957
1891.000000	83.161756
1890.000000	83.153509
1889.000000	83.134150
1888.000000	83.114108
1887.000000	83.099176
1886.000000	83.094345
1885.000000	83.102049
1884.000000	83.121642
1883.000000	83.149524
1882.000000	83.178710
1881.000000	83.198828
1880.000000	83.199518
1879.000000	83.181603
1878.000000	83.154070
1877.000000	83.124576
1876.000000	83.104433
1875.000000	83.107322
1874.000000	83.134687
1873.000000	83.171074
1872.000000	83.195697
1871.000000	83.194684
1870.000000	83.159516
1869.000000	83.093734
1868.000000	83.023815
1867.000000	82.977460
1866.000000	82.963765
1865.000000	82.978195
1864.000000	83.008572
1863.000000	83.038651
1862.000000	83.054178
1861.000000	83.048487
1860.000000	83.022697
1859.000000	82.983502
1858.000000	82.941808
1857.000000	82.907887
1856.000000	82.889090
1855.000000	82.886574
1854.000000	82.894521
1853.000000	82.906040
1852.000000	82.907734
1851.000000	82.893003
1850.000000	82.865243
1849.000000	82.825918
1848.000000	82.778529
1847.000000	82.731142
1846.000000	82.695250
1845.000000	82.671669
1844.000000	82.655839
1843.000000	82.642021
1842.000000	82.617551
1841.000000	82.579951
1840.000000	82.540982
1839.000000	82.506437
1838.000000	82.466677
1837.000000	82.421106
1836.000000	82.389380
1835.000000	82.382931
1834.000000	82.388566
1833.000000	82.379829
1832.000000	82.340614
1831.000000	82.275356
1830.000000	82.199209
1829.000000	82.128313
1828.000000	82.065973
1827.000000	82.008355
1826.000000	81.958449
1825.000000	81.918312
1824.000000	81.889168
1823.000000	81.865654
1822.000000	81.837592
1821.000000	81.800066
1820.000000	81.753657
1819.000000	81.702448
1818.000000	81.647690
1817.000000	81.599502
1816.000000	81.571417
1815.000000	81.554517
1814.000000	81.525734
1813.000000	81.468761
1812.000000	81.392762
1811.000000	81.317449
1810.000000	81.249189
1809.000000	81.192051
1808.000000	81.151426
1807.000000	81.126756
1806.000000	81.106857
1805.000000	81.078095
1804.000000	81.030897
1803.000000	80.957368
1802.000000	80.865217
1801.000000	80.778353
1800.000000	80.722415
1799.000000	80.698904
1798.000000	80.683686
1797.000000	80.661490
1796.000000	80.632113
1795.000000	80.596405
1794.000000	80.546532
1793.000000	80.467608
1792.000000	80.371497
1791.000000	80.294952
1790.000000	80.249823
1789.000000	80.224215
1788.000000	80.202047
1787.000000	80.168800
1786.000000	80.117791
1785.000000	80.065771
1784.000000	80.031755
1783.000000	80.002946
1782.000000	79.962850
1781.000000	79.906900
1780.000000	79.849717
1779.000000	79.808707
1778.000000	79.777349
1777.000000	79.748712
1776.000000	79.722896
1775.000000	79.704344
1774.000000	79.686676
1773.000000	79.640673
1772.000000	79.557070
1771.000000	79.458162
1770.000000	79.344546
1769.000000	79.222950
1768.000000	79.135719
1767.000000	79.103443
1766.000000	79.094915
1765.000000	79.071178
1764.000000	79.030598
1763.000000	78.985170
1762.000000	78.933273
1761.000000	78.868914
1760.000000	78.793392
1759.000000	78.704509
1758.000000	78.604927
1757.000000	78.514484
1756.000000	78.458588
1755.000000	78.439555
1754.000000	78.421241
1753.000000	78.370800
1752.000000	78.282248
1751.000000	78.173111
1750.000000	78.050801
1749.000000	77.921256
1748.000000	77.816419
1747.000000	77.759371
1746.000000	77.728983
1745.000000	77.681361
1744.000000	77.615640
1743.000000	77.557135
1742.000000	77.493370
1741.000000	77.393122
1740.000000	77.272919
1739.000000	77.176419
1738.000000	77.105802
1737.000000	77.034585
1736.000000	76.965368
1735.000000	76.891526
1734.000000	76.780379
1733.000000	76.625381
1732.000000	76.424093
1731.000000	76.203841
1730.000000	76.011343
1729.000000	75.856656
1728.000000	75.730631
1727.000000	75.628102
1726.000000	75.533616
1725.000000	75.411301
1724.000000	75.259822
1723.000000	75.110391
1722.000000	74.971056
1721.000000	74.827112
1720.000000	74.677552
1719.000000	74.518153
1718.000000	74.306460
1717.000000	74.044128
1716.000000	73.780941
1715.000000	73.543728
1714.000000	73.340432
1713.000000	73.155441
1712.000000	72.964475
1711.000000	72.762051
1710.000000	72.560012
1709.000000	72.364238
1708.000000	72.164125
1707.000000	71.953492
1706.000000	71.734346
1705.000000	71.527238
1704.000000	71.345901
1703.000000	71.167847
1702.000000	70.970166
1701.000000	70.723343
1700.000000	70.442446
1699.000000	70.179843
1698.000000	69.917682
1697.000000	69.638389
1696.000000	69.366677
1695.000000	69.103463
1694.000000	68.818336
1693.000000	68.503913
1692.000000	68.195547
1691.000000	67.904224
1690.000000	67.614972
1689.000000	67.347553
1688.000000	67.142207
1687.000000	66.999241
1686.000000	66.842007
1685.000000	66.513992
1684.000000	66.012949
1683.000000	65.548621
1682.000000	65.179725
1681.000000	64.846187
1680.000000	64.551071
1679.000000	64.303721
1678.000000	64.081132
1677.000000	63.828210
1676.000000	63.514167
1675.000000	63.171188
1674.000000	62.846357
1673.000000	62.525167
1672.000000	62.193614
1671.000000	61.858229
1670.000000	61.505583
1669.000000	61.146400
1668.000000	60.820795
1667.000000	60.549760
1666.000000	60.305062
1665.000000	60.034625
1664.000000	59.708727
1663.000000	59.342229
1662.000000	58.985800
1661.000000	58.662290
1660.000000	58.366909
1659.000000	58.114029
1658.000000	57.908118
1657.000000	57.732399
1656.000000	57.564439
1655.000000	57.396831
1654.000000	57.107584
1653.000000	56.669025
1652.000000	56.285649
1651.000000	55.972338
1650.000000	55.667900
1649.000000	55.387277
1648.000000	55.088768
1647.000000	54.755265
1646.000000	54.444995
1645.000000	54.181331
1644.000000	53.924718
1643.000000	53.670559
1642.000000	53.436986
1641.000000	53.221677
1640.000000	53.018868
1639.000000	52.837915
1638.000000	52.669542
1637.000000	52.458209
1636.000000	52.167586
1635.000000	51.885353
1634.000000	51.671079
1633.000000	51.478476
1632.000000	51.291298
1631.000000	51.121304
1630.000000	50.963439
1629.000000	50.796635
1628.000000	50.624394
1627.000000	50.475532
1626.000000	50.354541
1625.000000	50.227445
1624.000000	50.070824
1623.000000	49.913324
1622.000000	49.797210
1621.000000	49.719036
1620.000000	49.662614
1619.000000	49.636759
1618.000000	49.628641
1617.000000	49.588915
1616.000000	49.503599
1615.000000	49.412202
1614.000000	49.341286
1613.000000	49.291468
1612.000000	49.257306
1611.000000	49.237662
1610.000000	49.235717
1609.000000	49.245343
1608.000000	49.263400
1607.000000	49.299775
1606.000000	49.358185
1605.000000	49.417895
1604.000000	49.459340
1603.000000	49.493931
1602.000000	49.537116
1601.000000	49.585681
1600.000000	49.637582
1599.000000	49.707420
1598.000000	49.801145
1597.000000	49.898702
1596.000000	49.981416
1595.000000	50.054169
1594.000000	50.125364
1593.000000	50.186898
1592.000000	50.233696
1591.000000	50.282546
1590.000000	50.351626
1589.000000	50.436643
1588.000000	50.526228
1587.000000	50.621074
1586.000000	50.719800
1585.000000	50.807057
1584.000000	50.867702
1583.000000	50.915588
1582.000000	50.977686
1581.000000	51.057732
1580.000000	51.149652
1579.000000	51.264538
1578.000000	51.408055
1577.000000	51.533469
1576.000000	51.594519
1575.000000	51.607964
1574.000000	51.602022
1573.000000	51.590272
1572.000000	51.593503
1571.000000	51.621651
1570.000000	51.667720
1569.000000	51.727510
1568.000000	51.794371
1567.000000	51.863894
1566.000000	51.940345
1565.000000	52.024055
1564.000000	52.110963
1563.000000	52.221524
1562.000000	52.362221
1561.000000	52.524358
1560.000000	52.619939
1559.000000	52.623243
1558.000000	52.721391
1557.000000	52.869309
1556.000000	52.943827
1555.000000	53.014764
1554.000000	53.127217
1553.000000	53.255577
1552.000000	53.362514
1551.000000	53.478119
1550.000000	53.643787
1549.000000	53.863127
1548.000000	54.103682
1547.000000	54.342799
1546.000000	54.586238
1545.000000	54.833114
1544.000000	55.082305
1543.000000	55.350227
1542.000000	55.649397
1541.000000	55.951990
1540.000000	56.255589
1539.000000	56.596653
1538.000000	56.906068
1537.000000	57.117699
1536.000000	57.293592
1535.000000	57.509009
1534.000000	57.790309
1533.000000	58.117138
1532.000000	58.460177
1531.000000	58.801882
1530.000000	59.145062
1529.000000	59.498401
1528.000000	59.862693
1527.000000	60.244486
1526.000000	60.652168
1525.000000	61.066949
1524.000000	61.465515
1523.000000	61.862055
1522.000000	62.277214
1521.000000	62.706393
1520.000000	63.103770
1519.000000	63.440218
1518.000000	63.760618
1517.000000	64.116703
1516.000000	64.516704
1515.000000	64.930453
1514.000000	65.328777
1513.000000	65.714879
1512.000000	66.096783
1511.000000	66.469877
1510.000000	66.819924
1509.000000	67.156675
1508.000000	67.492684
1507.000000	67.876843
1506.000000	68.401226
1505.000000	68.926664
1504.000000	69.274837
1503.000000	69.524617
1502.000000	69.785625
1501.000000	70.084717
1500.000000	70.408964
1499.000000	70.758707
1498.000000	71.127556
1497.000000	71.495587
1496.000000	71.862078
1495.000000	72.207210
1494.000000	72.488082
1493.000000	72.699360
1492.000000	72.882012
1491.000000	73.074420
1490.000000	73.279301
1489.000000	73.495548
1488.000000	73.737923
1487.000000	74.006509
1486.000000	74.265413
1485.000000	74.471647
1484.000000	74.609011
1483.000000	74.698900
1482.000000	74.755279
1481.000000	74.772881
1480.000000	74.762039
1479.000000	74.732556
1478.000000	74.656889
1477.000000	74.494360
1476.000000	74.253243
1475.000000	73.937039
1474.000000	73.447301
1473.000000	72.652478
1472.000000	71.618799
1471.000000	70.526206
1470.000000	69.382668
1469.000000	68.091522
1468.000000	66.593104
1467.000000	64.808721
1466.000000	62.574041
1465.000000	59.819107
1464.000000	56.802770
1463.000000	53.876733
1462.000000	51.115602
1461.000000	48.437737
1460.000000	45.804672
1459.000000	43.143763
1458.000000	40.248608
1457.000000	37.218674
1456.000000	34.724296
1455.000000	33.126788
1454.000000	32.156535
1453.000000	31.547296
1452.000000	31.268340
1451.000000	31.353746
1450.000000	31.769426
1449.000000	32.485073
1448.000000	33.513438
1447.000000	34.786807
1446.000000	36.157696
1445.000000	37.549349
1444.000000	38.986399
1443.000000	40.485472
1442.000000	41.992456
1441.000000	43.443887
1440.000000	44.825591
1439.000000	46.182970
1438.000000	47.600955
1437.000000	49.142175
1436.000000	50.726154
1435.000000	52.158404
1434.000000	53.370910
1433.000000	54.464552
1432.000000	55.526107
1431.000000	56.536093
1430.000000	57.432004
1429.000000	58.189664
1428.000000	58.811751
1427.000000	59.291350
1426.000000	59.643759
1425.000000	59.911208
1424.000000	60.136860
1423.000000	60.350867
1422.000000	60.563472
1421.000000	60.782843
1420.000000	61.014612
1419.000000	61.268506
1418.000000	61.569435
1417.000000	61.945481
1416.000000	62.420096
1415.000000	62.997043
1414.000000	63.652228
1413.000000	64.358138
1412.000000	65.101496
1411.000000	65.871263
1410.000000	66.647067
1409.000000	67.410437
1408.000000	68.148601
1407.000000	68.843638
1406.000000	69.493892
1405.000000	70.123124
1404.000000	70.740210
1403.000000	71.317153
1402.000000	71.827736
1401.000000	72.286068
1400.000000	72.713773
1399.000000	73.110634
1398.000000	73.469155
1397.000000	73.790927
1396.000000	74.080261
1395.000000	74.341413
1394.000000	74.586359
1393.000000	74.812008
1392.000000	74.992352
1391.000000	75.107787
1390.000000	75.148356
1389.000000	75.083003
1388.000000	74.859206
1387.000000	74.484956
1386.000000	74.087255
1385.000000	73.829923
1384.000000	73.804060
1383.000000	74.004322
1382.000000	74.343223
1381.000000	74.691846
1380.000000	74.941837
1379.000000	75.056135
1378.000000	75.068147
1377.000000	75.021472
1376.000000	74.923538
1375.000000	74.772207
1374.000000	74.606493
1373.000000	74.478169
1372.000000	74.384644
1371.000000	74.286746
1370.000000	74.167608
1369.000000	74.029851
1368.000000	73.869777
1367.000000	73.678413
1366.000000	73.445367
1365.000000	73.149575
1364.000000	72.755913
1363.000000	72.261646
1362.000000	71.735208
1361.000000	71.255099
1360.000000	70.838299
1359.000000	70.470752
1358.000000	70.163216
1357.000000	69.943770
1356.000000	69.827303
1355.000000	69.818366
1354.000000	69.921157
1353.000000	70.122257
1352.000000	70.374769
1351.000000	70.617493
1350.000000	70.803003
1349.000000	70.888959
1348.000000	70.821303
1347.000000	70.554764
1346.000000	70.073619
1345.000000	69.385962
1344.000000	68.508858
1343.000000	67.461395
1342.000000	66.258218
1341.000000	64.897946
1340.000000	63.377211
1339.000000	61.724967
1338.000000	59.977579
1337.000000	58.126147
1336.000000	56.125195
1335.000000	53.947475
1334.000000	51.608449
1333.000000	49.143673
1332.000000	46.603004
1331.000000	44.067286
1330.000000	41.631766
1329.000000	39.364579
1328.000000	37.297972
1327.000000	35.441628
1326.000000	33.775608
1325.000000	32.248379
1324.000000	30.810614
1323.000000	29.449600
1322.000000	28.172344
1321.000000	26.982094
1320.000000	25.904247
1319.000000	25.006832
1318.000000	24.372874
1317.000000	24.058278
1316.000000	24.087064
1315.000000	24.468205
1314.000000	25.178536
1313.000000	26.156935
1312.000000	27.333465
1311.000000	28.649444
1310.000000	30.056073
1309.000000	31.505192
1308.000000	32.958032
1307.000000	34.391757
1306.000000	35.787924
1305.000000	37.127843
1304.000000	38.402439
1303.000000	39.615711
1302.000000	40.772411
1301.000000	41.869880
1300.000000	42.900813
1299.000000	43.858093
1298.000000	44.731648
1297.000000	45.509517
1296.000000	46.195036
1295.000000	46.819472
1294.000000	47.434224
1293.000000	48.091498
1292.000000	48.831030
1291.000000	49.674707
1290.000000	50.624028
1289.000000	51.662153
1288.000000	52.763969
1287.000000	53.908002
1286.000000	55.078019
1285.000000	56.257375
1284.000000	57.424551
1283.000000	58.554627
1282.000000	59.623188
1281.000000	60.608353
1280.000000	61.492790
1279.000000	62.273053
1278.000000	62.966873
1277.000000	63.602291
1276.000000	64.203779
1275.000000	64.789028
1274.000000	65.370973
1273.000000	65.954198
1272.000000	66.531516
1271.000000	67.096241
1270.000000	67.654830
1269.000000	68.220536
1268.000000	68.800860
1267.000000	69.398873
1266.000000	70.019644
1265.000000	70.660773
1264.000000	71.298690
1263.000000	71.897710
1262.000000	72.433135
1261.000000	72.899305
1260.000000	73.301397
1259.000000	73.653440
1258.000000	73.980073
1257.000000	74.299843
1256.000000	74.608211
1255.000000	74.885588
1254.000000	75.116362
1253.000000	75.294051
1252.000000	75.414269
1251.000000	75.480443
1250.000000	75.512039
1249.000000	75.530064
1248.000000	75.537552
1247.000000	75.520602
1246.000000	75.463846
1245.000000	75.355312
1244.000000	75.182951
1243.000000	74.945028
1242.000000	74.658776
1241.000000	74.347819
1240.000000	74.024382
1239.000000	73.688444
1238.000000	73.338595
1237.000000	72.971984
1236.000000	72.582329
1235.000000	72.172211
1234.000000	71.764328
1233.000000	71.391232
1232.000000	71.077560
1231.000000	70.836345
1230.000000	70.670671
1229.000000	70.570966
1228.000000	70.514407
1227.000000	70.480109
1226.000000	70.466529
1225.000000	70.487931
1224.000000	70.562667
1223.000000	70.706067
1222.000000	70.926646
1221.000000	71.217894
1220.000000	71.552011
1219.000000	71.893354
1218.000000	72.217446
1217.000000	72.516062
1216.000000	72.793833
1215.000000	73.068580
1214.000000	73.370415
1213.000000	73.724988
1212.000000	74.133496
1211.000000	74.571831
1210.000000	75.005350
1209.000000	75.399796
1208.000000	75.728315
1207.000000	75.986491
1206.000000	76.203090
1205.000000	76.425443
1204.000000	76.690805
1203.000000	77.012834
1202.000000	77.383432
1201.000000	77.772110
1200.000000	78.130575
1199.000000	78.416069
1198.000000	78.618048
1197.000000	78.760313
1196.000000	78.882167
1195.000000	79.024818
1194.000000	79.222613
1193.000000	79.484947
1192.000000	79.783362
1191.000000	80.066099
1190.000000	80.290068
1189.000000	80.437025
1188.000000	80.511819
1187.000000	80.544011
1186.000000	80.585730
1185.000000	80.686822
1184.000000	80.861874
1183.000000	81.082024
1182.000000	81.295354
1181.000000	81.451539
1180.000000	81.522309
1179.000000	81.518120
1178.000000	81.484626
1177.000000	81.471786
1176.000000	81.505876
1175.000000	81.591055
1174.000000	81.721506
1173.000000	81.877722
1172.000000	82.022342
1171.000000	82.119148
1170.000000	82.158332
1169.000000	82.155614
1168.000000	82.133744
1167.000000	82.116116
1166.000000	82.127568
1165.000000	82.181418
1164.000000	82.265388
1163.000000	82.351352
1162.000000	82.417984
1161.000000	82.456068
1160.000000	82.461494
1159.000000	82.439881
1158.000000	82.413576
1157.000000	82.408106
1156.000000	82.432121
1155.000000	82.478967
1154.000000	82.540248
1153.000000	82.604771
1152.000000	82.652361
1151.000000	82.666479
1150.000000	82.652091
1149.000000	82.628576
1148.000000	82.608560
1147.000000	82.595657
1146.000000	82.595939
1145.000000	82.615158
1144.000000	82.647388
1143.000000	82.679676
1142.000000	82.705707
1141.000000	82.724205
1140.000000	82.729311
1139.000000	82.716229
1138.000000	82.692585
1137.000000	82.671973
1136.000000	82.659881
1135.000000	82.656214
1134.000000	82.664839
1133.000000	82.686615
1132.000000	82.707556
1131.000000	82.707797
1130.000000	82.679439
1129.000000	82.625919
1128.000000	82.550112
1127.000000	82.456869
1126.000000	82.361993
1125.000000	82.281982
1124.000000	82.216963
1123.000000	82.152742
1122.000000	82.074455
1121.000000	81.968391
1120.000000	81.816686
1119.000000	81.608234
1118.000000	81.352638
1117.000000	81.071465
1116.000000	80.780106
1115.000000	80.483681
1114.000000	80.183072
1113.000000	79.869358
1112.000000	79.515764
1111.000000	79.092899
1110.000000	78.588027
1109.000000	78.005803
1108.000000	77.357276
1107.000000	76.655377
1106.000000	75.916569
1105.000000	75.146789
1104.000000	74.329722
1103.000000	73.437374
1102.000000	72.442577
1101.000000	71.326604
1100.000000	70.077652
1099.000000	68.694055
1098.000000	67.190561
1097.000000	65.580621
1096.000000	63.869408
1095.000000	62.054807
1094.000000	60.129631
1093.000000	58.083752
1092.000000	55.906558
1091.000000	53.602308
1090.000000	51.192653
1089.000000	48.709892
1088.000000	46.197819
1087.000000	43.710275
1086.000000	41.297414
1085.000000	38.994822
1084.000000	36.830934
1083.000000	34.827181
1082.000000	32.991992
1081.000000	31.319069
1080.000000	29.804163
1079.000000	28.453769
1078.000000	27.261449
1077.000000	26.208815
1076.000000	25.282090
1075.000000	24.474511
1074.000000	23.773938
1073.000000	23.156485
1072.000000	22.608671
1071.000000	22.130158
1070.000000	21.714869
1069.000000	21.353858
1068.000000	21.050400
1067.000000	20.820471
1066.000000	20.671095
1065.000000	20.595682
1064.000000	20.595195
1063.000000	20.675753
1062.000000	20.831585
1061.000000	21.047359
1060.000000	21.317224
1059.000000	21.647962
1058.000000	22.037860
1057.000000	22.477117
1056.000000	22.966652
1055.000000	23.515091
1054.000000	24.121278
1053.000000	24.772330
1052.000000	25.461820
1051.000000	26.192184
1050.000000	26.957488
1049.000000	27.746951
1048.000000	28.561204
1047.000000	29.410843
1046.000000	30.300084
1045.000000	31.224377
1044.000000	32.183721
1043.000000	33.179740
1042.000000	34.202644
1041.000000	35.235470
1040.000000	36.269310
1039.000000	37.306477
1038.000000	38.349661
1037.000000	39.399452
1036.000000	40.460892
1035.000000	41.539668
1034.000000	42.631451
1033.000000	43.721778
1032.000000	44.796231
1031.000000	45.844989
1030.000000	46.861922
1029.000000	47.847062
1028.000000	48.810552
1027.000000	49.768119
1026.000000	50.728985
1025.000000	51.691374
1024.000000	52.644886
1023.000000	53.574129
1022.000000	54.463288
1021.000000	55.301719
1020.000000	56.091462
1019.000000	56.848018
1018.000000	57.592890
1017.000000	58.343512
1016.000000	59.104302
1015.000000	59.865501
1014.000000	60.607098
1013.000000	61.306212
1012.000000	61.947917
1011.000000	62.533664
1010.000000	63.083397
1009.000000	63.626202
1008.000000	64.185322
1007.000000	64.769452
1006.000000	65.370061
1005.000000	65.963818
1004.000000	66.520782
1003.000000	67.019061
1002.000000	67.458035
1001.000000	67.857406
1000.000000	68.246613
999.000000	68.654271
998.000000	69.097932
997.000000	69.574670
996.000000	70.058668
995.000000	70.514757
994.000000	70.918417
993.000000	71.264374
992.000000	71.564748
991.000000	71.845767
990.000000	72.140933
989.000000	72.474773
988.000000	72.847533
987.000000	73.238083
986.000000	73.617770
985.000000	73.961088
984.000000	74.252549
983.000000	74.495392
982.000000	74.714471
981.000000	74.941961
980.000000	75.197434
979.000000	75.483037
978.000000	75.789379
977.000000	76.098373
976.000000	76.385454
975.000000	76.632486
974.000000	76.841562
973.000000	77.029993
972.000000	77.214804
971.000000	77.406838
970.000000	77.613158
969.000000	77.834217
968.000000	78.059041
967.000000	78.273198
966.000000	78.471552
965.000000	78.657290
964.000000	78.832477
963.000000	78.997434
962.000000	79.155772
961.000000	79.310497
960.000000	79.457310
959.000000	79.591774
958.000000	79.719839
957.000000	79.853411
956.000000	79.997686
955.000000	80.149923
954.000000	80.306091
953.000000	80.457941
952.000000	80.588383
951.000000	80.682903
950.000000	80.745819
949.000000	80.797930
948.000000	80.860937
947.000000	80.950172
946.000000	81.074542
945.000000	81.228598
944.000000	81.386282
943.000000	81.513752
942.000000	81.591932
941.000000	81.623377
940.000000	81.624583
939.000000	81.622749
938.000000	81.652011
937.000000	81.734528
936.000000	81.861724
935.000000	81.999936
934.000000	82.112999
933.000000	82.175471
932.000000	82.175532
931.000000	82.123082
930.000000	82.054107
929.000000	82.012672
928.000000	82.022731
927.000000	82.078487
926.000000	82.155277
925.000000	82.218375
924.000000	82.231092
923.000000	82.173951
922.000000	82.061303
921.000000	81.931879
920.000000	81.823116
919.000000	81.755880
918.000000	81.731796
917.000000	81.729325
916.000000	81.707488
915.000000	81.628061
914.000000	81.481054
913.000000	81.285634
912.000000	81.071434
911.000000	80.867166
910.000000	80.695022
909.000000	80.557206
908.000000	80.427360
907.000000	80.264959
906.000000	80.042313
905.000000	79.755158
904.000000	79.417197
903.000000	79.056014
902.000000	78.705757
901.000000	78.387706
900.000000	78.092620
899.000000	77.786734
898.000000	77.435527
897.000000	77.016057
896.000000	76.521112
895.000000	75.965314
894.000000	75.383268
893.000000	74.809341
892.000000	74.253894
891.000000	73.701426
890.000000	73.123937
889.000000	72.489677
888.000000	71.771719
887.000000	70.961246
886.000000	70.076611
885.000000	69.152265
884.000000	68.216069
883.000000	67.279509
882.000000	66.336292
881.000000	65.363389
880.000000	64.329535
879.000000	63.211347
878.000000	62.007162
877.000000	60.733965
876.000000	59.416944
875.000000	58.081819
874.000000	56.745348
873.000000	55.408723
872.000000	54.059597
871.000000	52.683262
870.000000	51.271906
869.000000	49.825900
868.000000	48.354629
867.000000	46.875212
866.000000	45.405394
865.000000	43.956351
864.000000	42.532563
863.000000	41.134030
862.000000	39.756536
861.000000	38.397232
860.000000	37.062800
859.000000	35.773411
858.000000	34.556587
857.000000	33.444653
856.000000	32.479118
855.000000	31.698053
854.000000	31.120715
853.000000	30.739391
852.000000	30.524695
851.000000	30.434297
850.000000	30.414336
849.000000	30.416390
848.000000	30.413523
847.000000	30.400268
846.000000	30.383086
845.000000	30.373772
844.000000	30.391027
843.000000	30.454383
842.000000	30.574933
841.000000	30.758727
840.000000	31.012841
839.000000	31.343564
838.000000	31.749905
837.000000	32.224612
836.000000	32.761581
835.000000	33.352667
834.000000	33.984642
833.000000	34.645365
832.000000	35.330834
831.000000	36.044075
830.000000	36.787710
829.000000	37.562430
828.000000	38.368043
827.000000	39.201845
826.000000	40.060454
825.000000	40.944168
824.000000	41.856127
823.000000	42.795353
822.000000	43.754598
821.000000	44.725288
820.000000	45.698144
819.000000	46.659828
818.000000	47.594783
817.000000	48.491661
816.000000	49.344027
815.000000	50.148664
814.000000	50.908457
813.000000	51.634126
812.000000	52.339284
811.000000	53.033204
810.000000	53.721002
809.000000	54.405462
808.000000	55.083370
807.000000	55.745621
806.000000	56.385511
805.000000	57.005567
804.000000	57.613555
803.000000	58.215979
802.000000	58.818457
801.000000	59.424857
800.000000	60.031479
799.000000	60.627467
798.000000	61.204579
797.000000	61.762756
796.000000	62.304448
795.000000	62.831441
794.000000	63.349451
793.000000	63.866365
792.000000	64.382121
791.000000	64.886633
790.000000	65.370701
789.000000	65.832766
788.000000	66.274148
787.000000	66.697677
786.000000	67.112497
785.000000	67.529602
784.000000	67.948972
783.000000	68.357899
782.000000	68.744205
781.000000	69.103486
780.000000	69.434787
779.000000	69.741720
778.000000	70.039863
777.000000	70.351184
776.000000	70.685468
775.000000	71.033796
774.000000	71.380994
773.000000	71.714591
772.000000	72.022881
771.000000	72.299022
770.000000	72.552512
769.000000	72.806407
768.000000	73.078338
767.000000	73.370603
766.000000	73.676570
765.000000	73.983145
764.000000	74.266966
763.000000	74.504321
762.000000	74.692875
761.000000	74.854223
760.000000	75.012757
759.000000	75.182400
758.000000	75.372212
757.000000	75.587239
756.000000	75.817588
755.000000	76.039145
754.000000	76.232317
753.000000	76.392252
752.000000	76.521480
751.000000	76.626231
750.000000	76.721607
749.000000	76.825167
748.000000	76.939001
747.000000	77.048131
746.000000	77.139220
745.000000	77.209441
744.000000	77.257262
743.000000	77.280755
742.000000	77.289018
741.000000	77.300010
740.000000	77.321347
739.000000	77.345936
738.000000	77.369273
737.000000	77.397034
736.000000	77.433164
735.000000	77.476873
734.000000	77.535673
733.000000	77.623730
732.000000	77.740392
731.000000	77.864932
730.000000	77.979027
729.000000	78.080452
728.000000	78.175214
727.000000	78.273963
726.000000	78.397349
725.000000	78.568022
724.000000	78.788224
723.000000	79.036038
722.000000	79.284902
721.000000	79.512762
720.000000	79.695399
719.000000	79.818485
718.000000	79.904555
717.000000	80.006877
716.000000	80.165550
715.000000	80.380399
714.000000	80.625315
713.000000	80.867329
712.000000	81.069410
711.000000	81.203284
710.000000	81.277588
709.000000	81.338541
708.000000	81.433951
707.000000	81.587731
706.000000	81.802811
705.000000	82.063560
704.000000	82.325811
703.000000	82.527783
702.000000	82.634569
701.000000	82.664114
700.000000	82.664223
699.000000	82.687372
698.000000	82.783178
697.000000	82.980708
696.000000	83.255274
695.000000	83.528193
694.000000	83.723805
693.000000	83.815431
692.000000	83.815005
691.000000	83.758309
690.000000	83.711503
689.000000	83.757559
688.000000	83.936986
687.000000	84.207299
686.000000	84.484663
685.000000	84.698786
684.000000	84.799298
683.000000	84.764688
682.000000	84.640469
681.000000	84.535747
680.000000	84.545604
679.000000	84.690369
678.000000	84.939254
677.000000	85.232707
676.000000	85.473135
675.000000	85.571930
674.000000	85.516686
673.000000	85.384055
672.000000	85.287239
671.000000	85.319149
670.000000	85.540434
669.000000	85.966124
668.000000	86.433466
667.000000	86.671429
666.000000	86.635299
665.000000	86.432861
664.000000	86.166986
663.000000	85.931370
662.000000	85.814752
661.000000	85.870478
660.000000	86.085586
659.000000	86.392663
658.000000	86.693295
657.000000	86.883148
656.000000	86.899430
655.000000	86.772304
654.000000	86.596277
653.000000	86.465321
652.000000	86.452388
651.000000	86.597701
650.000000	86.871359
649.000000	87.166062
648.000000	87.365738
647.000000	87.416844
646.000000	87.333892
645.000000	87.173677
644.000000	87.018477
643.000000	86.955828
642.000000	87.035213
641.000000	87.232229
640.000000	87.468803
639.000000	87.662821
638.000000	87.755335
637.000000	87.723832
636.000000	87.599535
635.000000	87.462097
634.000000	87.393705
633.000000	87.430580
632.000000	87.556369
631.000000	87.726462
630.000000	87.885731
629.000000	87.981364
628.000000	87.987614
627.000000	87.925094
626.000000	87.845455
625.000000	87.799693
624.000000	87.817391
623.000000	87.902286
622.000000	88.030749
621.000000	88.158524
620.000000	88.245029
619.000000	88.274947
618.000000	88.259329
617.000000	88.222292
616.000000	88.191022
615.000000	88.190366
614.000000	88.230217
613.000000	88.297190
612.000000	88.366925
611.000000	88.424134
610.000000	88.467978
609.000000	88.500184
608.000000	88.518454
607.000000	88.523790
606.000000	88.521182
605.000000	88.514821
604.000000	88.505230
603.000000	88.493267
602.000000	88.481900
601.000000	88.468697
600.000000	88.439401
599.000000	88.375099
598.000000	88.259262
597.000000	88.081810
596.000000	87.850718
595.000000	87.605415
594.000000	87.409191
593.000000	87.317144
592.000000	87.353102
591.000000	87.506309
590.000000	87.735334
589.000000	87.979174
588.000000	88.182595
587.000000	88.321694
586.000000	88.407003
585.000000	88.468185
584.000000	88.536588
583.000000	88.637990
582.000000	88.781721
581.000000	88.949826
580.000000	89.102625
579.000000	89.202860
578.000000	89.233546
577.000000	89.201801
576.000000	89.140549
575.000000	89.102343
574.000000	89.131082
573.000000	89.231684
572.000000	89.372504
571.000000	89.508199
570.000000	89.598462
569.000000	89.616853
568.000000	89.562790
567.000000	89.468394
566.000000	89.384017
565.000000	89.349547
564.000000	89.378794
563.000000	89.463997
562.000000	89.576326
561.000000	89.671185
560.000000	89.709820
559.000000	89.682015
558.000000	89.606866
557.000000	89.518626
556.000000	89.455288
555.000000	89.451264
554.000000	89.520882
553.000000	89.643485
552.000000	89.774243
551.000000	89.872229
550.000000	89.917270
549.000000	89.906926
548.000000	89.853184
547.000000	89.785254
546.000000	89.742911
545.000000	89.755283
544.000000	89.828918
543.000000	89.950738
542.000000	90.090461
541.000000	90.204175
540.000000	90.251888
539.000000	90.220431
538.000000	90.128034
537.000000	90.011453
536.000000	89.914877
535.000000	89.885067
534.000000	89.950264
533.000000	90.101237
532.000000	90.286803
531.000000	90.436441
530.000000	90.492137
529.000000	90.426562
528.000000	90.250110
527.000000	90.025641
526.000000	89.859202
525.000000	89.837669
524.000000	89.970279
523.000000	90.186382
522.000000	90.381658
521.000000	90.460764
520.000000	90.364861
519.000000	90.095812
518.000000	89.725825
517.000000	89.370608
516.000000	89.135894
515.000000	89.067072
514.000000	89.127950
513.000000	89.213681
512.000000	89.191275
511.000000	88.959611
510.000000	88.501694
509.000000	87.888330
508.000000	87.234790
507.000000	86.670076
506.000000	86.293083
505.000000	86.110278
504.000000	86.028821
503.000000	85.917993
502.000000	85.685415
501.000000	85.316798
500.000000	84.868450
499.000000	84.446682
498.000000	84.189761
497.000000	84.212462
496.000000	84.536357
495.000000	85.070006
494.000000	85.655572
493.000000	86.135094
492.000000	86.406577
491.000000	86.478672
490.000000	86.471617
489.000000	86.547464
488.000000	86.817773
487.000000	87.303650
486.000000	87.937299
485.000000	88.567795
484.000000	89.004482
483.000000	89.121417
482.000000	88.947326
481.000000	88.638603
480.000000	88.380862
479.000000	88.314571
478.000000	88.489154
477.000000	88.842706
476.000000	89.226494
475.000000	89.475567
474.000000	89.483679
473.000000	89.256393
472.000000	88.932110
471.000000	88.727732
470.000000	88.791358
469.000000	89.131538
468.000000	89.655145
467.000000	90.206287
466.000000	90.602324
465.000000	90.720348
464.000000	90.559020
463.000000	90.241968
462.000000	89.966033
461.000000	89.888723
460.000000	90.055022
459.000000	90.406475
458.000000	90.802283
457.000000	91.072990
456.000000	91.113606
455.000000	90.929066
454.000000	90.616396
453.000000	90.333400
452.000000	90.244433
451.000000	90.421673
450.000000	90.780748
449.000000	91.155600
448.000000	91.402057
447.000000	91.453453
446.000000	91.328271
445.000000	91.116771
444.000000	90.940396
443.000000	90.904994
442.000000	91.054490
441.000000	91.346353
440.000000	91.678048
439.000000	91.931681
438.000000	92.026837
437.000000	91.966248
436.000000	91.834948
435.000000	91.740931
434.000000	91.744446
433.000000	91.844735
432.000000	92.002395
431.000000	92.158926
430.000000	92.273166
429.000000	92.341024
428.000000	92.371534
427.000000	92.366902
426.000000	92.326221
425.000000	92.252113
424.000000	92.154072
423.000000	92.065716
422.000000	92.018750
421.000000	92.000249
420.000000	91.968798
419.000000	91.962890
418.000000	92.094071
417.000000	92.306314
416.000000	92.427684
415.000000	92.381877
414.000000	92.207574
413.000000	92.018153
412.000000	91.938126
411.000000	92.042948
410.000000	92.343509
409.000000	92.740555
408.000000	93.040655
407.000000	93.076099
406.000000	92.829593
405.000000	92.426415
404.000000	92.032931
403.000000	91.798627
402.000000	91.829198
401.000000	92.132841
400.000000	92.533297
