PE IR       SUBTECH     SPECTRUM    ASCII       PEDS        4.00        
   -1
23ms041_nitrito.asc
24/09/03
16:32:41.00
24/09/03
16:32:41.00
Administrator
Sample 1097 By Administrator Date Tuesday, September 03 2024
400.000000
#HDR
-1
-1
#GR
cm-1
%T
1.0
0.0
4000.000000
-1.000000
3601
8
80.435465
2.962354
#DATA
4000.000000	57.055210
3999.000000	57.113544
3998.000000	57.172810
3997.000000	57.233010
3996.000000	57.293292
3995.000000	57.352061
3994.000000	57.408195
3993.000000	57.462352
3992.000000	57.516735
3991.000000	57.573299
3990.000000	57.632043
3989.000000	57.691343
3988.000000	57.749884
3987.000000	57.807653
3986.000000	57.865129
3985.000000	57.922129
3984.000000	57.978127
3983.000000	58.033303
3982.000000	58.088500
3981.000000	58.144277
3980.000000	58.200443
3979.000000	58.256629
3978.000000	58.312982
3977.000000	58.369933
3976.000000	58.427340
3975.000000	58.484208
3974.000000	58.539574
3973.000000	58.593455
3972.000000	58.646635
3971.000000	58.699865
3970.000000	58.753255
3969.000000	58.806017
3968.000000	58.856973
3967.000000	58.905625
3966.000000	58.952817
3965.000000	59.000684
3964.000000	59.051552
3963.000000	59.105983
3962.000000	59.161967
3961.000000	59.216346
3960.000000	59.267301
3959.000000	59.315779
3958.000000	59.364301
3957.000000	59.414237
3956.000000	59.464799
3955.000000	59.514410
3954.000000	59.562249
3953.000000	59.608777
3952.000000	59.655447
3951.000000	59.704439
3950.000000	59.757062
3949.000000	59.811078
3948.000000	59.861968
3947.000000	59.907746
3946.000000	59.952166
3945.000000	60.003051
3944.000000	60.065918
3943.000000	60.137446
3942.000000	60.206759
3941.000000	60.265975
3940.000000	60.317248
3939.000000	60.368178
3938.000000	60.422565
3937.000000	60.477266
3936.000000	60.527769
3935.000000	60.575033
3934.000000	60.625787
3933.000000	60.685407
3932.000000	60.751357
3931.000000	60.815161
3930.000000	60.870092
3929.000000	60.916884
3928.000000	60.962511
3927.000000	61.015157
3926.000000	61.078460
3925.000000	61.147382
3924.000000	61.210199
3923.000000	61.258428
3922.000000	61.294402
3921.000000	61.328196
3920.000000	61.369532
3919.000000	61.422205
3918.000000	61.484162
3917.000000	61.550642
3916.000000	61.616142
3915.000000	61.676860
3914.000000	61.733441
3913.000000	61.790420
3912.000000	61.850759
3911.000000	61.911686
3910.000000	61.967019
3909.000000	62.013432
3908.000000	62.053659
3907.000000	62.093487
3906.000000	62.136193
3905.000000	62.179475
3904.000000	62.216827
3903.000000	62.245344
3902.000000	62.272764
3901.000000	62.311903
3900.000000	62.368821
3899.000000	62.437458
3898.000000	62.505051
3897.000000	62.564776
3896.000000	62.619093
3895.000000	62.675431
3894.000000	62.740633
3893.000000	62.816164
3892.000000	62.893156
3891.000000	62.956854
3890.000000	62.999697
3889.000000	63.027313
3888.000000	63.053669
3887.000000	63.095442
3886.000000	63.158969
3885.000000	63.228379
3884.000000	63.281998
3883.000000	63.320014
3882.000000	63.362743
3881.000000	63.424846
3880.000000	63.496267
3879.000000	63.556564
3878.000000	63.600382
3877.000000	63.638084
3876.000000	63.683039
3875.000000	63.741247
3874.000000	63.803799
3873.000000	63.855201
3872.000000	63.892368
3871.000000	63.929568
3870.000000	63.978837
3869.000000	64.032099
3868.000000	64.075098
3867.000000	64.108409
3866.000000	64.147910
3865.000000	64.208652
3864.000000	64.285210
3863.000000	64.358042
3862.000000	64.418153
3861.000000	64.470681
3860.000000	64.523024
3859.000000	64.580263
3858.000000	64.643707
3857.000000	64.707735
3856.000000	64.761155
3855.000000	64.802167
3854.000000	64.846218
3853.000000	64.895501
3852.000000	64.939923
3851.000000	64.984505
3850.000000	65.036505
3849.000000	65.095911
3848.000000	65.160031
3847.000000	65.226009
3846.000000	65.293103
3845.000000	65.361353
3844.000000	65.427340
3843.000000	65.486931
3842.000000	65.539720
3841.000000	65.589132
3840.000000	65.639243
3839.000000	65.690574
3838.000000	65.739569
3837.000000	65.785747
3836.000000	65.833911
3835.000000	65.888706
3834.000000	65.950869
3833.000000	66.018827
3832.000000	66.090517
3831.000000	66.162258
3830.000000	66.230143
3829.000000	66.294615
3828.000000	66.359746
3827.000000	66.427645
3826.000000	66.493154
3825.000000	66.546879
3824.000000	66.584992
3823.000000	66.619137
3822.000000	66.670054
3821.000000	66.738635
3820.000000	66.801730
3819.000000	66.848569
3818.000000	66.890249
3817.000000	66.943352
3816.000000	67.016736
3815.000000	67.102273
3814.000000	67.185038
3813.000000	67.258270
3812.000000	67.324276
3811.000000	67.386779
3810.000000	67.446628
3809.000000	67.503781
3808.000000	67.560917
3807.000000	67.619612
3806.000000	67.674709
3805.000000	67.719820
3804.000000	67.756261
3803.000000	67.796057
3802.000000	67.851889
3801.000000	67.918803
3800.000000	67.982242
3799.000000	68.041537
3798.000000	68.105796
3797.000000	68.179409
3796.000000	68.257770
3795.000000	68.333893
3794.000000	68.406593
3793.000000	68.480018
3792.000000	68.557608
3791.000000	68.638150
3790.000000	68.716625
3789.000000	68.788879
3788.000000	68.855167
3787.000000	68.918305
3786.000000	68.979385
3785.000000	69.035952
3784.000000	69.085559
3783.000000	69.130179
3782.000000	69.177081
3781.000000	69.235400
3780.000000	69.308075
3779.000000	69.385652
3778.000000	69.454927
3777.000000	69.512329
3776.000000	69.563482
3775.000000	69.615175
3774.000000	69.669812
3773.000000	69.725504
3772.000000	69.780854
3771.000000	69.838104
3770.000000	69.897012
3769.000000	69.951830
3768.000000	70.001273
3767.000000	70.053629
3766.000000	70.117109
3765.000000	70.189757
3764.000000	70.260848
3763.000000	70.321563
3762.000000	70.373107
3761.000000	70.425862
3760.000000	70.487744
3759.000000	70.552987
3758.000000	70.611784
3757.000000	70.664694
3756.000000	70.716741
3755.000000	70.767109
3754.000000	70.811929
3753.000000	70.852717
3752.000000	70.894304
3751.000000	70.932256
3750.000000	70.960216
3749.000000	70.990406
3748.000000	71.037140
3747.000000	71.095830
3746.000000	71.157670
3745.000000	71.229560
3744.000000	71.319103
3743.000000	71.418836
3742.000000	71.517062
3741.000000	71.604707
3740.000000	71.676069
3739.000000	71.729058
3738.000000	71.770808
3737.000000	71.823266
3736.000000	71.906313
3735.000000	72.009334
3734.000000	72.100697
3733.000000	72.168640
3732.000000	72.229226
3731.000000	72.300036
3730.000000	72.382508
3729.000000	72.467032
3728.000000	72.548933
3727.000000	72.632547
3726.000000	72.718783
3725.000000	72.799306
3724.000000	72.869450
3723.000000	72.936368
3722.000000	73.008620
3721.000000	73.087571
3720.000000	73.170550
3719.000000	73.253905
3718.000000	73.333172
3717.000000	73.404146
3716.000000	73.462421
3715.000000	73.504849
3714.000000	73.534578
3713.000000	73.564325
3712.000000	73.610022
3711.000000	73.675309
3710.000000	73.754146
3709.000000	73.841126
3708.000000	73.931327
3707.000000	74.020130
3706.000000	74.102459
3705.000000	74.175875
3704.000000	74.243729
3703.000000	74.315090
3702.000000	74.394448
3701.000000	74.476041
3700.000000	74.552841
3699.000000	74.624249
3698.000000	74.692080
3697.000000	74.757108
3696.000000	74.817654
3695.000000	74.869712
3694.000000	74.913133
3693.000000	74.955578
3692.000000	75.008138
3691.000000	75.072017
3690.000000	75.132772
3689.000000	75.174123
3688.000000	75.202885
3687.000000	75.244176
3686.000000	75.308537
3685.000000	75.385688
3684.000000	75.460921
3683.000000	75.526154
3682.000000	75.579836
3681.000000	75.624370
3680.000000	75.662761
3679.000000	75.692400
3678.000000	75.703066
3677.000000	75.694489
3676.000000	75.690029
3675.000000	75.707477
3674.000000	75.741366
3673.000000	75.777414
3672.000000	75.801537
3671.000000	75.818840
3670.000000	75.850402
3669.000000	75.900803
3668.000000	75.963446
3667.000000	76.035819
3666.000000	76.110378
3665.000000	76.176644
3664.000000	76.229924
3663.000000	76.271715
3662.000000	76.305468
3661.000000	76.331340
3660.000000	76.344558
3659.000000	76.338480
3658.000000	76.310426
3657.000000	76.267513
3656.000000	76.223636
3655.000000	76.189697
3654.000000	76.164746
3653.000000	76.135569
3652.000000	76.089083
3651.000000	76.025286
3650.000000	75.952918
3649.000000	75.877764
3648.000000	75.814883
3647.000000	75.784278
3646.000000	75.784691
3645.000000	75.796313
3644.000000	75.804507
3643.000000	75.807060
3642.000000	75.806184
3641.000000	75.799770
3640.000000	75.782663
3639.000000	75.753482
3638.000000	75.712515
3637.000000	75.657420
3636.000000	75.586157
3635.000000	75.505314
3634.000000	75.427845
3633.000000	75.357640
3632.000000	75.280951
3631.000000	75.177583
3630.000000	75.047677
3629.000000	74.917756
3628.000000	74.812807
3627.000000	74.746419
3626.000000	74.715310
3625.000000	74.698696
3624.000000	74.677670
3623.000000	74.644214
3622.000000	74.592745
3621.000000	74.518266
3620.000000	74.422798
3619.000000	74.316240
3618.000000	74.211207
3617.000000	74.119018
3616.000000	74.041410
3615.000000	73.971775
3614.000000	73.902308
3613.000000	73.826131
3612.000000	73.739651
3611.000000	73.645152
3610.000000	73.550243
3609.000000	73.467275
3608.000000	73.406379
3607.000000	73.366783
3606.000000	73.338755
3605.000000	73.310641
3604.000000	73.273717
3603.000000	73.225113
3602.000000	73.164186
3601.000000	73.091163
3600.000000	73.008854
3599.000000	72.921638
3598.000000	72.833490
3597.000000	72.747491
3596.000000	72.666070
3595.000000	72.589937
3594.000000	72.516165
3593.000000	72.439058
3592.000000	72.355177
3591.000000	72.262843
3590.000000	72.163649
3589.000000	72.067438
3588.000000	71.987609
3587.000000	71.924787
3586.000000	71.868633
3585.000000	71.812841
3584.000000	71.756294
3583.000000	71.698296
3582.000000	71.636919
3581.000000	71.570510
3580.000000	71.499832
3579.000000	71.427045
3578.000000	71.352411
3577.000000	71.273606
3576.000000	71.190030
3575.000000	71.103760
3574.000000	71.017944
3573.000000	70.933875
3572.000000	70.850914
3571.000000	70.764477
3570.000000	70.666066
3569.000000	70.552146
3568.000000	70.432194
3567.000000	70.319953
3566.000000	70.220758
3565.000000	70.136216
3564.000000	70.067501
3563.000000	70.011939
3562.000000	69.961547
3561.000000	69.906088
3560.000000	69.838743
3559.000000	69.758471
3558.000000	69.667887
3557.000000	69.570607
3556.000000	69.471671
3555.000000	69.375986
3554.000000	69.284696
3553.000000	69.194201
3552.000000	69.100102
3551.000000	69.001259
3550.000000	68.899069
3549.000000	68.796286
3548.000000	68.697770
3547.000000	68.607830
3546.000000	68.524402
3545.000000	68.440230
3544.000000	68.351064
3543.000000	68.258039
3542.000000	68.163184
3541.000000	68.067518
3540.000000	67.974007
3539.000000	67.886678
3538.000000	67.805531
3537.000000	67.725359
3536.000000	67.640705
3535.000000	67.550780
3534.000000	67.457415
3533.000000	67.362190
3532.000000	67.266125
3531.000000	67.170259
3530.000000	67.074638
3529.000000	66.979600
3528.000000	66.888593
3527.000000	66.806413
3526.000000	66.733329
3525.000000	66.663070
3524.000000	66.587630
3523.000000	66.502278
3522.000000	66.407614
3521.000000	66.309276
3520.000000	66.215360
3519.000000	66.131075
3518.000000	66.054958
3517.000000	65.981605
3516.000000	65.906705
3515.000000	65.827822
3514.000000	65.741685
3513.000000	65.645373
3512.000000	65.540699
3511.000000	65.433785
3510.000000	65.328888
3509.000000	65.226155
3508.000000	65.125218
3507.000000	65.027047
3506.000000	64.931129
3505.000000	64.834607
3504.000000	64.734881
3503.000000	64.630896
3502.000000	64.522939
3501.000000	64.413155
3500.000000	64.305195
3499.000000	64.200027
3498.000000	64.093151
3497.000000	63.978609
3496.000000	63.855604
3495.000000	63.728892
3494.000000	63.603254
3493.000000	63.480485
3492.000000	63.361113
3491.000000	63.244776
3490.000000	63.128146
3489.000000	63.006117
3488.000000	62.876096
3487.000000	62.739044
3486.000000	62.597157
3485.000000	62.453677
3484.000000	62.313974
3483.000000	62.182622
3482.000000	62.057765
3481.000000	61.931565
3480.000000	61.797058
3479.000000	61.652772
3478.000000	61.501443
3477.000000	61.347560
3476.000000	61.195971
3475.000000	61.049230
3474.000000	60.906303
3473.000000	60.765509
3472.000000	60.627246
3471.000000	60.491246
3470.000000	60.352739
3469.000000	60.205136
3468.000000	60.046359
3467.000000	59.879472
3466.000000	59.708272
3465.000000	59.535438
3464.000000	59.363753
3463.000000	59.194869
3462.000000	59.026644
3461.000000	58.855351
3460.000000	58.680669
3459.000000	58.505777
3458.000000	58.333122
3457.000000	58.162551
3456.000000	57.992705
3455.000000	57.821327
3454.000000	57.644716
3453.000000	57.460645
3452.000000	57.271513
3451.000000	57.082137
3450.000000	56.894611
3449.000000	56.707530
3448.000000	56.519157
3447.000000	56.328438
3446.000000	56.134028
3445.000000	55.935219
3444.000000	55.733150
3443.000000	55.529450
3442.000000	55.324922
3441.000000	55.121133
3440.000000	54.921209
3439.000000	54.726004
3438.000000	54.530493
3437.000000	54.326751
3436.000000	54.110160
3435.000000	53.881305
3434.000000	53.643545
3433.000000	53.401837
3432.000000	53.161085
3431.000000	52.922320
3430.000000	52.681050
3429.000000	52.431839
3428.000000	52.173977
3427.000000	51.910307
3426.000000	51.643181
3425.000000	51.374225
3424.000000	51.105679
3423.000000	50.838279
3422.000000	50.568468
3421.000000	50.291065
3420.000000	50.004135
3419.000000	49.709054
3418.000000	49.407643
3417.000000	49.101865
3416.000000	48.794642
3415.000000	48.487540
3414.000000	48.178245
3413.000000	47.863148
3412.000000	47.540775
3411.000000	47.210661
3410.000000	46.870800
3409.000000	46.519271
3408.000000	46.157803
3407.000000	45.790783
3406.000000	45.421977
3405.000000	45.053800
3404.000000	44.687083
3403.000000	44.318939
3402.000000	43.942165
3401.000000	43.550016
3400.000000	43.141157
3399.000000	42.718716
3398.000000	42.287060
3397.000000	41.851158
3396.000000	41.415800
3395.000000	40.981958
3394.000000	40.544654
3393.000000	40.097135
3392.000000	39.636461
3391.000000	39.163760
3390.000000	38.682190
3389.000000	38.195975
3388.000000	37.708884
3387.000000	37.220788
3386.000000	36.727287
3385.000000	36.225111
3384.000000	35.715088
3383.000000	35.199079
3382.000000	34.677084
3381.000000	34.149444
3380.000000	33.618845
3379.000000	33.087178
3378.000000	32.552930
3377.000000	32.013787
3376.000000	31.469288
3375.000000	30.919553
3374.000000	30.364231
3373.000000	29.804634
3372.000000	29.244341
3371.000000	28.685318
3370.000000	28.126275
3369.000000	27.565681
3368.000000	27.003510
3367.000000	26.439084
3366.000000	25.870901
3365.000000	25.300286
3364.000000	24.731622
3363.000000	24.167436
3362.000000	23.606656
3361.000000	23.048744
3360.000000	22.495554
3359.000000	21.947596
3358.000000	21.402501
3357.000000	20.859014
3356.000000	20.319082
3355.000000	19.784313
3354.000000	19.254202
3353.000000	18.729178
3352.000000	18.211635
3351.000000	17.702697
3350.000000	17.201164
3349.000000	16.706619
3348.000000	16.220320
3347.000000	15.741872
3346.000000	15.269493
3345.000000	14.804083
3344.000000	14.349010
3343.000000	13.905272
3342.000000	13.470410
3341.000000	13.043350
3340.000000	12.626021
3339.000000	12.219405
3338.000000	11.822596
3337.000000	11.436060
3336.000000	11.062118
3335.000000	10.701038
3334.000000	10.350361
3333.000000	10.009147
3332.000000	9.678280
3331.000000	9.356932
3330.000000	9.042843
3329.000000	8.736240
3328.000000	8.440190
3327.000000	8.155966
3326.000000	7.882618
3325.000000	7.620765
3324.000000	7.371959
3323.000000	7.134788
3322.000000	6.905554
3321.000000	6.683277
3320.000000	6.470228
3319.000000	6.266789
3318.000000	6.071283
3317.000000	5.883868
3316.000000	5.706422
3315.000000	5.538361
3314.000000	5.376521
3313.000000	5.219763
3312.000000	5.069345
3311.000000	4.924868
3310.000000	4.784664
3309.000000	4.649642
3308.000000	4.523041
3307.000000	4.406223
3306.000000	4.298551
3305.000000	4.201057
3304.000000	4.114779
3303.000000	4.036546
3302.000000	3.960797
3301.000000	3.885536
3300.000000	3.812657
3299.000000	3.742797
3298.000000	3.674757
3297.000000	3.609485
3296.000000	3.549525
3295.000000	3.494847
3294.000000	3.443488
3293.000000	3.396257
3292.000000	3.356263
3291.000000	3.323368
3290.000000	3.293990
3289.000000	3.265940
3288.000000	3.239611
3287.000000	3.214771
3286.000000	3.190252
3285.000000	3.167026
3284.000000	3.147163
3283.000000	3.130164
3282.000000	3.114008
3281.000000	3.099043
3280.000000	3.087000
3279.000000	3.076786
3278.000000	3.065695
3277.000000	3.054184
3276.000000	3.045040
3275.000000	3.038381
3274.000000	3.031720
3273.000000	3.024823
3272.000000	3.020336
3271.000000	3.019743
3270.000000	3.022503
3269.000000	3.028478
3268.000000	3.037335
3267.000000	3.046362
3266.000000	3.052782
3265.000000	3.057685
3264.000000	3.064066
3263.000000	3.071779
3262.000000	3.078474
3261.000000	3.084205
3260.000000	3.090882
3259.000000	3.098122
3258.000000	3.103961
3257.000000	3.109231
3256.000000	3.116826
3255.000000	3.127203
3254.000000	3.138357
3253.000000	3.149633
3252.000000	3.161551
3251.000000	3.172665
3250.000000	3.180782
3249.000000	3.186988
3248.000000	3.194748
3247.000000	3.205360
3246.000000	3.217629
3245.000000	3.230951
3244.000000	3.245246
3243.000000	3.258756
3242.000000	3.269788
3241.000000	3.279785
3240.000000	3.291290
3239.000000	3.303739
3238.000000	3.314695
3237.000000	3.323895
3236.000000	3.332714
3235.000000	3.341119
3234.000000	3.348899
3233.000000	3.358389
3232.000000	3.371838
3231.000000	3.387255
3230.000000	3.400772
3229.000000	3.411980
3228.000000	3.423054
3227.000000	3.434080
3226.000000	3.443281
3225.000000	3.450853
3224.000000	3.458402
3223.000000	3.465595
3222.000000	3.471108
3221.000000	3.475949
3220.000000	3.482076
3219.000000	3.488721
3218.000000	3.493733
3217.000000	3.497377
3216.000000	3.501205
3215.000000	3.504539
3214.000000	3.505777
3213.000000	3.505964
3212.000000	3.507206
3211.000000	3.508805
3210.000000	3.508634
3209.000000	3.506986
3208.000000	3.505400
3207.000000	3.503102
3206.000000	3.498381
3205.000000	3.492226
3204.000000	3.486683
3203.000000	3.481029
3202.000000	3.473343
3201.000000	3.464430
3200.000000	3.456353
3199.000000	3.448282
3198.000000	3.437838
3197.000000	3.425366
3196.000000	3.413112
3195.000000	3.401284
3194.000000	3.388613
3193.000000	3.375522
3192.000000	3.363127
3191.000000	3.350288
3190.000000	3.335348
3189.000000	3.319491
3188.000000	3.304893
3187.000000	3.290933
3186.000000	3.275780
3185.000000	3.260187
3184.000000	3.245994
3183.000000	3.232380
3182.000000	3.217313
3181.000000	3.201338
3180.000000	3.186264
3179.000000	3.171607
3178.000000	3.156001
3177.000000	3.140659
3176.000000	3.127664
3175.000000	3.116151
3174.000000	3.103833
3173.000000	3.090911
3172.000000	3.078971
3171.000000	3.067598
3170.000000	3.055644
3169.000000	3.044293
3168.000000	3.035260
3167.000000	3.027402
3166.000000	3.018715
3165.000000	3.010070
3164.000000	3.003409
3163.000000	2.997947
3162.000000	2.991773
3161.000000	2.985662
3160.000000	2.981575
3159.000000	2.978938
3158.000000	2.975977
3157.000000	2.973041
3156.000000	2.971090
3155.000000	2.968782
3154.000000	2.964939
3153.000000	2.962354
3152.000000	2.964967
3151.000000	2.972610
3150.000000	2.981976
3149.000000	2.991416
3148.000000	3.001175
3147.000000	3.010509
3146.000000	3.018465
3145.000000	3.026363
3144.000000	3.035885
3143.000000	3.045960
3142.000000	3.054808
3141.000000	3.063778
3140.000000	3.075803
3139.000000	3.091316
3138.000000	3.108900
3137.000000	3.128381
3136.000000	3.149990
3135.000000	3.172046
3134.000000	3.192666
3133.000000	3.212687
3132.000000	3.233903
3131.000000	3.256086
3130.000000	3.278612
3129.000000	3.302965
3128.000000	3.330504
3127.000000	3.359519
3126.000000	3.387602
3125.000000	3.415008
3124.000000	3.442665
3123.000000	3.469246
3122.000000	3.493727
3121.000000	3.518721
3120.000000	3.547570
3119.000000	3.579831
3118.000000	3.613267
3117.000000	3.648372
3116.000000	3.687213
3115.000000	3.729402
3114.000000	3.772592
3113.000000	3.815636
3112.000000	3.858061
3111.000000	3.898410
3110.000000	3.936487
3109.000000	3.975558
3108.000000	4.018950
3107.000000	4.065861
3106.000000	4.113416
3105.000000	4.160916
3104.000000	4.208921
3103.000000	4.256351
3102.000000	4.302174
3101.000000	4.348299
3100.000000	4.397420
3099.000000	4.449213
3098.000000	4.501819
3097.000000	4.555273
3096.000000	4.610253
3095.000000	4.665220
3094.000000	4.718105
3093.000000	4.769572
3092.000000	4.821755
3091.000000	4.875273
3090.000000	4.930084
3089.000000	4.987246
3088.000000	5.046918
3087.000000	5.106591
3086.000000	5.164348
3085.000000	5.222062
3084.000000	5.282401
3083.000000	5.344593
3082.000000	5.406355
3081.000000	5.467969
3080.000000	5.531386
3079.000000	5.597000
3078.000000	5.664444
3077.000000	5.734687
3076.000000	5.808046
3075.000000	5.881863
3074.000000	5.953317
3073.000000	6.023013
3072.000000	6.092964
3071.000000	6.162817
3070.000000	6.231253
3069.000000	6.299455
3068.000000	6.369923
3067.000000	6.443133
3066.000000	6.518066
3065.000000	6.594658
3064.000000	6.672965
3063.000000	6.751439
3062.000000	6.828736
3061.000000	6.905747
3060.000000	6.983510
3059.000000	7.060925
3058.000000	7.136934
3057.000000	7.213076
3056.000000	7.291185
3055.000000	7.370421
3054.000000	7.449217
3053.000000	7.528309
3052.000000	7.609220
3051.000000	7.691461
3050.000000	7.773749
3049.000000	7.856073
3048.000000	7.938191
3047.000000	8.018214
3046.000000	8.095398
3045.000000	8.172340
3044.000000	8.251870
3043.000000	8.333763
3042.000000	8.416992
3041.000000	8.502640
3040.000000	8.591406
3039.000000	8.680414
3038.000000	8.765944
3037.000000	8.847898
3036.000000	8.928922
3035.000000	9.010751
3034.000000	9.094081
3033.000000	9.180030
3032.000000	9.268601
3031.000000	9.357229
3030.000000	9.443676
3029.000000	9.528835
3028.000000	9.614338
3027.000000	9.699420
3026.000000	9.782951
3025.000000	9.866415
3024.000000	9.951732
3023.000000	10.037780
3022.000000	10.122191
3021.000000	10.205155
3020.000000	10.288519
3019.000000	10.372424
3018.000000	10.455679
3017.000000	10.538271
3016.000000	10.620927
3015.000000	10.703451
3014.000000	10.785921
3013.000000	10.870297
3012.000000	10.958389
3011.000000	11.049498
3010.000000	11.141860
3009.000000	11.234840
3008.000000	11.327686
3007.000000	11.418270
3006.000000	11.505513
3005.000000	11.591381
3004.000000	11.678169
3003.000000	11.765347
3002.000000	11.851270
3001.000000	11.936087
3000.000000	12.020827
2999.000000	12.105463
2998.000000	12.190159
2997.000000	12.276369
2996.000000	12.364339
2995.000000	12.451591
2994.000000	12.536522
2993.000000	12.621537
2992.000000	12.709818
2991.000000	12.800840
2990.000000	12.891819
2989.000000	12.981859
2988.000000	13.071695
2987.000000	13.160956
2986.000000	13.248659
2985.000000	13.335264
2984.000000	13.421627
2983.000000	13.507171
2982.000000	13.591574
2981.000000	13.676908
2980.000000	13.765415
2979.000000	13.856188
2978.000000	13.946533
2977.000000	14.035545
2976.000000	14.124224
2975.000000	14.213282
2974.000000	14.303092
2973.000000	14.394455
2972.000000	14.487189
2971.000000	14.579196
2970.000000	14.669022
2969.000000	14.758048
2968.000000	14.848070
2967.000000	14.938342
2966.000000	15.027182
2965.000000	15.114940
2964.000000	15.202966
2963.000000	15.291180
2962.000000	15.379063
2961.000000	15.467482
2960.000000	15.557107
2959.000000	15.646553
2958.000000	15.734240
2957.000000	15.820439
2956.000000	15.905402
2955.000000	15.987747
2954.000000	16.067335
2953.000000	16.147561
2952.000000	16.231725
2951.000000	16.318608
2950.000000	16.404519
2949.000000	16.488075
2948.000000	16.570369
2947.000000	16.652036
2946.000000	16.733247
2945.000000	16.815446
2944.000000	16.900171
2943.000000	16.986806
2942.000000	17.073716
2941.000000	17.160592
2940.000000	17.247535
2939.000000	17.333217
2938.000000	17.416282
2937.000000	17.497449
2936.000000	17.578061
2935.000000	17.657861
2934.000000	17.736461
2933.000000	17.815419
2932.000000	17.896329
2931.000000	17.978180
2930.000000	18.059013
2929.000000	18.138881
2928.000000	18.218728
2927.000000	18.298000
2926.000000	18.376005
2925.000000	18.454117
2924.000000	18.533861
2923.000000	18.614121
2922.000000	18.692944
2921.000000	18.770688
2920.000000	18.848803
2919.000000	18.926970
2918.000000	19.004143
2917.000000	19.081153
2916.000000	19.159462
2915.000000	19.238317
2914.000000	19.315546
2913.000000	19.390328
2912.000000	19.463018
2911.000000	19.533383
2910.000000	19.601322
2909.000000	19.668620
2908.000000	19.737718
2907.000000	19.809237
2906.000000	19.882146
2905.000000	19.955400
2904.000000	20.027760
2903.000000	20.097284
2902.000000	20.163102
2901.000000	20.227203
2900.000000	20.292246
2899.000000	20.359059
2898.000000	20.426970
2897.000000	20.495312
2896.000000	20.562942
2895.000000	20.627681
2894.000000	20.688346
2893.000000	20.746398
2892.000000	20.804002
2891.000000	20.861657
2890.000000	20.919177
2889.000000	20.977354
2888.000000	21.036563
2887.000000	21.094940
2886.000000	21.150056
2885.000000	21.201481
2884.000000	21.249997
2883.000000	21.295626
2882.000000	21.338351
2881.000000	21.379612
2880.000000	21.420912
2879.000000	21.461766
2878.000000	21.500921
2877.000000	21.538620
2876.000000	21.575841
2875.000000	21.612243
2874.000000	21.647081
2873.000000	21.681375
2872.000000	21.717425
2871.000000	21.756792
2870.000000	21.800254
2869.000000	21.848647
2868.000000	21.901980
2867.000000	21.958830
2866.000000	22.018510
2865.000000	22.082828
2864.000000	22.154058
2863.000000	22.232036
2862.000000	22.314879
2861.000000	22.401174
2860.000000	22.489682
2859.000000	22.578178
2858.000000	22.664981
2857.000000	22.750960
2856.000000	22.838257
2855.000000	22.927772
2854.000000	23.019219
2853.000000	23.112296
2852.000000	23.205958
2851.000000	23.297587
2850.000000	23.384907
2849.000000	23.468071
2848.000000	23.548650
2847.000000	23.627698
2846.000000	23.706235
2845.000000	23.786077
2844.000000	23.868103
2843.000000	23.950508
2842.000000	24.030531
2841.000000	24.107173
2840.000000	24.180953
2839.000000	24.252348
2838.000000	24.322188
2837.000000	24.392477
2836.000000	24.464677
2835.000000	24.537732
2834.000000	24.609289
2833.000000	24.678244
2832.000000	24.744764
2831.000000	24.808995
2830.000000	24.871585
2829.000000	24.934650
2828.000000	25.000261
2827.000000	25.068271
2826.000000	25.136861
2825.000000	25.204439
2824.000000	25.269798
2823.000000	25.331673
2822.000000	25.390079
2821.000000	25.447472
2820.000000	25.506823
2819.000000	25.568905
2818.000000	25.632578
2817.000000	25.696730
2816.000000	25.760314
2815.000000	25.821526
2814.000000	25.879052
2813.000000	25.933928
2812.000000	25.988702
2811.000000	26.045248
2810.000000	26.104425
2809.000000	26.166777
2808.000000	26.231611
2807.000000	26.296129
2806.000000	26.357339
2805.000000	26.414837
2804.000000	26.470502
2803.000000	26.526201
2802.000000	26.583071
2801.000000	26.642043
2800.000000	26.703129
2799.000000	26.764569
2798.000000	26.824182
2797.000000	26.881335
2796.000000	26.936582
2795.000000	26.990328
2794.000000	27.043323
2793.000000	27.097473
2792.000000	27.154221
2791.000000	27.212437
2790.000000	27.269496
2789.000000	27.324010
2788.000000	27.376232
2787.000000	27.426627
2786.000000	27.475910
2785.000000	27.525958
2784.000000	27.578673
2783.000000	27.633802
2782.000000	27.689097
2781.000000	27.742404
2780.000000	27.792430
2779.000000	27.838279
2778.000000	27.880197
2777.000000	27.920693
2776.000000	27.963383
2775.000000	28.010373
2774.000000	28.061370
2773.000000	28.114562
2772.000000	28.167197
2771.000000	28.216085
2770.000000	28.259480
2769.000000	28.298648
2768.000000	28.336804
2767.000000	28.376721
2766.000000	28.419908
2765.000000	28.466764
2764.000000	28.515869
2763.000000	28.563849
2762.000000	28.607751
2761.000000	28.647565
2760.000000	28.685532
2759.000000	28.723660
2758.000000	28.763091
2757.000000	28.804759
2756.000000	28.848733
2755.000000	28.893096
2754.000000	28.935070
2753.000000	28.973358
2752.000000	29.008600
2751.000000	29.042267
2750.000000	29.076388
2749.000000	29.113415
2748.000000	29.154471
2747.000000	29.197732
2746.000000	29.239774
2745.000000	29.278277
2744.000000	29.312671
2743.000000	29.343410
2742.000000	29.372355
2741.000000	29.403037
2740.000000	29.438426
2739.000000	29.478254
2738.000000	29.519624
2737.000000	29.559713
2736.000000	29.596723
2735.000000	29.629364
2734.000000	29.657665
2733.000000	29.684197
2732.000000	29.712625
2731.000000	29.744781
2730.000000	29.780053
2729.000000	29.816970
2728.000000	29.853804
2727.000000	29.888134
2726.000000	29.917994
2725.000000	29.943979
2724.000000	29.969059
2723.000000	29.996183
2722.000000	30.026781
2721.000000	30.060800
2720.000000	30.096622
2719.000000	30.131260
2718.000000	30.162253
2717.000000	30.189657
2716.000000	30.215406
2715.000000	30.241284
2714.000000	30.268556
2713.000000	30.298512
2712.000000	30.331316
2711.000000	30.364450
2710.000000	30.394102
2709.000000	30.418311
2708.000000	30.437925
2707.000000	30.455156
2706.000000	30.472587
2705.000000	30.492885
2704.000000	30.517216
2703.000000	30.543546
2702.000000	30.567787
2701.000000	30.586791
2700.000000	30.599658
2699.000000	30.607115
2698.000000	30.611402
2697.000000	30.616409
2696.000000	30.625567
2695.000000	30.639002
2694.000000	30.653592
2693.000000	30.665694
2692.000000	30.673037
2691.000000	30.674814
2690.000000	30.672041
2689.000000	30.667927
2688.000000	30.666148
2687.000000	30.668173
2686.000000	30.672890
2685.000000	30.678359
2684.000000	30.682732
2683.000000	30.683990
2682.000000	30.680851
2681.000000	30.674325
2680.000000	30.667272
2679.000000	30.662298
2678.000000	30.660713
2677.000000	30.662731
2676.000000	30.667126
2675.000000	30.671063
2674.000000	30.671984
2673.000000	30.670115
2672.000000	30.668351
2671.000000	30.670254
2670.000000	30.678950
2669.000000	30.696694
2668.000000	30.723583
2667.000000	30.756563
2666.000000	30.791512
2665.000000	30.826581
2664.000000	30.862628
2663.000000	30.901551
2662.000000	30.945385
2661.000000	30.996420
2660.000000	31.055921
2659.000000	31.122034
2658.000000	31.190460
2657.000000	31.257269
2656.000000	31.320496
2655.000000	31.379932
2654.000000	31.437104
2653.000000	31.495397
2652.000000	31.558107
2651.000000	31.625526
2650.000000	31.694617
2649.000000	31.761447
2648.000000	31.823121
2647.000000	31.878200
2646.000000	31.927267
2645.000000	31.973375
2644.000000	32.020496
2643.000000	32.070668
2642.000000	32.123105
2641.000000	32.175570
2640.000000	32.225327
2639.000000	32.269518
2638.000000	32.306563
2637.000000	32.337928
2636.000000	32.367547
2635.000000	32.398936
2634.000000	32.433469
2633.000000	32.470648
2632.000000	32.508467
2631.000000	32.543617
2630.000000	32.573003
2629.000000	32.596077
2628.000000	32.615065
2627.000000	32.632952
2626.000000	32.652089
2625.000000	32.674065
2624.000000	32.699195
2623.000000	32.725553
2622.000000	32.749675
2621.000000	32.768965
2620.000000	32.783125
2619.000000	32.793838
2618.000000	32.804088
2617.000000	32.817238
2616.000000	32.835037
2615.000000	32.855927
2614.000000	32.876119
2613.000000	32.892420
2612.000000	32.903526
2611.000000	32.909580
2610.000000	32.912029
2609.000000	32.913672
2608.000000	32.917102
2607.000000	32.922352
2606.000000	32.926993
2605.000000	32.928081
2604.000000	32.923306
2603.000000	32.911113
2602.000000	32.891559
2601.000000	32.867547
2600.000000	32.843545
2599.000000	32.822565
2598.000000	32.804997
2597.000000	32.789729
2596.000000	32.775198
2595.000000	32.759824
2594.000000	32.743461
2593.000000	32.728904
2592.000000	32.721185
2591.000000	32.724796
2590.000000	32.742207
2589.000000	32.774197
2588.000000	32.819274
2587.000000	32.873600
2586.000000	32.932721
2585.000000	32.994468
2584.000000	33.059865
2583.000000	33.130998
2582.000000	33.209704
2581.000000	33.297037
2580.000000	33.392287
2579.000000	33.492235
2578.000000	33.592293
2577.000000	33.689386
2576.000000	33.783107
2575.000000	33.874774
2574.000000	33.966642
2573.000000	34.061431
2572.000000	34.160846
2571.000000	34.263773
2570.000000	34.366765
2569.000000	34.466546
2568.000000	34.561521
2567.000000	34.651580
2566.000000	34.738100
2565.000000	34.824197
2564.000000	34.913160
2563.000000	35.005831
2562.000000	35.100073
2561.000000	35.192766
2560.000000	35.281425
2559.000000	35.364291
2558.000000	35.441033
2557.000000	35.513923
2556.000000	35.586892
2555.000000	35.662573
2554.000000	35.740768
2553.000000	35.819732
2552.000000	35.897406
2551.000000	35.971255
2550.000000	36.039011
2549.000000	36.100667
2548.000000	36.159008
2547.000000	36.217405
2546.000000	36.277571
2545.000000	36.339463
2544.000000	36.401443
2543.000000	36.460155
2542.000000	36.511782
2541.000000	36.554609
2540.000000	36.590174
2539.000000	36.621232
2538.000000	36.649746
2537.000000	36.676674
2536.000000	36.701532
2535.000000	36.721689
2534.000000	36.732787
2533.000000	36.731445
2532.000000	36.717261
2531.000000	36.691821
2530.000000	36.657817
2529.000000	36.618803
2528.000000	36.578213
2527.000000	36.537460
2526.000000	36.495512
2525.000000	36.451554
2524.000000	36.406862
2523.000000	36.364252
2522.000000	36.327119
2521.000000	36.299880
2520.000000	36.287192
2519.000000	36.291603
2518.000000	36.312462
2517.000000	36.346914
2516.000000	36.391981
2515.000000	36.444651
2514.000000	36.502368
2513.000000	36.564585
2512.000000	36.632422
2511.000000	36.706857
2510.000000	36.787016
2509.000000	36.870685
2508.000000	36.955394
2507.000000	37.038406
2506.000000	37.117395
2505.000000	37.191901
2504.000000	37.263544
2503.000000	37.334119
2502.000000	37.404246
2501.000000	37.473774
2500.000000	37.542090
2499.000000	37.607429
2498.000000	37.667162
2497.000000	37.720238
2496.000000	37.768349
2495.000000	37.814364
2494.000000	37.860432
2493.000000	37.907651
2492.000000	37.956166
2491.000000	38.004369
2490.000000	38.049257
2489.000000	38.088747
2488.000000	38.122932
2487.000000	38.153117
2486.000000	38.180830
2485.000000	38.208297
2484.000000	38.238143
2483.000000	38.271150
2482.000000	38.305408
2481.000000	38.338291
2480.000000	38.368374
2479.000000	38.395038
2478.000000	38.417879
2477.000000	38.437819
2476.000000	38.457447
2475.000000	38.478850
2474.000000	38.501948
2473.000000	38.525617
2472.000000	38.549247
2471.000000	38.572283
2470.000000	38.593595
2469.000000	38.612756
2468.000000	38.631040
2467.000000	38.650068
2466.000000	38.670173
2465.000000	38.690799
2464.000000	38.711501
2463.000000	38.731631
2462.000000	38.750227
2461.000000	38.767318
2460.000000	38.784507
2459.000000	38.803341
2458.000000	38.823953
2457.000000	38.845803
2456.000000	38.868563
2455.000000	38.891370
2454.000000	38.912498
2453.000000	38.930910
2452.000000	38.947386
2451.000000	38.963440
2450.000000	38.980209
2449.000000	38.998964
2448.000000	39.021162
2447.000000	39.046703
2446.000000	39.073188
2445.000000	39.098017
2444.000000	39.120368
2443.000000	39.140610
2442.000000	39.159180
2441.000000	39.177105
2440.000000	39.196326
2439.000000	39.218112
2438.000000	39.241945
2437.000000	39.266792
2436.000000	39.292383
2435.000000	39.318386
2434.000000	39.343620
2433.000000	39.367245
2432.000000	39.389827
2431.000000	39.412246
2430.000000	39.434619
2429.000000	39.457117
2428.000000	39.480684
2427.000000	39.505957
2426.000000	39.532467
2425.000000	39.559743
2424.000000	39.587980
2423.000000	39.616886
2422.000000	39.645246
2421.000000	39.672542
2420.000000	39.699694
2419.000000	39.727249
2418.000000	39.754279
2417.000000	39.780140
2416.000000	39.805855
2415.000000	39.832586
2414.000000	39.860161
2413.000000	39.888278
2412.000000	39.917728
2411.000000	39.948948
2410.000000	39.980662
2409.000000	40.011265
2408.000000	40.040457
2407.000000	40.068394
2406.000000	40.094690
2405.000000	40.119698
2404.000000	40.145504
2403.000000	40.174110
2402.000000	40.205611
2401.000000	40.239182
2400.000000	40.274463
2399.000000	40.310665
2398.000000	40.345724
2397.000000	40.378042
2396.000000	40.408240
2395.000000	40.438079
2394.000000	40.468870
2393.000000	40.502005
2392.000000	40.539333
2391.000000	40.581314
2390.000000	40.625839
2389.000000	40.670143
2388.000000	40.713243
2387.000000	40.755256
2386.000000	40.796146
2385.000000	40.836876
2384.000000	40.879652
2383.000000	40.926637
2382.000000	40.978237
2381.000000	41.034420
2380.000000	41.096374
2379.000000	41.164147
2378.000000	41.235830
2377.000000	41.309566
2376.000000	41.385473
2375.000000	41.463238
2374.000000	41.540381
2373.000000	41.613946
2372.000000	41.683381
2371.000000	41.749214
2370.000000	41.810748
2369.000000	41.868659
2368.000000	41.927315
2367.000000	41.990598
2366.000000	42.057774
2365.000000	42.126377
2364.000000	42.199184
2363.000000	42.273722
2362.000000	42.342779
2361.000000	42.406373
2360.000000	42.466031
2359.000000	42.527582
2358.000000	42.593501
2357.000000	42.661072
2356.000000	42.734753
2355.000000	42.807634
2354.000000	42.874730
2353.000000	42.932945
2352.000000	42.994525
2351.000000	43.071136
2350.000000	43.148535
2349.000000	43.214080
2348.000000	43.267978
2347.000000	43.331091
2346.000000	43.420965
2345.000000	43.522849
2344.000000	43.619232
2343.000000	43.688583
2342.000000	43.741163
2341.000000	43.789611
2340.000000	43.840555
2339.000000	43.897990
2338.000000	43.959330
2337.000000	44.026905
2336.000000	44.096169
2335.000000	44.168649
2334.000000	44.236900
2333.000000	44.304523
2332.000000	44.367518
2331.000000	44.440042
2330.000000	44.511997
2329.000000	44.592097
2328.000000	44.668121
2327.000000	44.742367
2326.000000	44.808934
2325.000000	44.867646
2324.000000	44.926422
2323.000000	44.988125
2322.000000	45.056153
2321.000000	45.128063
2320.000000	45.201763
2319.000000	45.278974
2318.000000	45.351004
2317.000000	45.417771
2316.000000	45.471885
2315.000000	45.524837
2314.000000	45.575596
2313.000000	45.635268
2312.000000	45.699065
2311.000000	45.772852
2310.000000	45.846518
2309.000000	45.919622
2308.000000	45.984821
2307.000000	46.047400
2306.000000	46.106200
2305.000000	46.166967
2304.000000	46.230139
2303.000000	46.301013
2302.000000	46.374745
2301.000000	46.449487
2300.000000	46.518587
2299.000000	46.584224
2298.000000	46.644417
2297.000000	46.703897
2296.000000	46.765100
2295.000000	46.833767
2294.000000	46.907853
2293.000000	46.983019
2292.000000	47.053777
2291.000000	47.117777
2290.000000	47.174103
2289.000000	47.224097
2288.000000	47.273638
2287.000000	47.329294
2286.000000	47.394412
2285.000000	47.466208
2284.000000	47.540310
2283.000000	47.611031
2282.000000	47.673311
2281.000000	47.724527
2280.000000	47.768431
2279.000000	47.812248
2278.000000	47.861508
2277.000000	47.918313
2276.000000	47.982350
2275.000000	48.051041
2274.000000	48.117540
2273.000000	48.175046
2272.000000	48.221836
2271.000000	48.262037
2270.000000	48.300912
2269.000000	48.342813
2268.000000	48.391184
2267.000000	48.446401
2266.000000	48.503096
2265.000000	48.553975
2264.000000	48.596002
2263.000000	48.631401
2262.000000	48.663799
2261.000000	48.696288
2260.000000	48.733171
2259.000000	48.776827
2258.000000	48.824304
2257.000000	48.868339
2256.000000	48.903546
2255.000000	48.928859
2254.000000	48.945536
2253.000000	48.957686
2252.000000	48.972504
2251.000000	48.996860
2250.000000	49.030447
2249.000000	49.066316
2248.000000	49.096814
2247.000000	49.116585
2246.000000	49.122696
2245.000000	49.116167
2244.000000	49.104013
2243.000000	49.095822
2242.000000	49.096994
2241.000000	49.106760
2240.000000	49.120997
2239.000000	49.133482
2238.000000	49.136211
2237.000000	49.123671
2236.000000	49.098193
2235.000000	49.068153
2234.000000	49.041140
2233.000000	49.020870
2232.000000	49.008260
2231.000000	49.000871
2230.000000	48.991622
2229.000000	48.973000
2228.000000	48.943506
2227.000000	48.907958
2226.000000	48.872236
2225.000000	48.840801
2224.000000	48.817188
2223.000000	48.802012
2222.000000	48.789895
2221.000000	48.772497
2220.000000	48.745466
2219.000000	48.710781
2218.000000	48.673500
2217.000000	48.639733
2216.000000	48.616054
2215.000000	48.605844
2214.000000	48.605022
2213.000000	48.604445
2212.000000	48.596732
2211.000000	48.579318
2210.000000	48.553121
2209.000000	48.523044
2208.000000	48.498621
2207.000000	48.489152
2206.000000	48.496381
2205.000000	48.514077
2204.000000	48.533767
2203.000000	48.548413
2202.000000	48.552792
2201.000000	48.546078
2200.000000	48.534791
2199.000000	48.529430
2198.000000	48.536872
2197.000000	48.557571
2196.000000	48.588033
2195.000000	48.622201
2194.000000	48.651683
2193.000000	48.670174
2192.000000	48.679135
2191.000000	48.686417
2190.000000	48.699275
2189.000000	48.720857
2188.000000	48.751221
2187.000000	48.787010
2186.000000	48.820339
2185.000000	48.843039
2184.000000	48.853515
2183.000000	48.857319
2182.000000	48.861574
2181.000000	48.871655
2180.000000	48.891231
2179.000000	48.919966
2178.000000	48.950622
2177.000000	48.972625
2176.000000	48.980118
2175.000000	48.974945
2174.000000	48.963390
2173.000000	48.953525
2172.000000	48.954108
2171.000000	48.970042
2170.000000	48.997549
2169.000000	49.026322
2168.000000	49.046921
2167.000000	49.054503
2166.000000	49.048456
2165.000000	49.033466
2164.000000	49.020280
2163.000000	49.019976
2162.000000	49.035854
2161.000000	49.062683
2160.000000	49.092518
2159.000000	49.118067
2158.000000	49.132898
2157.000000	49.134613
2156.000000	49.128997
2155.000000	49.126742
2154.000000	49.135020
2153.000000	49.154078
2152.000000	49.180224
2151.000000	49.207429
2150.000000	49.227662
2149.000000	49.235274
2148.000000	49.232712
2147.000000	49.228832
2146.000000	49.231449
2145.000000	49.243394
2144.000000	49.264334
2143.000000	49.290403
2142.000000	49.312696
2141.000000	49.321863
2140.000000	49.316456
2139.000000	49.303885
2138.000000	49.293719
2137.000000	49.293025
2136.000000	49.306157
2135.000000	49.332740
2134.000000	49.364786
2133.000000	49.390338
2132.000000	49.401736
2131.000000	49.398980
2130.000000	49.386877
2129.000000	49.373335
2128.000000	49.368776
2127.000000	49.380985
2126.000000	49.408409
2125.000000	49.441124
2124.000000	49.468867
2123.000000	49.485900
2122.000000	49.490442
2121.000000	49.485159
2120.000000	49.478805
2119.000000	49.482219
2118.000000	49.500631
2117.000000	49.531492
2116.000000	49.568444
2115.000000	49.604216
2114.000000	49.631695
2113.000000	49.648422
2112.000000	49.660883
2111.000000	49.680397
2110.000000	49.713983
2109.000000	49.761672
2108.000000	49.820008
2107.000000	49.883378
2106.000000	49.943238
2105.000000	49.993096
2104.000000	50.035199
2103.000000	50.079555
2102.000000	50.135552
2101.000000	50.207587
2100.000000	50.296368
2099.000000	50.397293
2098.000000	50.499547
2097.000000	50.591164
2096.000000	50.667009
2095.000000	50.730521
2094.000000	50.789593
2093.000000	50.854305
2092.000000	50.935020
2091.000000	51.035366
2090.000000	51.146342
2089.000000	51.252280
2088.000000	51.342873
2087.000000	51.416596
2086.000000	51.475807
2085.000000	51.525586
2084.000000	51.575478
2083.000000	51.634325
2082.000000	51.701704
2081.000000	51.768457
2080.000000	51.825688
2079.000000	51.867907
2078.000000	51.892660
2077.000000	51.902508
2076.000000	51.907193
2075.000000	51.918489
2074.000000	51.938621
2073.000000	51.961963
2072.000000	51.982472
2071.000000	51.993534
2070.000000	51.985736
2069.000000	51.955988
2068.000000	51.918510
2067.000000	51.896394
2066.000000	51.900505
2065.000000	51.923745
2064.000000	51.954673
2063.000000	51.986639
2062.000000	52.013723
2061.000000	52.028947
2060.000000	52.032040
2059.000000	52.032917
2058.000000	52.043679
2057.000000	52.071332
2056.000000	52.118186
2055.000000	52.182494
2054.000000	52.254348
2053.000000	52.320288
2052.000000	52.374688
2051.000000	52.422133
2050.000000	52.469455
2049.000000	52.523911
2048.000000	52.594112
2047.000000	52.683604
2046.000000	52.784809
2045.000000	52.886501
2044.000000	52.986578
2043.000000	53.090305
2042.000000	53.199027
2041.000000	53.310442
2040.000000	53.428299
2039.000000	53.560981
2038.000000	53.709319
2037.000000	53.863917
2036.000000	54.015674
2035.000000	54.161933
2034.000000	54.302786
2033.000000	54.439451
2032.000000	54.578883
2031.000000	54.731866
2030.000000	54.901297
2029.000000	55.081169
2028.000000	55.262106
2027.000000	55.437874
2026.000000	55.600629
2025.000000	55.746953
2024.000000	55.884129
2023.000000	56.022007
2022.000000	56.162005
2021.000000	56.303222
2020.000000	56.455305
2019.000000	56.630261
2018.000000	56.820734
2017.000000	57.001639
2016.000000	57.157247
2015.000000	57.294094
2014.000000	57.426296
2013.000000	57.561738
2012.000000	57.703683
2011.000000	57.853667
2010.000000	58.006176
2009.000000	58.150320
2008.000000	58.278620
2007.000000	58.394917
2006.000000	58.504235
2005.000000	58.609761
2004.000000	58.717490
2003.000000	58.831826
2002.000000	58.952551
2001.000000	59.067484
2000.000000	59.171445
1999.000000	59.269684
1998.000000	59.358482
1997.000000	59.422097
1996.000000	59.462526
1995.000000	59.512707
1994.000000	59.604098
1993.000000	59.726908
1992.000000	59.842719
1991.000000	59.931339
1990.000000	60.002660
1989.000000	60.073160
1988.000000	60.149135
1987.000000	60.231047
1986.000000	60.320016
1985.000000	60.415517
1984.000000	60.512981
1983.000000	60.602961
1982.000000	60.678911
1981.000000	60.733699
1980.000000	60.772060
1979.000000	60.809337
1978.000000	60.857567
1977.000000	60.916744
1976.000000	60.984478
1975.000000	61.061378
1974.000000	61.140224
1973.000000	61.200574
1972.000000	61.225298
1971.000000	61.219917
1970.000000	61.211907
1969.000000	61.233703
1968.000000	61.298569
1967.000000	61.389414
1966.000000	61.474317
1965.000000	61.535164
1964.000000	61.578818
1963.000000	61.621728
1962.000000	61.668352
1961.000000	61.713423
1960.000000	61.757503
1959.000000	61.805287
1958.000000	61.854629
1957.000000	61.898392
1956.000000	61.933726
1955.000000	61.963510
1954.000000	61.985513
1953.000000	62.004437
1952.000000	62.028570
1951.000000	62.060540
1950.000000	62.099203
1949.000000	62.140063
1948.000000	62.170281
1947.000000	62.169477
1946.000000	62.132593
1945.000000	62.096010
1944.000000	62.110483
1943.000000	62.179563
1942.000000	62.259196
1941.000000	62.319744
1940.000000	62.372016
1939.000000	62.432819
1938.000000	62.488627
1937.000000	62.514870
1936.000000	62.515589
1935.000000	62.515864
1934.000000	62.522080
1933.000000	62.532963
1932.000000	62.547834
1931.000000	62.568219
1930.000000	62.596702
1929.000000	62.615870
1928.000000	62.609018
1927.000000	62.557872
1926.000000	62.483982
1925.000000	62.449748
1924.000000	62.489345
1923.000000	62.561098
1922.000000	62.603238
1921.000000	62.607698
1920.000000	62.624104
1919.000000	62.666184
1918.000000	62.683965
1917.000000	62.653038
1916.000000	62.613683
1915.000000	62.602155
1914.000000	62.597419
1913.000000	62.564528
1912.000000	62.509788
1911.000000	62.470576
1910.000000	62.461485
1909.000000	62.456739
1908.000000	62.453246
1907.000000	62.458580
1906.000000	62.476148
1905.000000	62.499876
1904.000000	62.517864
1903.000000	62.527109
1902.000000	62.528645
1901.000000	62.509475
1900.000000	62.466154
1899.000000	62.404500
1898.000000	62.346168
1897.000000	62.326496
1896.000000	62.359309
1895.000000	62.409871
1894.000000	62.423319
1893.000000	62.385915
1892.000000	62.351456
1891.000000	62.377883
1890.000000	62.441905
1889.000000	62.478288
1888.000000	62.474605
1887.000000	62.470310
1886.000000	62.490758
1885.000000	62.523209
1884.000000	62.544831
1883.000000	62.557624
1882.000000	62.574926
1881.000000	62.591815
1880.000000	62.606462
1879.000000	62.625032
1878.000000	62.638790
1877.000000	62.639030
1876.000000	62.633350
1875.000000	62.625584
1874.000000	62.596245
1873.000000	62.518114
1872.000000	62.401584
1871.000000	62.312017
1870.000000	62.301011
1869.000000	62.339241
1868.000000	62.379249
1867.000000	62.414749
1866.000000	62.446515
1865.000000	62.460374
1864.000000	62.450150
1863.000000	62.429789
1862.000000	62.414266
1861.000000	62.404905
1860.000000	62.401972
1859.000000	62.409772
1858.000000	62.421124
1857.000000	62.417060
1856.000000	62.394431
1855.000000	62.364767
1854.000000	62.341253
1853.000000	62.293707
1852.000000	62.212863
1851.000000	62.136158
1850.000000	62.097419
1849.000000	62.091258
1848.000000	62.099783
1847.000000	62.136789
1846.000000	62.220248
1845.000000	62.278837
1844.000000	62.205048
1843.000000	62.032319
1842.000000	61.869779
1841.000000	61.762439
1840.000000	61.704961
1839.000000	61.669855
1838.000000	61.646075
1837.000000	61.636405
1836.000000	61.630488
1835.000000	61.600128
1834.000000	61.511944
1833.000000	61.357517
1832.000000	61.230113
1831.000000	61.209845
1830.000000	61.210994
1829.000000	61.129278
1828.000000	60.997356
1827.000000	60.922171
1826.000000	60.927918
1825.000000	60.930480
1824.000000	60.884902
1823.000000	60.833222
1822.000000	60.800244
1821.000000	60.755490
1820.000000	60.684735
1819.000000	60.604566
1818.000000	60.531102
1817.000000	60.454516
1816.000000	60.351220
1815.000000	60.227641
1814.000000	60.097604
1813.000000	59.990580
1812.000000	59.934113
1811.000000	59.907236
1810.000000	59.872883
1809.000000	59.820176
1808.000000	59.760916
1807.000000	59.700929
1806.000000	59.623087
1805.000000	59.512505
1804.000000	59.374545
1803.000000	59.261473
1802.000000	59.194375
1801.000000	59.147713
1800.000000	59.091112
1799.000000	59.022748
1798.000000	58.964279
1797.000000	58.928578
1796.000000	58.900781
1795.000000	58.875921
1794.000000	58.857803
1793.000000	58.823982
1792.000000	58.733966
1791.000000	58.616068
1790.000000	58.526747
1789.000000	58.477692
1788.000000	58.452843
1787.000000	58.435195
1786.000000	58.394523
1785.000000	58.291099
1784.000000	58.109266
1783.000000	57.938552
1782.000000	57.851541
1781.000000	57.823085
1780.000000	57.787149
1779.000000	57.735701
1778.000000	57.716538
1777.000000	57.727896
1776.000000	57.722175
1775.000000	57.694975
1774.000000	57.698200
1773.000000	57.687648
1772.000000	57.571566
1771.000000	57.398656
1770.000000	57.270928
1769.000000	57.215725
1768.000000	57.173022
1767.000000	57.099771
1766.000000	57.001253
1765.000000	56.905870
1764.000000	56.847854
1763.000000	56.833182
1762.000000	56.768493
1761.000000	56.611522
1760.000000	56.423970
1759.000000	56.307261
1758.000000	56.300467
1757.000000	56.300418
1756.000000	56.235976
1755.000000	56.148382
1754.000000	56.064532
1753.000000	55.931054
1752.000000	55.698325
1751.000000	55.391993
1750.000000	55.132053
1749.000000	54.977236
1748.000000	54.868249
1747.000000	54.765029
1746.000000	54.669288
1745.000000	54.608046
1744.000000	54.592425
1743.000000	54.596800
1742.000000	54.589595
1741.000000	54.571977
1740.000000	54.520781
1739.000000	54.439941
1738.000000	54.375964
1737.000000	54.329654
1736.000000	54.315682
1735.000000	54.231417
1734.000000	53.826392
1733.000000	53.224133
1732.000000	52.749268
1731.000000	52.521511
1730.000000	52.442295
1729.000000	52.335108
1728.000000	52.136707
1727.000000	51.908019
1726.000000	51.682659
1725.000000	51.465577
1724.000000	51.267010
1723.000000	51.097089
1722.000000	50.943173
1721.000000	50.756549
1720.000000	50.545824
1719.000000	50.340700
1718.000000	50.032817
1717.000000	49.578242
1716.000000	49.128247
1715.000000	48.778216
1714.000000	48.485439
1713.000000	48.190844
1712.000000	47.892570
1711.000000	47.615284
1710.000000	47.338100
1709.000000	47.006374
1708.000000	46.653290
1707.000000	46.379246
1706.000000	46.190839
1705.000000	46.037693
1704.000000	45.931535
1703.000000	45.870539
1702.000000	45.814354
1701.000000	45.534369
1700.000000	44.876703
1699.000000	44.197885
1698.000000	43.816959
1697.000000	43.665159
1696.000000	43.361900
1695.000000	42.766047
1694.000000	42.122308
1693.000000	41.597238
1692.000000	41.184327
1691.000000	40.835643
1690.000000	40.548538
1689.000000	40.323838
1688.000000	40.139416
1687.000000	39.911764
1686.000000	39.640078
1685.000000	39.271411
1684.000000	38.600408
1683.000000	37.853840
1682.000000	37.326944
1681.000000	37.007733
1680.000000	36.779856
1679.000000	36.564697
1678.000000	36.335485
1677.000000	36.065010
1676.000000	35.675966
1675.000000	35.146571
1674.000000	34.593165
1673.000000	34.125667
1672.000000	33.765280
1671.000000	33.477024
1670.000000	33.157927
1669.000000	32.727443
1668.000000	32.256014
1667.000000	31.849716
1666.000000	31.512927
1665.000000	31.205948
1664.000000	30.893637
1663.000000	30.545956
1662.000000	30.162001
1661.000000	29.767834
1660.000000	29.399039
1659.000000	29.098654
1658.000000	28.888243
1657.000000	28.740340
1656.000000	28.594683
1655.000000	28.525346
1654.000000	28.424181
1653.000000	27.852645
1652.000000	27.039750
1651.000000	26.412946
1650.000000	26.009006
1649.000000	25.769539
1648.000000	25.622663
1647.000000	25.427995
1646.000000	25.109668
1645.000000	24.743738
1644.000000	24.407651
1643.000000	24.132609
1642.000000	23.901430
1641.000000	23.667902
1640.000000	23.429038
1639.000000	23.215035
1638.000000	23.062284
1637.000000	22.956290
1636.000000	22.767530
1635.000000	22.447182
1634.000000	22.111686
1633.000000	21.836150
1632.000000	21.612907
1631.000000	21.422707
1630.000000	21.256513
1629.000000	21.106775
1628.000000	20.957814
1627.000000	20.810792
1626.000000	20.668939
1625.000000	20.530143
1624.000000	20.389082
1623.000000	20.242103
1622.000000	20.112791
1621.000000	20.023193
1620.000000	19.977693
1619.000000	19.972811
1618.000000	19.988461
1617.000000	19.944512
1616.000000	19.802230
1615.000000	19.644266
1614.000000	19.540937
1613.000000	19.486993
1612.000000	19.451226
1611.000000	19.428756
1610.000000	19.431287
1609.000000	19.451347
1608.000000	19.468581
1607.000000	19.483273
1606.000000	19.503893
1605.000000	19.524305
1604.000000	19.548234
1603.000000	19.593335
1602.000000	19.662823
1601.000000	19.734289
1600.000000	19.789557
1599.000000	19.834141
1598.000000	19.876103
1597.000000	19.915890
1596.000000	19.959706
1595.000000	20.021518
1594.000000	20.102721
1593.000000	20.187406
1592.000000	20.265818
1591.000000	20.343903
1590.000000	20.422145
1589.000000	20.486451
1588.000000	20.533342
1587.000000	20.577598
1586.000000	20.635824
1585.000000	20.701335
1584.000000	20.765340
1583.000000	20.837257
1582.000000	20.921621
1581.000000	21.004892
1580.000000	21.081049
1579.000000	21.165273
1578.000000	21.279230
1577.000000	21.401346
1576.000000	21.451613
1575.000000	21.435554
1574.000000	21.423852
1573.000000	21.437296
1572.000000	21.472431
1571.000000	21.540737
1570.000000	21.630327
1569.000000	21.684683
1568.000000	21.699397
1567.000000	21.729120
1566.000000	21.820489
1565.000000	21.973341
1564.000000	22.166863
1563.000000	22.374656
1562.000000	22.518833
1561.000000	22.563628
1560.000000	22.710076
1559.000000	22.882747
1558.000000	22.922852
1557.000000	22.914255
1556.000000	22.941521
1555.000000	23.033460
1554.000000	23.126016
1553.000000	23.170647
1552.000000	23.218690
1551.000000	23.346368
1550.000000	23.560598
1549.000000	23.794172
1548.000000	23.990780
1547.000000	24.156799
1546.000000	24.339855
1545.000000	24.564610
1544.000000	24.813520
1543.000000	25.055005
1542.000000	25.334255
1541.000000	25.757459
1540.000000	26.219010
1539.000000	26.541001
1538.000000	26.721326
1537.000000	26.845829
1536.000000	26.994158
1535.000000	27.256296
1534.000000	27.652726
1533.000000	28.077507
1532.000000	28.451107
1531.000000	28.784270
1530.000000	29.116667
1529.000000	29.475026
1528.000000	29.870415
1527.000000	30.310897
1526.000000	30.771296
1525.000000	31.203258
1524.000000	31.611926
1523.000000	32.103880
1522.000000	32.710766
1521.000000	33.246522
1520.000000	33.575560
1519.000000	33.814263
1518.000000	34.164443
1517.000000	34.669501
1516.000000	35.201684
1515.000000	35.683598
1514.000000	36.117277
1513.000000	36.516300
1512.000000	36.883702
1511.000000	37.211691
1510.000000	37.494866
1509.000000	37.827775
1508.000000	38.502257
1507.000000	39.403123
1506.000000	40.084176
1505.000000	40.436508
1504.000000	40.656332
1503.000000	40.951896
1502.000000	41.388299
1501.000000	41.911301
1500.000000	42.472661
1499.000000	43.087552
1498.000000	43.771804
1497.000000	44.471034
1496.000000	45.088304
1495.000000	45.585106
1494.000000	45.975029
1493.000000	46.267999
1492.000000	46.525387
1491.000000	46.879752
1490.000000	47.379926
1489.000000	47.955006
1488.000000	48.545404
1487.000000	49.108135
1486.000000	49.602629
1485.000000	49.968044
1484.000000	50.210086
1483.000000	50.421165
1482.000000	50.640712
1481.000000	50.821137
1480.000000	50.923019
1479.000000	50.972017
1478.000000	50.971140
1477.000000	50.881383
1476.000000	50.653959
1475.000000	50.280000
1474.000000	49.732136
1473.000000	48.856496
1472.000000	47.612000
1471.000000	46.224559
1470.000000	44.825866
1469.000000	43.340857
1468.000000	41.658877
1467.000000	39.667717
1466.000000	37.201800
1465.000000	34.155575
1464.000000	30.825769
1463.000000	27.705468
1462.000000	24.953303
1461.000000	22.453107
1460.000000	20.109902
1459.000000	17.876333
1458.000000	15.597695
1457.000000	13.232131
1456.000000	11.277188
1455.000000	10.076802
1454.000000	9.388310
1453.000000	8.929888
1452.000000	8.637459
1451.000000	8.535617
1450.000000	8.596555
1449.000000	8.791358
1448.000000	9.150735
1447.000000	9.676645
1446.000000	10.289736
1445.000000	10.939508
1444.000000	11.665343
1443.000000	12.496971
1442.000000	13.388791
1441.000000	14.282579
1440.000000	15.178861
1439.000000	16.120894
1438.000000	17.177128
1437.000000	18.397410
1436.000000	19.705253
1435.000000	20.944390
1434.000000	22.079492
1433.000000	23.205879
1432.000000	24.405748
1431.000000	25.673195
1430.000000	26.929828
1429.000000	28.092314
1428.000000	29.093858
1427.000000	29.914409
1426.000000	30.617670
1425.000000	31.292452
1424.000000	31.965292
1423.000000	32.582827
1422.000000	33.094458
1421.000000	33.513453
1420.000000	33.927299
1419.000000	34.389650
1418.000000	34.881120
1417.000000	35.415339
1416.000000	36.022115
1415.000000	36.691937
1414.000000	37.397669
1413.000000	38.142321
1412.000000	38.952246
1411.000000	39.829799
1410.000000	40.740913
1409.000000	41.658262
1408.000000	42.563181
1407.000000	43.452277
1406.000000	44.362277
1405.000000	45.304093
1404.000000	46.209066
1403.000000	46.982889
1402.000000	47.617127
1401.000000	48.199542
1400.000000	48.806029
1399.000000	49.414543
1398.000000	49.978465
1397.000000	50.532126
1396.000000	51.120229
1395.000000	51.701691
1394.000000	52.190876
1393.000000	52.566300
1392.000000	52.864379
1391.000000	53.099098
1390.000000	53.258821
1389.000000	53.338414
1388.000000	53.327791
1387.000000	53.208449
1386.000000	53.031979
1385.000000	52.900694
1384.000000	52.864576
1383.000000	52.891587
1382.000000	52.920804
1381.000000	52.907083
1380.000000	52.806276
1379.000000	52.585699
1378.000000	52.262114
1377.000000	51.899292
1376.000000	51.562247
1375.000000	51.293301
1374.000000	51.087394
1373.000000	50.899375
1372.000000	50.669634
1371.000000	50.363818
1370.000000	50.003465
1369.000000	49.610600
1368.000000	49.172731
1367.000000	48.668312
1366.000000	48.100865
1365.000000	47.492977
1364.000000	46.867232
1363.000000	46.230381
1362.000000	45.589146
1361.000000	44.964074
1360.000000	44.368424
1359.000000	43.820718
1358.000000	43.372373
1357.000000	43.083348
1356.000000	42.983535
1355.000000	43.067461
1354.000000	43.296880
1353.000000	43.604365
1352.000000	43.896496
1351.000000	44.085693
1350.000000	44.119728
1349.000000	43.955403
1348.000000	43.548995
1347.000000	42.878514
1346.000000	41.958659
1345.000000	40.812741
1344.000000	39.459323
1343.000000	37.923039
1342.000000	36.244277
1341.000000	34.458586
1340.000000	32.584112
1339.000000	30.648812
1338.000000	28.692019
1337.000000	26.723519
1336.000000	24.723302
1335.000000	22.691040
1334.000000	20.663685
1333.000000	18.684670
1332.000000	16.791070
1331.000000	15.031160
1330.000000	13.456429
1329.000000	12.085313
1328.000000	10.903675
1327.000000	9.892285
1326.000000	9.028408
1325.000000	8.275371
1324.000000	7.596901
1323.000000	6.983291
1322.000000	6.440277
1321.000000	5.963888
1320.000000	5.552535
1319.000000	5.225470
1318.000000	5.009569
1317.000000	4.914071
1316.000000	4.935809
1315.000000	5.080736
1314.000000	5.352953
1313.000000	5.737791
1312.000000	6.213092
1311.000000	6.766166
1310.000000	7.391547
1309.000000	8.076716
1308.000000	8.806749
1307.000000	9.573851
1306.000000	10.369610
1305.000000	11.176655
1304.000000	11.977249
1303.000000	12.764578
1302.000000	13.538296
1301.000000	14.293915
1300.000000	15.024657
1299.000000	15.728252
1298.000000	16.402549
1297.000000	17.038589
1296.000000	17.629385
1295.000000	18.186377
1294.000000	18.740389
1293.000000	19.327183
1292.000000	19.977750
1291.000000	20.716941
1290.000000	21.561737
1289.000000	22.514422
1288.000000	23.559970
1287.000000	24.673563
1286.000000	25.826713
1285.000000	26.990290
1284.000000	28.136884
1283.000000	29.246563
1282.000000	30.311001
1281.000000	31.326615
1280.000000	32.283603
1279.000000	33.168901
1278.000000	33.976842
1277.000000	34.707356
1276.000000	35.362055
1275.000000	35.953459
1274.000000	36.515782
1273.000000	37.095004
1272.000000	37.724785
1271.000000	38.419191
1270.000000	39.181004
1269.000000	40.002024
1268.000000	40.858116
1267.000000	41.720701
1266.000000	42.574537
1265.000000	43.415845
1264.000000	44.237883
1263.000000	45.033038
1262.000000	45.804923
1261.000000	46.558793
1260.000000	47.279322
1259.000000	47.938211
1258.000000	48.525414
1257.000000	49.052235
1256.000000	49.528837
1255.000000	49.958866
1254.000000	50.348326
1253.000000	50.701398
1252.000000	51.002861
1251.000000	51.227931
1250.000000	51.369495
1249.000000	51.437622
1248.000000	51.442192
1247.000000	51.391163
1246.000000	51.299549
1245.000000	51.178327
1244.000000	51.010742
1243.000000	50.763384
1242.000000	50.415152
1241.000000	49.964359
1240.000000	49.419865
1239.000000	48.802093
1238.000000	48.150971
1237.000000	47.507623
1236.000000	46.888658
1235.000000	46.289657
1234.000000	45.704281
1233.000000	45.129444
1232.000000	44.561844
1231.000000	44.008896
1230.000000	43.497756
1229.000000	43.064070
1228.000000	42.729963
1227.000000	42.501073
1226.000000	42.375988
1225.000000	42.342136
1224.000000	42.375577
1223.000000	42.454395
1222.000000	42.574308
1221.000000	42.745962
1220.000000	42.975798
1219.000000	43.263024
1218.000000	43.603500
1217.000000	43.984718
1216.000000	44.382126
1215.000000	44.771828
1214.000000	45.150926
1213.000000	45.534830
1212.000000	45.938453
1211.000000	46.369620
1210.000000	46.832209
1209.000000	47.319806
1208.000000	47.806502
1207.000000	48.258844
1206.000000	48.660810
1205.000000	49.020878
1204.000000	49.359284
1203.000000	49.701851
1202.000000	50.079505
1201.000000	50.511961
1200.000000	50.987334
1199.000000	51.468298
1198.000000	51.918437
1197.000000	52.316618
1196.000000	52.655628
1195.000000	52.947495
1194.000000	53.229237
1193.000000	53.542798
1192.000000	53.904189
1191.000000	54.298527
1190.000000	54.700690
1189.000000	55.086169
1188.000000	55.429388
1187.000000	55.716446
1186.000000	55.962840
1185.000000	56.203028
1184.000000	56.459558
1183.000000	56.730792
1182.000000	57.003501
1181.000000	57.259057
1180.000000	57.474282
1179.000000	57.638481
1178.000000	57.771220
1177.000000	57.908078
1176.000000	58.069191
1175.000000	58.252435
1174.000000	58.446900
1173.000000	58.631481
1172.000000	58.770539
1171.000000	58.834516
1170.000000	58.830472
1169.000000	58.798132
1168.000000	58.778243
1167.000000	58.797847
1166.000000	58.872512
1165.000000	58.995508
1164.000000	59.125508
1163.000000	59.206340
1162.000000	59.207930
1161.000000	59.138983
1160.000000	59.029632
1159.000000	58.921599
1158.000000	58.865180
1157.000000	58.895072
1156.000000	59.001600
1155.000000	59.138150
1154.000000	59.256918
1153.000000	59.328544
1152.000000	59.340423
1151.000000	59.303552
1150.000000	59.261392
1149.000000	59.265965
1148.000000	59.339370
1147.000000	59.467230
1146.000000	59.622186
1145.000000	59.777136
1144.000000	59.904561
1143.000000	59.991591
1142.000000	60.058362
1141.000000	60.142811
1140.000000	60.265203
1139.000000	60.418884
1138.000000	60.586952
1137.000000	60.748602
1136.000000	60.875942
1135.000000	60.951797
1134.000000	60.994754
1133.000000	61.048682
1132.000000	61.145053
1131.000000	61.286931
1130.000000	61.457670
1129.000000	61.624086
1128.000000	61.735423
1127.000000	61.748226
1126.000000	61.662670
1125.000000	61.520922
1124.000000	61.373903
1123.000000	61.260738
1122.000000	61.203675
1121.000000	61.194030
1120.000000	61.177272
1119.000000	61.079331
1118.000000	60.854639
1117.000000	60.502431
1116.000000	60.050658
1115.000000	59.542168
1114.000000	59.028263
1113.000000	58.542597
1112.000000	58.068992
1111.000000	57.553617
1110.000000	56.940700
1109.000000	56.193053
1108.000000	55.294361
1107.000000	54.252321
1106.000000	53.104988
1105.000000	51.893371
1104.000000	50.628411
1103.000000	49.291762
1102.000000	47.851900
1101.000000	46.280271
1100.000000	44.554223
1099.000000	42.672068
1098.000000	40.661789
1097.000000	38.558704
1096.000000	36.387269
1095.000000	34.159258
1094.000000	31.880536
1093.000000	29.555562
1092.000000	27.194857
1091.000000	24.829315
1090.000000	22.507663
1089.000000	20.280823
1088.000000	18.189235
1087.000000	16.265848
1086.000000	14.526851
1085.000000	12.968247
1084.000000	11.582886
1083.000000	10.364411
1082.000000	9.306964
1081.000000	8.396606
1080.000000	7.618915
1079.000000	6.967228
1078.000000	6.425010
1077.000000	5.967620
1076.000000	5.574832
1075.000000	5.235864
1074.000000	4.941274
1073.000000	4.676810
1072.000000	4.437843
1071.000000	4.231051
1070.000000	4.058473
1069.000000	3.913785
1068.000000	3.793398
1067.000000	3.700945
1066.000000	3.635239
1065.000000	3.587189
1064.000000	3.555147
1063.000000	3.546861
1062.000000	3.565827
1061.000000	3.607082
1060.000000	3.668807
1059.000000	3.755974
1058.000000	3.866981
1057.000000	3.991909
1056.000000	4.127167
1055.000000	4.278949
1054.000000	4.451482
1053.000000	4.642735
1052.000000	4.855474
1051.000000	5.099187
1050.000000	5.375242
1049.000000	5.675375
1048.000000	5.995019
1047.000000	6.337763
1046.000000	6.705970
1045.000000	7.098145
1044.000000	7.520179
1043.000000	7.983365
1042.000000	8.490093
1041.000000	9.031947
1040.000000	9.600437
1039.000000	10.193254
1038.000000	10.807781
1037.000000	11.440269
1036.000000	12.094949
1035.000000	12.781279
1034.000000	13.503063
1033.000000	14.254278
1032.000000	15.025574
1031.000000	15.808663
1030.000000	16.593689
1029.000000	17.373281
1028.000000	18.150536
1027.000000	18.937797
1026.000000	19.746166
1025.000000	20.577811
1024.000000	21.426172
1023.000000	22.277827
1022.000000	23.115365
1021.000000	23.924721
1020.000000	24.703731
1019.000000	25.463943
1018.000000	26.223965
1017.000000	26.999942
1016.000000	27.797772
1015.000000	28.610135
1014.000000	29.418780
1013.000000	30.202100
1012.000000	30.945434
1011.000000	31.648490
1010.000000	32.326018
1009.000000	32.999444
1008.000000	33.684669
1007.000000	34.386195
1006.000000	35.097054
1005.000000	35.801583
1004.000000	36.480876
1003.000000	37.123510
1002.000000	37.734441
1001.000000	38.330524
1000.000000	38.927855
999.000000	39.534793
998.000000	40.151053
997.000000	40.766717
996.000000	41.362200
995.000000	41.920409
994.000000	42.442600
993.000000	42.947708
992.000000	43.457542
991.000000	43.986725
990.000000	44.540313
989.000000	45.109454
988.000000	45.667557
987.000000	46.184091
986.000000	46.645914
985.000000	47.063569
984.000000	47.460292
983.000000	47.863347
982.000000	48.300122
981.000000	48.784219
980.000000	49.299749
979.000000	49.809437
978.000000	50.279604
977.000000	50.694593
976.000000	51.054247
975.000000	51.373914
974.000000	51.686907
973.000000	52.028915
972.000000	52.413856
971.000000	52.829149
970.000000	53.251719
969.000000	53.659505
968.000000	54.031380
967.000000	54.356063
966.000000	54.645314
965.000000	54.925529
964.000000	55.214093
963.000000	55.511600
962.000000	55.813212
961.000000	56.113781
960.000000	56.402898
959.000000	56.672469
958.000000	56.930082
957.000000	57.192490
956.000000	57.464568
955.000000	57.735364
954.000000	57.993352
953.000000	58.229999
952.000000	58.433204
951.000000	58.596225
950.000000	58.735394
949.000000	58.883829
948.000000	59.065142
947.000000	59.282202
946.000000	59.526982
945.000000	59.782280
944.000000	60.016819
943.000000	60.198339
942.000000	60.319524
941.000000	60.400950
940.000000	60.470326
939.000000	60.552475
938.000000	60.671356
937.000000	60.838490
936.000000	61.036255
935.000000	61.227146
934.000000	61.382843
933.000000	61.494363
932.000000	61.559943
931.000000	61.584198
930.000000	61.587592
929.000000	61.597093
928.000000	61.623190
927.000000	61.657936
926.000000	61.694604
925.000000	61.730804
924.000000	61.756534
923.000000	61.757463
922.000000	61.730573
921.000000	61.681299
920.000000	61.605895
919.000000	61.494171
918.000000	61.349348
917.000000	61.186917
916.000000	61.017008
915.000000	60.842296
914.000000	60.669842
913.000000	60.505850
912.000000	60.336332
911.000000	60.132764
910.000000	59.875960
909.000000	59.563033
908.000000	59.196355
907.000000	58.783340
906.000000	58.346733
905.000000	57.913443
904.000000	57.489468
903.000000	57.059798
902.000000	56.606771
901.000000	56.116610
900.000000	55.572334
899.000000	54.960864
898.000000	54.289632
897.000000	53.578950
896.000000	52.840617
895.000000	52.074495
894.000000	51.280301
893.000000	50.459422
892.000000	49.604052
891.000000	48.702558
890.000000	47.754224
889.000000	46.765784
888.000000	45.737993
887.000000	44.664398
886.000000	43.542299
885.000000	42.374173
884.000000	41.160143
883.000000	39.902687
882.000000	38.613734
881.000000	37.308971
880.000000	35.995773
879.000000	34.671756
878.000000	33.332229
877.000000	31.972003
876.000000	30.586341
875.000000	29.177604
874.000000	27.759594
873.000000	26.351128
872.000000	24.968151
871.000000	23.622004
870.000000	22.317945
869.000000	21.054099
868.000000	19.823620
867.000000	18.621486
866.000000	17.449383
865.000000	16.314015
864.000000	15.226652
863.000000	14.197582
862.000000	13.229706
861.000000	12.319969
860.000000	11.465060
859.000000	10.666897
858.000000	9.929307
857.000000	9.258545
856.000000	8.670648
855.000000	8.184445
854.000000	7.810773
853.000000	7.546223
852.000000	7.377502
851.000000	7.285800
850.000000	7.242871
849.000000	7.219530
848.000000	7.197870
847.000000	7.173461
846.000000	7.148256
845.000000	7.125829
844.000000	7.113949
843.000000	7.121194
842.000000	7.149639
841.000000	7.197197
840.000000	7.265594
839.000000	7.361572
838.000000	7.491132
837.000000	7.657678
836.000000	7.865813
835.000000	8.117552
834.000000	8.407163
833.000000	8.724535
832.000000	9.062585
831.000000	9.419138
830.000000	9.793194
829.000000	10.186808
828.000000	10.607928
827.000000	11.064250
826.000000	11.555799
825.000000	12.075413
824.000000	12.615131
823.000000	13.169538
822.000000	13.735817
821.000000	14.316283
820.000000	14.916867
819.000000	15.540804
818.000000	16.184364
817.000000	16.837648
816.000000	17.485801
815.000000	18.110669
814.000000	18.698953
813.000000	19.252092
812.000000	19.786148
811.000000	20.322595
810.000000	20.879831
809.000000	21.467408
808.000000	22.079605
807.000000	22.695225
806.000000	23.289688
805.000000	23.851303
804.000000	24.385954
803.000000	24.911829
802.000000	25.453015
801.000000	26.030680
800.000000	26.649342
799.000000	27.290990
798.000000	27.926260
797.000000	28.531808
796.000000	29.098445
795.000000	29.633878
794.000000	30.163412
793.000000	30.719991
792.000000	31.322561
791.000000	31.962922
790.000000	32.612175
789.000000	33.235448
788.000000	33.803653
787.000000	34.308211
786.000000	34.773778
785.000000	35.247581
784.000000	35.767188
783.000000	36.338544
782.000000	36.939364
781.000000	37.530242
780.000000	38.063940
779.000000	38.506743
778.000000	38.866780
777.000000	39.195595
776.000000	39.554766
775.000000	39.983096
774.000000	40.487875
773.000000	41.044196
772.000000	41.595637
771.000000	42.076462
770.000000	42.454305
769.000000	42.751187
768.000000	43.022873
767.000000	43.327714
766.000000	43.709384
765.000000	44.179948
764.000000	44.703081
763.000000	45.205594
762.000000	45.623948
761.000000	45.940908
760.000000	46.183034
759.000000	46.401430
758.000000	46.656636
757.000000	46.992080
756.000000	47.401218
755.000000	47.824767
754.000000	48.191870
753.000000	48.461480
752.000000	48.633628
751.000000	48.745610
750.000000	48.864791
749.000000	49.057895
748.000000	49.344488
747.000000	49.680379
746.000000	49.989676
745.000000	50.205560
744.000000	50.292308
743.000000	50.261785
742.000000	50.184528
741.000000	50.161059
740.000000	50.259544
739.000000	50.477720
738.000000	50.757737
737.000000	51.018022
736.000000	51.177567
735.000000	51.190802
734.000000	51.088492
733.000000	50.970433
732.000000	50.943165
731.000000	51.065011
730.000000	51.336742
729.000000	51.708304
728.000000	52.085747
727.000000	52.369335
726.000000	52.519387
725.000000	52.583228
724.000000	52.652368
723.000000	52.807757
722.000000	53.096847
721.000000	53.519641
720.000000	54.010268
719.000000	54.458533
718.000000	54.783123
717.000000	54.984830
716.000000	55.128343
715.000000	55.297317
714.000000	55.566461
713.000000	55.971488
712.000000	56.471852
711.000000	56.958744
710.000000	57.326559
709.000000	57.538081
708.000000	57.628714
707.000000	57.682648
706.000000	57.809714
705.000000	58.101382
704.000000	58.566508
703.000000	59.111473
702.000000	59.599053
701.000000	59.925828
700.000000	60.054900
699.000000	60.027694
698.000000	59.964576
697.000000	60.016953
696.000000	60.275348
695.000000	60.717944
694.000000	61.242563
693.000000	61.722673
692.000000	62.040035
691.000000	62.133862
690.000000	62.059281
689.000000	61.972833
688.000000	62.024135
687.000000	62.262796
686.000000	62.649301
685.000000	63.100112
684.000000	63.497517
683.000000	63.724632
682.000000	63.755799
681.000000	63.690253
680.000000	63.667430
679.000000	63.771046
678.000000	64.022675
677.000000	64.391243
676.000000	64.768757
675.000000	65.019780
674.000000	65.082920
673.000000	65.018414
672.000000	64.960340
671.000000	65.041589
670.000000	65.357556
669.000000	65.925606
668.000000	66.558979
667.000000	66.918299
666.000000	66.896387
665.000000	66.648279
664.000000	66.340878
663.000000	66.108757
662.000000	66.069733
661.000000	66.286670
660.000000	66.719917
659.000000	67.232972
658.000000	67.652681
657.000000	67.846556
656.000000	67.779336
655.000000	67.548367
654.000000	67.333087
653.000000	67.286230
652.000000	67.470110
651.000000	67.848791
650.000000	68.301085
649.000000	68.662710
648.000000	68.808689
647.000000	68.728608
646.000000	68.531898
645.000000	68.377408
644.000000	68.384791
643.000000	68.585848
642.000000	68.919453
641.000000	69.257816
640.000000	69.464481
639.000000	69.469601
638.000000	69.313647
637.000000	69.124564
636.000000	69.045974
635.000000	69.166680
634.000000	69.478482
633.000000	69.872595
632.000000	70.185952
631.000000	70.288383
630.000000	70.160292
629.000000	69.899732
628.000000	69.663651
627.000000	69.600003
626.000000	69.788383
625.000000	70.191477
624.000000	70.652438
623.000000	70.971050
622.000000	71.024303
621.000000	70.830555
620.000000	70.516058
619.000000	70.246350
618.000000	70.167586
617.000000	70.347885
616.000000	70.732127
615.000000	71.160098
614.000000	71.453750
613.000000	71.511355
612.000000	71.347020
611.000000	71.076921
610.000000	70.869379
609.000000	70.860981
608.000000	71.077041
607.000000	71.420307
606.000000	71.736574
605.000000	71.896388
604.000000	71.843565
603.000000	71.616778
602.000000	71.344984
601.000000	71.181691
600.000000	71.203237
599.000000	71.356025
598.000000	71.499470
597.000000	71.488452
596.000000	71.238053
595.000000	70.770061
594.000000	70.236292
593.000000	69.860488
592.000000	69.816356
591.000000	70.132240
590.000000	70.684727
589.000000	71.268759
588.000000	71.685845
587.000000	71.826898
586.000000	71.727740
585.000000	71.544289
584.000000	71.450082
583.000000	71.554089
582.000000	71.882695
581.000000	72.372824
580.000000	72.865077
579.000000	73.166049
578.000000	73.183221
577.000000	72.987516
576.000000	72.747522
575.000000	72.620545
574.000000	72.687262
573.000000	72.935636
572.000000	73.267100
571.000000	73.535603
570.000000	73.631768
569.000000	73.549146
568.000000	73.368156
567.000000	73.205116
566.000000	73.168092
565.000000	73.306963
564.000000	73.569856
563.000000	73.825434
562.000000	73.947079
561.000000	73.886014
560.000000	73.678514
559.000000	73.423497
558.000000	73.254371
557.000000	73.277034
556.000000	73.496597
555.000000	73.804309
554.000000	74.043061
553.000000	74.092944
552.000000	73.918110
551.000000	73.586704
550.000000	73.258068
549.000000	73.102212
548.000000	73.199817
547.000000	73.515049
546.000000	73.932471
545.000000	74.302439
544.000000	74.481746
543.000000	74.404248
542.000000	74.143528
541.000000	73.876263
540.000000	73.755676
539.000000	73.835226
538.000000	74.082152
537.000000	74.411268
536.000000	74.700838
535.000000	74.839006
534.000000	74.800800
533.000000	74.667846
532.000000	74.555527
531.000000	74.538658
530.000000	74.635043
529.000000	74.807265
528.000000	74.966412
527.000000	75.021140
526.000000	74.958926
525.000000	74.846686
524.000000	74.751508
523.000000	74.702624
522.000000	74.713290
521.000000	74.779426
520.000000	74.844829
519.000000	74.814384
518.000000	74.635808
517.000000	74.343610
516.000000	74.007850
515.000000	73.687248
514.000000	73.434097
513.000000	73.278358
512.000000	73.173900
511.000000	72.992705
510.000000	72.608711
509.000000	71.979536
508.000000	71.147569
507.000000	70.217929
506.000000	69.335543
505.000000	68.611764
504.000000	68.060343
503.000000	67.628003
502.000000	67.265232
501.000000	66.931011
500.000000	66.573420
499.000000	66.169661
498.000000	65.791772
497.000000	65.573973
496.000000	65.603651
495.000000	65.867449
494.000000	66.302355
493.000000	66.861594
492.000000	67.497356
491.000000	68.143944
490.000000	68.763260
489.000000	69.368972
488.000000	69.981737
487.000000	70.592665
486.000000	71.187287
485.000000	71.752221
484.000000	72.235733
483.000000	72.549526
482.000000	72.664903
481.000000	72.659771
480.000000	72.636190
479.000000	72.647907
478.000000	72.709330
477.000000	72.807592
476.000000	72.878247
475.000000	72.829602
474.000000	72.649653
473.000000	72.471681
472.000000	72.455144
471.000000	72.629295
470.000000	72.952343
469.000000	73.412498
468.000000	73.985753
467.000000	74.560452
466.000000	74.984823
465.000000	75.195273
464.000000	75.225808
463.000000	75.156094
462.000000	75.105876
461.000000	75.186950
460.000000	75.396028
459.000000	75.624005
458.000000	75.807275
457.000000	75.957022
456.000000	76.040875
455.000000	76.013021
454.000000	75.913309
453.000000	75.865489
452.000000	75.966170
451.000000	76.168678
450.000000	76.355281
449.000000	76.478911
448.000000	76.563895
447.000000	76.626461
446.000000	76.671554
445.000000	76.741856
444.000000	76.888981
443.000000	77.123885
442.000000	77.422315
441.000000	77.740503
440.000000	77.996969
439.000000	78.095990
438.000000	78.030938
437.000000	77.945725
436.000000	78.007213
435.000000	78.239522
434.000000	78.558807
433.000000	78.900681
432.000000	79.198988
431.000000	79.346871
430.000000	79.305212
429.000000	79.167574
428.000000	79.035793
427.000000	78.939768
426.000000	78.922022
425.000000	79.070693
424.000000	79.398319
423.000000	79.777329
422.000000	80.063073
421.000000	80.145135
420.000000	79.902005
419.000000	79.483212
418.000000	79.256341
417.000000	79.342886
416.000000	79.649914
415.000000	79.988460
414.000000	80.186963
413.000000	80.262596
412.000000	80.298187
411.000000	80.265255
410.000000	80.166088
409.000000	80.157568
408.000000	80.305519
407.000000	80.435465
406.000000	80.407161
405.000000	80.323068
404.000000	80.279468
403.000000	80.174496
402.000000	79.961875
401.000000	79.868566
400.000000	79.976700
