PE IR       SUBTECH     SPECTRUM    ASCII       PEDS        4.00        
   -1
23ms085_nitro.asc
24/09/12
15:20:51.00
24/09/12
15:20:51.00
Administrator
Sample 1165 By Administrator Date Thursday, September 12 2024
400.000000
#HDR
-1
-1
#GR
cm-1
%T
1.0
0.0
4000.000000
-1.000000
3601
8
89.522308
19.857418
#DATA
4000.000000	68.939770
3999.000000	68.965303
3998.000000	68.990110
3997.000000	69.014852
3996.000000	69.040375
3995.000000	69.067254
3994.000000	69.095409
3993.000000	69.124245
3992.000000	69.153171
3991.000000	69.181766
3990.000000	69.209503
3989.000000	69.235803
3988.000000	69.260651
3987.000000	69.284871
3986.000000	69.309423
3985.000000	69.334452
3984.000000	69.359280
3983.000000	69.383293
3982.000000	69.406677
3981.000000	69.430295
3980.000000	69.454899
3979.000000	69.480580
3978.000000	69.506809
3977.000000	69.532741
3976.000000	69.557544
3975.000000	69.580719
3974.000000	69.602405
3973.000000	69.623367
3972.000000	69.644624
3971.000000	69.667104
3970.000000	69.691197
3969.000000	69.716498
3968.000000	69.742059
3967.000000	69.766957
3966.000000	69.790752
3965.000000	69.813690
3964.000000	69.836459
3963.000000	69.859429
3962.000000	69.882307
3961.000000	69.904375
3960.000000	69.925320
3959.000000	69.945989
3958.000000	69.967583
3957.000000	69.990433
3956.000000	70.013988
3955.000000	70.037664
3954.000000	70.061239
3953.000000	70.084420
3952.000000	70.106834
3951.000000	70.128618
3950.000000	70.150298
3949.000000	70.172023
3948.000000	70.193362
3947.000000	70.213891
3946.000000	70.234195
3945.000000	70.256532
3944.000000	70.283678
3943.000000	70.315645
3942.000000	70.348701
3941.000000	70.378709
3940.000000	70.404687
3939.000000	70.428992
3938.000000	70.453557
3937.000000	70.477289
3936.000000	70.498005
3935.000000	70.515845
3934.000000	70.534222
3933.000000	70.556311
3932.000000	70.581924
3931.000000	70.608183
3930.000000	70.632263
3929.000000	70.654080
3928.000000	70.675490
3927.000000	70.698603
3926.000000	70.724662
3925.000000	70.752341
3924.000000	70.777791
3923.000000	70.797957
3922.000000	70.813607
3921.000000	70.828789
3920.000000	70.847370
3919.000000	70.870780
3918.000000	70.898707
3917.000000	70.930140
3916.000000	70.963165
3915.000000	70.995060
3914.000000	71.024725
3913.000000	71.053550
3912.000000	71.082489
3911.000000	71.110466
3910.000000	71.134929
3909.000000	71.154296
3908.000000	71.169499
3907.000000	71.182299
3906.000000	71.193952
3905.000000	71.204652
3904.000000	71.213879
3903.000000	71.222397
3902.000000	71.233133
3901.000000	71.250337
3900.000000	71.276825
3899.000000	71.309935
3898.000000	71.343045
3897.000000	71.371919
3896.000000	71.397182
3895.000000	71.422952
3894.000000	71.452898
3893.000000	71.487734
3892.000000	71.524033
3891.000000	71.556305
3890.000000	71.580142
3889.000000	71.594785
3888.000000	71.605869
3887.000000	71.623730
3886.000000	71.652649
3885.000000	71.683788
3884.000000	71.704704
3883.000000	71.714527
3882.000000	71.724373
3881.000000	71.744684
3880.000000	71.774461
3879.000000	71.804549
3878.000000	71.828953
3877.000000	71.849660
3876.000000	71.873188
3875.000000	71.903444
3874.000000	71.935486
3873.000000	71.958897
3872.000000	71.969976
3871.000000	71.977451
3870.000000	71.991843
3869.000000	72.012092
3868.000000	72.028728
3867.000000	72.039172
3866.000000	72.053762
3865.000000	72.082795
3864.000000	72.123305
3863.000000	72.164787
3862.000000	72.200827
3861.000000	72.231560
3860.000000	72.259670
3859.000000	72.288254
3858.000000	72.319159
3857.000000	72.350542
3856.000000	72.377269
3855.000000	72.394333
3854.000000	72.400635
3853.000000	72.401457
3852.000000	72.405804
3851.000000	72.418789
3850.000000	72.440995
3849.000000	72.473089
3848.000000	72.513756
3847.000000	72.559429
3846.000000	72.605333
3845.000000	72.645418
3844.000000	72.674565
3843.000000	72.692111
3842.000000	72.700644
3841.000000	72.705384
3840.000000	72.712866
3839.000000	72.728404
3838.000000	72.753902
3837.000000	72.786576
3836.000000	72.820896
3835.000000	72.852276
3834.000000	72.879942
3833.000000	72.907421
3832.000000	72.938117
3831.000000	72.971018
3830.000000	73.002687
3829.000000	73.031266
3828.000000	73.057968
3827.000000	73.086017
3826.000000	73.115198
3825.000000	73.140930
3824.000000	73.160239
3823.000000	73.177785
3822.000000	73.201332
3821.000000	73.229614
3820.000000	73.252171
3819.000000	73.263032
3818.000000	73.268355
3817.000000	73.281901
3816.000000	73.312546
3815.000000	73.354807
3814.000000	73.396975
3813.000000	73.433734
3812.000000	73.467474
3811.000000	73.502214
3810.000000	73.538486
3809.000000	73.573154
3808.000000	73.603539
3807.000000	73.628514
3806.000000	73.645873
3805.000000	73.653681
3804.000000	73.654087
3803.000000	73.657593
3802.000000	73.674346
3801.000000	73.701617
3800.000000	73.729372
3799.000000	73.754442
3798.000000	73.782224
3797.000000	73.818457
3796.000000	73.862288
3795.000000	73.907250
3794.000000	73.948502
3793.000000	73.985985
3792.000000	74.021387
3791.000000	74.055185
3790.000000	74.086299
3789.000000	74.113723
3788.000000	74.138528
3787.000000	74.163278
3786.000000	74.189866
3785.000000	74.217977
3784.000000	74.245418
3783.000000	74.270408
3782.000000	74.293983
3781.000000	74.319501
3780.000000	74.348689
3779.000000	74.378965
3778.000000	74.405860
3777.000000	74.427960
3776.000000	74.448387
3775.000000	74.471860
3774.000000	74.499766
3773.000000	74.528875
3772.000000	74.556091
3771.000000	74.582096
3770.000000	74.607178
3769.000000	74.628569
3768.000000	74.645282
3767.000000	74.661454
3766.000000	74.683057
3765.000000	74.711113
3764.000000	74.740714
3763.000000	74.767096
3762.000000	74.790685
3761.000000	74.816131
3760.000000	74.844930
3759.000000	74.873618
3758.000000	74.899587
3757.000000	74.922885
3756.000000	74.943179
3755.000000	74.959026
3754.000000	74.971247
3753.000000	74.983548
3752.000000	74.996932
3751.000000	75.008023
3750.000000	75.016768
3749.000000	75.029036
3748.000000	75.046979
3747.000000	75.067812
3746.000000	75.093007
3745.000000	75.127077
3744.000000	75.167870
3743.000000	75.209109
3742.000000	75.247252
3741.000000	75.282898
3740.000000	75.318048
3739.000000	75.352181
3738.000000	75.383948
3737.000000	75.414703
3736.000000	75.448046
3735.000000	75.482925
3734.000000	75.515151
3733.000000	75.545977
3732.000000	75.580157
3731.000000	75.619008
3730.000000	75.658899
3729.000000	75.695821
3728.000000	75.730871
3727.000000	75.767979
3726.000000	75.807249
3725.000000	75.844251
3724.000000	75.877207
3723.000000	75.908815
3722.000000	75.940936
3721.000000	75.973781
3720.000000	76.006937
3719.000000	76.040475
3718.000000	76.074955
3717.000000	76.109423
3716.000000	76.141201
3715.000000	76.168091
3714.000000	76.190402
3713.000000	76.210173
3712.000000	76.229045
3711.000000	76.248894
3710.000000	76.272938
3709.000000	76.302939
3708.000000	76.337997
3707.000000	76.376569
3706.000000	76.417488
3705.000000	76.459710
3704.000000	76.502562
3703.000000	76.545611
3702.000000	76.587084
3701.000000	76.624674
3700.000000	76.657827
3699.000000	76.688195
3698.000000	76.718747
3697.000000	76.751201
3696.000000	76.783093
3695.000000	76.809839
3694.000000	76.829857
3693.000000	76.846608
3692.000000	76.865164
3691.000000	76.888063
3690.000000	76.913758
3689.000000	76.938860
3688.000000	76.963202
3687.000000	76.989663
3686.000000	77.019967
3685.000000	77.053810
3684.000000	77.089403
3683.000000	77.123820
3682.000000	77.154409
3681.000000	77.180211
3680.000000	77.202571
3679.000000	77.220505
3678.000000	77.230861
3677.000000	77.236463
3676.000000	77.246488
3675.000000	77.265925
3674.000000	77.289885
3673.000000	77.311007
3672.000000	77.329047
3671.000000	77.353470
3670.000000	77.390723
3669.000000	77.435897
3668.000000	77.483150
3667.000000	77.531274
3666.000000	77.579857
3665.000000	77.629397
3664.000000	77.680513
3663.000000	77.732972
3662.000000	77.785182
3661.000000	77.833279
3660.000000	77.872557
3659.000000	77.898496
3658.000000	77.909265
3657.000000	77.908457
3656.000000	77.904218
3655.000000	77.904112
3654.000000	77.909197
3653.000000	77.916035
3652.000000	77.922702
3651.000000	77.928232
3650.000000	77.929344
3649.000000	77.926809
3648.000000	77.933838
3647.000000	77.962341
3646.000000	78.008267
3645.000000	78.059826
3644.000000	78.110097
3643.000000	78.158267
3642.000000	78.203908
3641.000000	78.244260
3640.000000	78.277781
3639.000000	78.306674
3638.000000	78.333680
3637.000000	78.358300
3636.000000	78.378788
3635.000000	78.396346
3634.000000	78.413577
3633.000000	78.429074
3632.000000	78.436086
3631.000000	78.428410
3630.000000	78.407870
3629.000000	78.385735
3628.000000	78.376484
3627.000000	78.389622
3626.000000	78.422856
3625.000000	78.466651
3624.000000	78.513267
3623.000000	78.557970
3622.000000	78.595565
3621.000000	78.619977
3620.000000	78.627079
3619.000000	78.619278
3618.000000	78.606566
3617.000000	78.599119
3616.000000	78.600599
3615.000000	78.610242
3614.000000	78.625811
3613.000000	78.643914
3612.000000	78.661430
3611.000000	78.677067
3610.000000	78.691775
3609.000000	78.708655
3608.000000	78.730612
3607.000000	78.758576
3606.000000	78.790866
3605.000000	78.823310
3604.000000	78.852159
3603.000000	78.876348
3602.000000	78.897031
3601.000000	78.916141
3600.000000	78.934054
3599.000000	78.949026
3598.000000	78.959916
3597.000000	78.967413
3596.000000	78.974169
3595.000000	78.983637
3594.000000	78.997220
3593.000000	79.013288
3592.000000	79.028322
3591.000000	79.038489
3590.000000	79.042380
3589.000000	79.043673
3588.000000	79.049666
3587.000000	79.065842
3586.000000	79.092256
3585.000000	79.124811
3584.000000	79.158841
3583.000000	79.191226
3582.000000	79.219802
3581.000000	79.242646
3580.000000	79.259303
3579.000000	79.271725
3578.000000	79.282889
3577.000000	79.294788
3576.000000	79.308164
3575.000000	79.323796
3574.000000	79.342367
3573.000000	79.363361
3572.000000	79.384659
3571.000000	79.401821
3570.000000	79.408669
3569.000000	79.401981
3568.000000	79.386441
3567.000000	79.373471
3566.000000	79.373543
3565.000000	79.390362
3564.000000	79.421243
3563.000000	79.460986
3562.000000	79.503637
3561.000000	79.543510
3560.000000	79.577618
3559.000000	79.606637
3558.000000	79.632392
3557.000000	79.655058
3556.000000	79.673751
3555.000000	79.688665
3554.000000	79.701287
3553.000000	79.712716
3552.000000	79.723154
3551.000000	79.732756
3550.000000	79.742225
3549.000000	79.753658
3548.000000	79.770456
3547.000000	79.794857
3546.000000	79.824721
3545.000000	79.854544
3544.000000	79.880155
3543.000000	79.900984
3542.000000	79.917859
3541.000000	79.931506
3540.000000	79.943941
3539.000000	79.958482
3538.000000	79.976683
3537.000000	79.995808
3536.000000	80.011564
3535.000000	80.022793
3534.000000	80.032094
3533.000000	80.042655
3532.000000	80.055533
3531.000000	80.069338
3530.000000	80.081032
3529.000000	80.088240
3528.000000	80.092099
3527.000000	80.097226
3526.000000	80.107678
3525.000000	80.123111
3524.000000	80.139299
3523.000000	80.152181
3522.000000	80.161299
3521.000000	80.169762
3520.000000	80.181295
3519.000000	80.196995
3518.000000	80.214875
3517.000000	80.232443
3516.000000	80.248994
3515.000000	80.264454
3514.000000	80.276463
3513.000000	80.281064
3512.000000	80.277054
3511.000000	80.268074
3510.000000	80.259477
3509.000000	80.254681
3508.000000	80.254783
3507.000000	80.259948
3506.000000	80.269548
3505.000000	80.281588
3504.000000	80.292793
3503.000000	80.299536
3502.000000	80.299534
3501.000000	80.293872
3500.000000	80.287047
3499.000000	80.283224
3498.000000	80.282154
3497.000000	80.279849
3496.000000	80.273450
3495.000000	80.263888
3494.000000	80.253406
3493.000000	80.242638
3492.000000	80.231426
3491.000000	80.220500
3490.000000	80.210560
3489.000000	80.200912
3488.000000	80.190025
3487.000000	80.176537
3486.000000	80.159351
3485.000000	80.138135
3484.000000	80.114871
3483.000000	80.093603
3482.000000	80.076951
3481.000000	80.063361
3480.000000	80.048243
3479.000000	80.027469
3478.000000	79.999632
3477.000000	79.966447
3476.000000	79.931734
3475.000000	79.898990
3474.000000	79.869727
3473.000000	79.844439
3472.000000	79.824174
3471.000000	79.808955
3470.000000	79.794497
3469.000000	79.773042
3468.000000	79.738776
3467.000000	79.691492
3466.000000	79.635207
3465.000000	79.575368
3464.000000	79.517840
3463.000000	79.467432
3462.000000	79.424812
3461.000000	79.385658
3460.000000	79.344126
3459.000000	79.296953
3458.000000	79.244102
3457.000000	79.187101
3456.000000	79.128064
3455.000000	79.068689
3454.000000	79.009151
3453.000000	78.948645
3452.000000	78.887245
3451.000000	78.826177
3450.000000	78.765583
3449.000000	78.703469
3448.000000	78.637774
3447.000000	78.568484
3446.000000	78.497110
3445.000000	78.424874
3444.000000	78.351868
3443.000000	78.277328
3442.000000	78.200583
3441.000000	78.122664
3440.000000	78.046820
3439.000000	77.975864
3438.000000	77.908500
3437.000000	77.839198
3436.000000	77.762175
3435.000000	77.674611
3434.000000	77.577048
3433.000000	77.472953
3432.000000	77.367107
3431.000000	77.262127
3430.000000	77.155608
3429.000000	77.042526
3428.000000	76.921069
3427.000000	76.794246
3426.000000	76.666228
3425.000000	76.539190
3424.000000	76.413608
3423.000000	76.288895
3422.000000	76.162494
3421.000000	76.030746
3420.000000	75.892143
3419.000000	75.748472
3418.000000	75.602311
3417.000000	75.454891
3416.000000	75.306552
3415.000000	75.156922
3414.000000	75.003726
3413.000000	74.843796
3412.000000	74.676284
3411.000000	74.503422
3410.000000	74.327113
3409.000000	74.146143
3408.000000	73.958067
3407.000000	73.762430
3406.000000	73.561504
3405.000000	73.359000
3404.000000	73.158239
3403.000000	72.959779
3402.000000	72.759062
3401.000000	72.547581
3400.000000	72.318241
3399.000000	72.070280
3398.000000	71.809553
3397.000000	71.544545
3396.000000	71.281489
3395.000000	71.021656
3394.000000	70.761214
3393.000000	70.493560
3392.000000	70.212532
3391.000000	69.914800
3390.000000	69.601657
3389.000000	69.278607
3388.000000	68.952077
3387.000000	68.624847
3386.000000	68.294789
3385.000000	67.958951
3384.000000	67.617069
3383.000000	67.270415
3382.000000	66.918609
3381.000000	66.559363
3380.000000	66.191019
3379.000000	65.813558
3378.000000	65.427683
3377.000000	65.034245
3376.000000	64.634167
3375.000000	64.228514
3374.000000	63.818786
3373.000000	63.407220
3372.000000	62.995393
3371.000000	62.581031
3370.000000	62.158015
3369.000000	61.720450
3368.000000	61.266467
3367.000000	60.798069
3366.000000	60.318836
3365.000000	59.833273
3364.000000	59.346139
3363.000000	58.860243
3362.000000	58.375207
3361.000000	57.888686
3360.000000	57.398238
3359.000000	56.901758
3358.000000	56.397762
3357.000000	55.886751
3356.000000	55.370942
3355.000000	54.852460
3354.000000	54.332709
3353.000000	53.813206
3352.000000	53.294968
3351.000000	52.776446
3350.000000	52.254416
3349.000000	51.727943
3348.000000	51.199689
3347.000000	50.672778
3346.000000	50.148032
3345.000000	49.624626
3344.000000	49.101330
3343.000000	48.576714
3342.000000	48.050446
3341.000000	47.525009
3340.000000	47.004027
3339.000000	46.488333
3338.000000	45.975751
3337.000000	45.465011
3336.000000	44.957630
3335.000000	44.455482
3334.000000	43.958908
3333.000000	43.467842
3332.000000	42.982127
3331.000000	42.500379
3330.000000	42.020880
3329.000000	41.544262
3328.000000	41.073563
3327.000000	40.610864
3326.000000	40.156056
3325.000000	39.708850
3324.000000	39.269506
3323.000000	38.837801
3322.000000	38.413198
3321.000000	37.996314
3320.000000	37.588215
3319.000000	37.187972
3318.000000	36.793813
3317.000000	36.405947
3316.000000	36.026263
3315.000000	35.655746
3314.000000	35.294255
3313.000000	34.942886
3312.000000	34.603537
3311.000000	34.276410
3310.000000	33.960812
3309.000000	33.657388
3308.000000	33.367767
3307.000000	33.091916
3306.000000	32.828193
3305.000000	32.576081
3304.000000	32.335676
3303.000000	32.106215
3302.000000	31.887053
3301.000000	31.679393
3300.000000	31.485144
3299.000000	31.304240
3298.000000	31.135805
3297.000000	30.980495
3296.000000	30.838722
3295.000000	30.708666
3294.000000	30.588089
3293.000000	30.477358
3292.000000	30.377903
3291.000000	30.288368
3290.000000	30.206316
3289.000000	30.131566
3288.000000	30.065399
3287.000000	30.007481
3286.000000	29.956187
3285.000000	29.911591
3284.000000	29.874391
3283.000000	29.843241
3282.000000	29.815935
3281.000000	29.792108
3280.000000	29.772496
3279.000000	29.756310
3278.000000	29.742315
3277.000000	29.731353
3276.000000	29.724754
3275.000000	29.721603
3274.000000	29.720354
3273.000000	29.722047
3272.000000	29.728861
3271.000000	29.740157
3270.000000	29.752964
3269.000000	29.765581
3268.000000	29.778103
3267.000000	29.790453
3266.000000	29.802566
3265.000000	29.815824
3264.000000	29.831720
3263.000000	29.849709
3262.000000	29.868593
3261.000000	29.888695
3260.000000	29.910630
3259.000000	29.933312
3258.000000	29.955584
3257.000000	29.978485
3256.000000	30.003203
3255.000000	30.028325
3254.000000	30.051756
3253.000000	30.074102
3252.000000	30.097461
3251.000000	30.122236
3250.000000	30.147826
3249.000000	30.175104
3248.000000	30.205178
3247.000000	30.236628
3246.000000	30.266743
3245.000000	30.294752
3244.000000	30.321562
3243.000000	30.347336
3242.000000	30.371841
3241.000000	30.396087
3240.000000	30.421145
3239.000000	30.446242
3238.000000	30.470336
3237.000000	30.494535
3236.000000	30.520774
3235.000000	30.549004
3234.000000	30.577659
3233.000000	30.605688
3232.000000	30.632086
3231.000000	30.655041
3230.000000	30.673893
3229.000000	30.690694
3228.000000	30.707766
3227.000000	30.724914
3226.000000	30.740974
3225.000000	30.756489
3224.000000	30.772445
3223.000000	30.788078
3222.000000	30.802220
3221.000000	30.815361
3220.000000	30.828022
3219.000000	30.838507
3218.000000	30.844871
3217.000000	30.847803
3216.000000	30.849290
3215.000000	30.849764
3214.000000	30.848604
3213.000000	30.846197
3212.000000	30.843078
3211.000000	30.838372
3210.000000	30.831318
3209.000000	30.822863
3208.000000	30.813836
3207.000000	30.802889
3206.000000	30.788288
3205.000000	30.770360
3204.000000	30.749990
3203.000000	30.726573
3202.000000	30.699669
3201.000000	30.671007
3200.000000	30.642578
3199.000000	30.613941
3198.000000	30.583683
3197.000000	30.551973
3196.000000	30.519431
3195.000000	30.485139
3194.000000	30.447976
3193.000000	30.408688
3192.000000	30.368529
3191.000000	30.327111
3190.000000	30.283656
3189.000000	30.238743
3188.000000	30.192943
3187.000000	30.145452
3186.000000	30.096001
3185.000000	30.046503
3184.000000	29.998697
3183.000000	29.951796
3182.000000	29.904383
3181.000000	29.856805
3180.000000	29.809721
3179.000000	29.762193
3178.000000	29.713391
3177.000000	29.664475
3176.000000	29.616688
3175.000000	29.569286
3174.000000	29.521366
3173.000000	29.473961
3172.000000	29.428393
3171.000000	29.384427
3170.000000	29.341877
3169.000000	29.302025
3168.000000	29.265454
3167.000000	29.230399
3166.000000	29.195326
3165.000000	29.161142
3164.000000	29.128950
3163.000000	29.097831
3162.000000	29.066828
3161.000000	29.037153
3160.000000	29.010216
3159.000000	28.985407
3158.000000	28.961887
3157.000000	28.940557
3156.000000	28.922524
3155.000000	28.907536
3154.000000	28.895530
3153.000000	28.887457
3152.000000	28.882684
3151.000000	28.878221
3150.000000	28.872495
3149.000000	28.867455
3148.000000	28.865204
3147.000000	28.865045
3146.000000	28.866026
3145.000000	28.869594
3144.000000	28.877249
3143.000000	28.888199
3142.000000	28.901604
3141.000000	28.918835
3140.000000	28.940837
3139.000000	28.965344
3138.000000	28.989422
3137.000000	29.012761
3136.000000	29.036471
3135.000000	29.060818
3134.000000	29.086373
3133.000000	29.115418
3132.000000	29.149586
3131.000000	29.187810
3130.000000	29.228521
3129.000000	29.271810
3128.000000	29.317730
3127.000000	29.364572
3126.000000	29.410933
3125.000000	29.457699
3124.000000	29.506126
3123.000000	29.556072
3122.000000	29.607615
3121.000000	29.662127
3120.000000	29.720147
3119.000000	29.780397
3118.000000	29.842628
3117.000000	29.908813
3116.000000	29.979621
3115.000000	30.052291
3114.000000	30.123916
3113.000000	30.194756
3112.000000	30.266519
3111.000000	30.339795
3110.000000	30.414970
3109.000000	30.493109
3108.000000	30.574057
3107.000000	30.655862
3106.000000	30.737777
3105.000000	30.821785
3104.000000	30.909581
3103.000000	31.000488
3102.000000	31.093636
3101.000000	31.189301
3100.000000	31.286604
3099.000000	31.382740
3098.000000	31.476691
3097.000000	31.571078
3096.000000	31.668303
3095.000000	31.767588
3094.000000	31.867710
3093.000000	31.969989
3092.000000	32.076126
3091.000000	32.185223
3090.000000	32.295243
3089.000000	32.405480
3088.000000	32.515717
3087.000000	32.625013
3086.000000	32.733143
3085.000000	32.841471
3084.000000	32.950775
3083.000000	33.060251
3082.000000	33.170148
3081.000000	33.282996
3080.000000	33.400545
3079.000000	33.521455
3078.000000	33.643465
3077.000000	33.765630
3076.000000	33.887031
3075.000000	34.005889
3074.000000	34.121740
3073.000000	34.236424
3072.000000	34.351418
3071.000000	34.466378
3070.000000	34.581674
3069.000000	34.699728
3068.000000	34.821956
3067.000000	34.946697
3066.000000	35.071851
3065.000000	35.197356
3064.000000	35.323236
3063.000000	35.447589
3062.000000	35.568632
3061.000000	35.686939
3060.000000	35.803988
3059.000000	35.920329
3058.000000	36.036679
3057.000000	36.154741
3056.000000	36.275238
3055.000000	36.396920
3054.000000	36.519029
3053.000000	36.642793
3052.000000	36.768888
3051.000000	36.895272
3050.000000	37.019182
3049.000000	37.139719
3048.000000	37.257247
3047.000000	37.372122
3046.000000	37.485474
3045.000000	37.599528
3044.000000	37.715649
3043.000000	37.833470
3042.000000	37.952700
3041.000000	38.073888
3040.000000	38.196403
3039.000000	38.317833
3038.000000	38.436787
3037.000000	38.554338
3036.000000	38.671460
3035.000000	38.787038
3034.000000	38.899839
3033.000000	39.010703
3032.000000	39.121361
3031.000000	39.232637
3030.000000	39.345002
3029.000000	39.459260
3028.000000	39.575563
3027.000000	39.693146
3026.000000	39.811625
3025.000000	39.930816
3024.000000	40.048825
3023.000000	40.162589
3022.000000	40.271388
3021.000000	40.377734
3020.000000	40.484020
3019.000000	40.590406
3018.000000	40.696921
3017.000000	40.805129
3016.000000	40.916283
3015.000000	41.029841
3014.000000	41.145018
3013.000000	41.261718
3012.000000	41.378624
3011.000000	41.492502
3010.000000	41.601030
3009.000000	41.704916
3008.000000	41.806237
3007.000000	41.906454
3006.000000	42.006990
3005.000000	42.109655
3004.000000	42.215077
3003.000000	42.322112
3002.000000	42.429881
3001.000000	42.538830
3000.000000	42.648878
2999.000000	42.758207
2998.000000	42.864886
2997.000000	42.968337
2996.000000	43.068674
2995.000000	43.166429
2994.000000	43.263589
2993.000000	43.362866
2992.000000	43.464911
2991.000000	43.567982
2990.000000	43.671097
2989.000000	43.775416
2988.000000	43.881525
2987.000000	43.987470
2986.000000	44.090750
2985.000000	44.190612
2984.000000	44.287332
2983.000000	44.381123
2982.000000	44.473021
2981.000000	44.565111
2980.000000	44.658546
2979.000000	44.752706
2978.000000	44.847288
2977.000000	44.943606
2976.000000	45.042597
2975.000000	45.142998
2974.000000	45.242536
2973.000000	45.339564
2972.000000	45.432820
2971.000000	45.521375
2970.000000	45.606171
2969.000000	45.690284
2968.000000	45.776485
2967.000000	45.865617
2966.000000	45.957880
2965.000000	46.053937
2964.000000	46.153652
2963.000000	46.255173
2962.000000	46.356374
2961.000000	46.456006
2960.000000	46.552834
2959.000000	46.645329
2958.000000	46.733059
2957.000000	46.817136
2956.000000	46.898867
2955.000000	46.979576
2954.000000	47.061819
2953.000000	47.148297
2952.000000	47.238814
2951.000000	47.330446
2950.000000	47.421561
2949.000000	47.513344
2948.000000	47.606562
2947.000000	47.699306
2946.000000	47.789344
2945.000000	47.876486
2944.000000	47.961272
2943.000000	48.043470
2942.000000	48.123660
2941.000000	48.204584
2940.000000	48.289039
2939.000000	48.377549
2938.000000	48.469186
2937.000000	48.563108
2936.000000	48.657783
2935.000000	48.750197
2934.000000	48.837771
2933.000000	48.920388
2932.000000	48.999451
2931.000000	49.075998
2930.000000	49.150867
2929.000000	49.225597
2928.000000	49.301923
2927.000000	49.381142
2926.000000	49.464543
2925.000000	49.553039
2924.000000	49.645343
2923.000000	49.737726
2922.000000	49.826438
2921.000000	49.909325
2920.000000	49.984790
2919.000000	50.051256
2918.000000	50.108930
2917.000000	50.160741
2916.000000	50.210411
2915.000000	50.260389
2914.000000	50.312161
2913.000000	50.367074
2912.000000	50.425986
2911.000000	50.488937
2910.000000	50.555576
2909.000000	50.624913
2908.000000	50.694505
2907.000000	50.761393
2906.000000	50.824388
2905.000000	50.884430
2904.000000	50.942763
2903.000000	51.000177
2902.000000	51.058623
2901.000000	51.121146
2900.000000	51.189824
2899.000000	51.264617
2898.000000	51.344166
2897.000000	51.426225
2896.000000	51.506979
2895.000000	51.582122
2894.000000	51.649717
2893.000000	51.711022
2892.000000	51.768171
2891.000000	51.822631
2890.000000	51.876331
2889.000000	51.932336
2888.000000	51.993145
2887.000000	52.059398
2886.000000	52.130827
2885.000000	52.207054
2884.000000	52.286601
2883.000000	52.366377
2882.000000	52.443252
2881.000000	52.515461
2880.000000	52.582336
2879.000000	52.644232
2878.000000	52.703665
2877.000000	52.765187
2876.000000	52.832434
2875.000000	52.905208
2874.000000	52.979919
2873.000000	53.052654
2872.000000	53.121931
2871.000000	53.189359
2870.000000	53.257793
2869.000000	53.328176
2868.000000	53.398016
2867.000000	53.463585
2866.000000	53.523547
2865.000000	53.579878
2864.000000	53.635996
2863.000000	53.695070
2862.000000	53.759456
2861.000000	53.829662
2860.000000	53.903568
2859.000000	53.978195
2858.000000	54.052442
2857.000000	54.126897
2856.000000	54.201277
2855.000000	54.273915
2854.000000	54.343893
2853.000000	54.411919
2852.000000	54.478790
2851.000000	54.544419
2850.000000	54.608434
2849.000000	54.670211
2848.000000	54.728427
2847.000000	54.782552
2846.000000	54.834903
2845.000000	54.889347
2844.000000	54.947816
2843.000000	55.009639
2842.000000	55.073902
2841.000000	55.139751
2840.000000	55.204136
2839.000000	55.262460
2838.000000	55.313403
2837.000000	55.361388
2836.000000	55.412773
2835.000000	55.470817
2834.000000	55.535021
2833.000000	55.603445
2832.000000	55.673900
2831.000000	55.744008
2830.000000	55.811925
2829.000000	55.876944
2828.000000	55.938807
2827.000000	55.997247
2826.000000	56.052942
2825.000000	56.108078
2824.000000	56.165109
2823.000000	56.225465
2822.000000	56.289794
2821.000000	56.358379
2820.000000	56.430460
2819.000000	56.503876
2818.000000	56.576043
2817.000000	56.644891
2816.000000	56.708846
2815.000000	56.767257
2814.000000	56.821569
2813.000000	56.875023
2812.000000	56.930266
2811.000000	56.987735
2810.000000	57.046740
2809.000000	57.107115
2808.000000	57.169086
2807.000000	57.232292
2806.000000	57.295697
2805.000000	57.357883
2804.000000	57.417019
2803.000000	57.471459
2802.000000	57.521165
2801.000000	57.568031
2800.000000	57.614276
2799.000000	57.661044
2798.000000	57.708963
2797.000000	57.759105
2796.000000	57.812541
2795.000000	57.869364
2794.000000	57.928643
2793.000000	57.988837
2792.000000	58.047817
2791.000000	58.103194
2790.000000	58.153399
2789.000000	58.198524
2788.000000	58.240160
2787.000000	58.280932
2786.000000	58.324083
2785.000000	58.372343
2784.000000	58.426450
2783.000000	58.485070
2782.000000	58.546219
2781.000000	58.608010
2780.000000	58.668080
2779.000000	58.723703
2778.000000	58.773339
2777.000000	58.817420
2776.000000	58.857157
2775.000000	58.893311
2774.000000	58.926800
2773.000000	58.959670
2772.000000	58.994324
2771.000000	59.031962
2770.000000	59.072087
2769.000000	59.112907
2768.000000	59.151628
2767.000000	59.184871
2766.000000	59.209920
2765.000000	59.225835
2764.000000	59.233474
2763.000000	59.235056
2762.000000	59.233840
2761.000000	59.233530
2760.000000	59.237131
2759.000000	59.246121
2758.000000	59.260573
2757.000000	59.279252
2756.000000	59.299413
2755.000000	59.317459
2754.000000	59.330497
2753.000000	59.337105
2752.000000	59.336573
2751.000000	59.328546
2750.000000	59.313984
2749.000000	59.295479
2748.000000	59.275847
2747.000000	59.256638
2746.000000	59.238393
2745.000000	59.221454
2744.000000	59.205394
2743.000000	59.188273
2742.000000	59.167410
2741.000000	59.140873
2740.000000	59.108075
2739.000000	59.069752
2738.000000	59.028465
2737.000000	58.989078
2736.000000	58.957801
2735.000000	58.940481
2734.000000	58.941708
2733.000000	58.964029
2732.000000	59.007179
2731.000000	59.068199
2730.000000	59.142530
2729.000000	59.225294
2728.000000	59.311179
2727.000000	59.394556
2726.000000	59.471553
2725.000000	59.542005
2724.000000	59.609141
2723.000000	59.677213
2722.000000	59.749527
2721.000000	59.828128
2720.000000	59.913869
2719.000000	60.006055
2718.000000	60.102092
2717.000000	60.197695
2716.000000	60.287773
2715.000000	60.367801
2714.000000	60.434974
2713.000000	60.488694
2712.000000	60.530301
2711.000000	60.562451
2710.000000	60.589019
2709.000000	60.614763
2708.000000	60.644118
2707.000000	60.679797
2706.000000	60.721871
2705.000000	60.767952
2704.000000	60.813933
2703.000000	60.855017
2702.000000	60.887002
2701.000000	60.907203
2700.000000	60.914968
2699.000000	60.911772
2698.000000	60.901084
2697.000000	60.887950
2696.000000	60.877755
2695.000000	60.874823
2694.000000	60.881516
2693.000000	60.897774
2692.000000	60.921068
2691.000000	60.946971
2690.000000	60.970380
2689.000000	60.986792
2688.000000	60.993165
2687.000000	60.988495
2686.000000	60.974193
2685.000000	60.954011
2684.000000	60.933155
2683.000000	60.916845
2682.000000	60.908997
2681.000000	60.911354
2680.000000	60.923208
2679.000000	60.941908
2678.000000	60.963836
2677.000000	60.985100
2676.000000	61.001969
2675.000000	61.011533
2674.000000	61.012609
2673.000000	61.006375
2672.000000	60.996282
2671.000000	60.987397
2670.000000	60.985227
2669.000000	60.994111
2668.000000	61.015934
2667.000000	61.049785
2666.000000	61.092529
2665.000000	61.139393
2664.000000	61.184447
2663.000000	61.221881
2662.000000	61.247678
2661.000000	61.260543
2660.000000	61.261862
2659.000000	61.255350
2658.000000	61.246327
2657.000000	61.240277
2656.000000	61.241157
2655.000000	61.250736
2654.000000	61.269212
2653.000000	61.295693
2652.000000	61.327820
2651.000000	61.361812
2650.000000	61.393799
2649.000000	61.421282
2648.000000	61.443779
2647.000000	61.462763
2646.000000	61.481498
2645.000000	61.504703
2644.000000	61.537217
2643.000000	61.582595
2642.000000	61.642170
2641.000000	61.714652
2640.000000	61.796353
2639.000000	61.881813
2638.000000	61.965139
2637.000000	62.041355
2636.000000	62.107155
2635.000000	62.161236
2634.000000	62.204445
2633.000000	62.239557
2632.000000	62.270579
2631.000000	62.301872
2630.000000	62.337048
2629.000000	62.378159
2628.000000	62.425137
2627.000000	62.475713
2626.000000	62.526055
2625.000000	62.571682
2624.000000	62.608719
2623.000000	62.634996
2622.000000	62.650566
2621.000000	62.657562
2620.000000	62.659303
2619.000000	62.659455
2618.000000	62.661393
2617.000000	62.667544
2616.000000	62.678927
2615.000000	62.694848
2614.000000	62.712965
2613.000000	62.729602
2612.000000	62.740312
2611.000000	62.741159
2610.000000	62.730015
2609.000000	62.707293
2608.000000	62.675718
2607.000000	62.639455
2606.000000	62.603460
2605.000000	62.572862
2604.000000	62.552110
2603.000000	62.544119
2602.000000	62.549823
2601.000000	62.567896
2600.000000	62.595065
2599.000000	62.627044
2598.000000	62.659656
2597.000000	62.690116
2596.000000	62.717471
2595.000000	62.742643
2594.000000	62.768089
2593.000000	62.796824
2592.000000	62.831645
2591.000000	62.874540
2590.000000	62.926416
2589.000000	62.986794
2588.000000	63.053441
2587.000000	63.122856
2586.000000	63.191273
2585.000000	63.255564
2584.000000	63.313781
2583.000000	63.365439
2582.000000	63.411753
2581.000000	63.455490
2580.000000	63.500255
2579.000000	63.549534
2578.000000	63.605890
2577.000000	63.670504
2576.000000	63.742865
2575.000000	63.820691
2574.000000	63.900270
2573.000000	63.977234
2572.000000	64.047674
2571.000000	64.109213
2570.000000	64.161540
2569.000000	64.206151
2568.000000	64.245720
2567.000000	64.283213
2566.000000	64.321220
2565.000000	64.361684
2564.000000	64.405393
2563.000000	64.451515
2562.000000	64.497329
2561.000000	64.538777
2560.000000	64.571760
2559.000000	64.592954
2558.000000	64.600510
2557.000000	64.594489
2556.000000	64.577289
2555.000000	64.553729
2554.000000	64.530103
2553.000000	64.512960
2552.000000	64.507912
2551.000000	64.518638
2550.000000	64.546169
2549.000000	64.589114
2548.000000	64.644229
2547.000000	64.707252
2546.000000	64.773795
2545.000000	64.839777
2544.000000	64.902440
2543.000000	64.960987
2542.000000	65.016432
2541.000000	65.070825
2540.000000	65.126073
2539.000000	65.183185
2538.000000	65.242123
2537.000000	65.302109
2536.000000	65.361861
2535.000000	65.419610
2534.000000	65.473155
2533.000000	65.520534
2532.000000	65.560957
2531.000000	65.595008
2530.000000	65.624340
2529.000000	65.651286
2528.000000	65.678570
2527.000000	65.708745
2526.000000	65.743373
2525.000000	65.782790
2524.000000	65.826396
2523.000000	65.872811
2522.000000	65.919915
2521.000000	65.965399
2520.000000	66.007661
2519.000000	66.046156
2518.000000	66.081003
2517.000000	66.112707
2516.000000	66.142276
2515.000000	66.171198
2514.000000	66.200946
2513.000000	66.232548
2512.000000	66.266508
2511.000000	66.302614
2510.000000	66.339766
2509.000000	66.376328
2508.000000	66.410923
2507.000000	66.442870
2506.000000	66.472034
2505.000000	66.498686
2504.000000	66.523452
2503.000000	66.547005
2502.000000	66.569979
2501.000000	66.593385
2500.000000	66.618756
2499.000000	66.647060
2498.000000	66.677426
2497.000000	66.707606
2496.000000	66.735732
2495.000000	66.761209
2494.000000	66.784079
2493.000000	66.804396
2492.000000	66.822574
2491.000000	66.839628
2490.000000	66.856745
2489.000000	66.874995
2488.000000	66.895422
2487.000000	66.918674
2486.000000	66.944110
2485.000000	66.969762
2484.000000	66.993644
2483.000000	67.014854
2482.000000	67.033407
2481.000000	67.049550
2480.000000	67.063624
2479.000000	67.076306
2478.000000	67.088652
2477.000000	67.102018
2476.000000	67.117822
2475.000000	67.136861
2474.000000	67.158660
2473.000000	67.181676
2472.000000	67.204203
2471.000000	67.224950
2470.000000	67.243045
2469.000000	67.258104
2468.000000	67.270441
2467.000000	67.280858
2466.000000	67.290274
2465.000000	67.299831
2464.000000	67.311121
2463.000000	67.325604
2462.000000	67.343698
2461.000000	67.364734
2460.000000	67.387594
2459.000000	67.410880
2458.000000	67.432705
2457.000000	67.451232
2456.000000	67.465653
2455.000000	67.476319
2454.000000	67.484121
2453.000000	67.490400
2452.000000	67.497279
2451.000000	67.507129
2450.000000	67.521320
2449.000000	67.539828
2448.000000	67.561899
2447.000000	67.586374
2446.000000	67.611332
2445.000000	67.634316
2444.000000	67.653414
2443.000000	67.667959
2442.000000	67.678289
2441.000000	67.685433
2440.000000	67.691138
2439.000000	67.697611
2438.000000	67.706855
2437.000000	67.720286
2436.000000	67.738612
2435.000000	67.761495
2434.000000	67.787247
2433.000000	67.813384
2432.000000	67.837622
2431.000000	67.858239
2430.000000	67.874045
2429.000000	67.884822
2428.000000	67.891790
2427.000000	67.897084
2426.000000	67.902833
2425.000000	67.911001
2424.000000	67.923542
2423.000000	67.941688
2422.000000	67.964930
2421.000000	67.991173
2420.000000	68.017818
2419.000000	68.042433
2418.000000	68.062939
2417.000000	68.078162
2416.000000	68.088367
2415.000000	68.094909
2414.000000	68.099577
2413.000000	68.104682
2412.000000	68.113078
2411.000000	68.127046
2410.000000	68.147080
2409.000000	68.172068
2408.000000	68.200108
2407.000000	68.228619
2406.000000	68.254419
2405.000000	68.274988
2404.000000	68.289767
2403.000000	68.299754
2402.000000	68.306372
2401.000000	68.311548
2400.000000	68.318163
2399.000000	68.329113
2398.000000	68.345851
2397.000000	68.368376
2396.000000	68.395950
2395.000000	68.426869
2394.000000	68.458099
2393.000000	68.486494
2392.000000	68.510391
2391.000000	68.529535
2390.000000	68.544294
2389.000000	68.555893
2388.000000	68.567426
2387.000000	68.582705
2386.000000	68.604548
2385.000000	68.634748
2384.000000	68.673956
2383.000000	68.721379
2382.000000	68.773519
2381.000000	68.825499
2380.000000	68.873689
2379.000000	68.915425
2378.000000	68.948780
2377.000000	68.973278
2376.000000	68.990957
2375.000000	69.005662
2374.000000	69.021706
2373.000000	69.043744
2372.000000	69.075997
2371.000000	69.119695
2370.000000	69.171032
2369.000000	69.224934
2368.000000	69.277590
2367.000000	69.325762
2366.000000	69.366161
2365.000000	69.397283
2364.000000	69.422769
2363.000000	69.444642
2362.000000	69.463508
2361.000000	69.484135
2360.000000	69.509122
2359.000000	69.541652
2358.000000	69.580237
2357.000000	69.621470
2356.000000	69.664443
2355.000000	69.704421
2354.000000	69.741356
2353.000000	69.776024
2352.000000	69.812631
2351.000000	69.852098
2350.000000	69.884464
2349.000000	69.906356
2348.000000	69.923887
2347.000000	69.956220
2346.000000	70.009963
2345.000000	70.070271
2344.000000	70.123645
2343.000000	70.165233
2342.000000	70.204378
2341.000000	70.242579
2340.000000	70.275835
2339.000000	70.301114
2338.000000	70.319636
2337.000000	70.334438
2336.000000	70.350225
2335.000000	70.372003
2334.000000	70.406259
2333.000000	70.453504
2332.000000	70.509887
2331.000000	70.571296
2330.000000	70.630360
2329.000000	70.685745
2328.000000	70.731067
2327.000000	70.766532
2326.000000	70.792737
2325.000000	70.810433
2324.000000	70.824336
2323.000000	70.836003
2322.000000	70.851859
2321.000000	70.873693
2320.000000	70.906028
2319.000000	70.950971
2318.000000	71.008000
2317.000000	71.072308
2316.000000	71.136510
2315.000000	71.195149
2314.000000	71.242481
2313.000000	71.275546
2312.000000	71.294320
2311.000000	71.304997
2310.000000	71.314563
2309.000000	71.328778
2308.000000	71.351457
2307.000000	71.385687
2306.000000	71.432385
2305.000000	71.488277
2304.000000	71.548578
2303.000000	71.607911
2302.000000	71.660759
2301.000000	71.701656
2300.000000	71.727790
2299.000000	71.741386
2298.000000	71.746736
2297.000000	71.749434
2296.000000	71.755260
2295.000000	71.770603
2294.000000	71.798814
2293.000000	71.839285
2292.000000	71.889030
2291.000000	71.944230
2290.000000	71.999570
2289.000000	72.048275
2288.000000	72.085606
2287.000000	72.110552
2286.000000	72.124799
2285.000000	72.130880
2284.000000	72.133470
2283.000000	72.138949
2282.000000	72.152979
2281.000000	72.178179
2280.000000	72.215089
2279.000000	72.262615
2278.000000	72.316948
2277.000000	72.371724
2276.000000	72.420906
2275.000000	72.460990
2274.000000	72.489961
2273.000000	72.507191
2272.000000	72.514943
2271.000000	72.518564
2270.000000	72.523603
2269.000000	72.533910
2268.000000	72.552554
2267.000000	72.581873
2266.000000	72.621139
2265.000000	72.666097
2264.000000	72.711518
2263.000000	72.753460
2262.000000	72.788467
2261.000000	72.813329
2260.000000	72.827372
2259.000000	72.832985
2258.000000	72.833748
2257.000000	72.832757
2256.000000	72.833640
2255.000000	72.840100
2254.000000	72.853385
2253.000000	72.871767
2252.000000	72.892837
2251.000000	72.914727
2250.000000	72.933994
2249.000000	72.945488
2248.000000	72.945594
2247.000000	72.934287
2246.000000	72.913271
2245.000000	72.884128
2244.000000	72.849341
2243.000000	72.812704
2242.000000	72.777143
2241.000000	72.743470
2240.000000	72.711892
2239.000000	72.683033
2238.000000	72.656554
2237.000000	72.630655
2236.000000	72.604166
2235.000000	72.577727
2234.000000	72.552350
2233.000000	72.528445
2232.000000	72.507044
2231.000000	72.490063
2230.000000	72.478511
2229.000000	72.471851
2228.000000	72.469627
2227.000000	72.471998
2226.000000	72.477935
2225.000000	72.484902
2224.000000	72.491170
2223.000000	72.496805
2222.000000	72.501739
2221.000000	72.504820
2220.000000	72.505666
2219.000000	72.505513
2218.000000	72.505314
2217.000000	72.504703
2216.000000	72.503670
2215.000000	72.503417
2214.000000	72.504619
2213.000000	72.506568
2212.000000	72.508839
2211.000000	72.512098
2210.000000	72.516529
2209.000000	72.521323
2208.000000	72.526488
2207.000000	72.533342
2206.000000	72.542297
2205.000000	72.551887
2204.000000	72.560666
2203.000000	72.568297
2202.000000	72.574132
2201.000000	72.576772
2200.000000	72.576031
2199.000000	72.573583
2198.000000	72.570923
2197.000000	72.568496
2196.000000	72.567348
2195.000000	72.569431
2194.000000	72.575211
2193.000000	72.582793
2192.000000	72.590204
2191.000000	72.596616
2190.000000	72.600670
2189.000000	72.599816
2188.000000	72.592628
2187.000000	72.580167
2186.000000	72.564291
2185.000000	72.546538
2184.000000	72.529473
2183.000000	72.517046
2182.000000	72.512258
2181.000000	72.515768
2180.000000	72.527092
2179.000000	72.545195
2178.000000	72.567109
2177.000000	72.588139
2176.000000	72.604823
2175.000000	72.616436
2174.000000	72.623296
2173.000000	72.625778
2172.000000	72.625995
2171.000000	72.628327
2170.000000	72.636913
2169.000000	72.653870
2168.000000	72.680124
2167.000000	72.715709
2166.000000	72.758174
2165.000000	72.802532
2164.000000	72.843966
2163.000000	72.879348
2162.000000	72.906168
2161.000000	72.922592
2160.000000	72.929763
2159.000000	72.932142
2158.000000	72.934705
2157.000000	72.941368
2156.000000	72.956039
2155.000000	72.982121
2154.000000	73.019486
2153.000000	73.063800
2152.000000	73.109742
2151.000000	73.153083
2150.000000	73.189576
2149.000000	73.214999
2148.000000	73.228009
2147.000000	73.231248
2146.000000	73.228950
2145.000000	73.225399
2144.000000	73.226128
2143.000000	73.237409
2142.000000	73.262442
2141.000000	73.299634
2140.000000	73.345245
2139.000000	73.395391
2138.000000	73.444894
2137.000000	73.487375
2136.000000	73.518609
2135.000000	73.538346
2134.000000	73.548318
2133.000000	73.551068
2132.000000	73.551591
2131.000000	73.557065
2130.000000	73.572905
2129.000000	73.600446
2128.000000	73.638727
2127.000000	73.685810
2126.000000	73.737195
2125.000000	73.785730
2124.000000	73.825298
2123.000000	73.853351
2122.000000	73.869581
2121.000000	73.874882
2120.000000	73.872971
2119.000000	73.870444
2118.000000	73.873588
2117.000000	73.886413
2116.000000	73.911643
2115.000000	73.950529
2114.000000	74.000176
2113.000000	74.053443
2112.000000	74.103034
2111.000000	74.144229
2110.000000	74.173686
2109.000000	74.189146
2108.000000	74.191871
2107.000000	74.186959
2106.000000	74.180061
2105.000000	74.175795
2104.000000	74.179096
2103.000000	74.194441
2102.000000	74.222064
2101.000000	74.256920
2100.000000	74.292707
2099.000000	74.324431
2098.000000	74.347191
2097.000000	74.356257
2096.000000	74.350027
2095.000000	74.331333
2094.000000	74.304829
2093.000000	74.275452
2092.000000	74.249754
2091.000000	74.235098
2090.000000	74.235582
2089.000000	74.250313
2088.000000	74.276106
2087.000000	74.309306
2086.000000	74.344280
2085.000000	74.373657
2084.000000	74.392543
2083.000000	74.400810
2082.000000	74.400832
2081.000000	74.395662
2080.000000	74.390390
2079.000000	74.391882
2078.000000	74.405211
2077.000000	74.431958
2076.000000	74.471491
2075.000000	74.521883
2074.000000	74.578117
2073.000000	74.632820
2072.000000	74.680658
2071.000000	74.719166
2070.000000	74.746168
2069.000000	74.760171
2068.000000	74.764614
2067.000000	74.768154
2066.000000	74.779270
2065.000000	74.802871
2064.000000	74.841762
2063.000000	74.897051
2062.000000	74.965385
2061.000000	75.039074
2060.000000	75.110819
2059.000000	75.176360
2058.000000	75.232229
2057.000000	75.274984
2056.000000	75.304589
2055.000000	75.325871
2054.000000	75.344690
2053.000000	75.365657
2052.000000	75.394276
2051.000000	75.436260
2050.000000	75.492854
2049.000000	75.560076
2048.000000	75.632812
2047.000000	75.706181
2046.000000	75.773733
2045.000000	75.828914
2044.000000	75.869873
2043.000000	75.899927
2042.000000	75.923273
2041.000000	75.943823
2040.000000	75.967920
2039.000000	76.003230
2038.000000	76.053295
2037.000000	76.116445
2036.000000	76.190254
2035.000000	76.272725
2034.000000	76.358623
2033.000000	76.439423
2032.000000	76.508790
2031.000000	76.565584
2030.000000	76.610118
2029.000000	76.643152
2028.000000	76.669027
2027.000000	76.695801
2026.000000	76.729957
2025.000000	76.773999
2024.000000	76.830318
2023.000000	76.900222
2022.000000	76.979374
2021.000000	77.058798
2020.000000	77.131945
2019.000000	77.197204
2018.000000	77.253592
2017.000000	77.299492
2016.000000	77.336746
2015.000000	77.371093
2014.000000	77.406906
2013.000000	77.445959
2012.000000	77.491673
2011.000000	77.549585
2010.000000	77.621551
2009.000000	77.703803
2008.000000	77.791144
2007.000000	77.879490
2006.000000	77.963001
2005.000000	78.033823
2004.000000	78.089119
2003.000000	78.131810
2002.000000	78.166524
2001.000000	78.196174
2000.000000	78.225408
1999.000000	78.263074
1998.000000	78.313330
1997.000000	78.372314
1996.000000	78.435567
1995.000000	78.502516
1994.000000	78.571021
1993.000000	78.634953
1992.000000	78.690715
1991.000000	78.740481
1990.000000	78.785543
1989.000000	78.822917
1988.000000	78.851875
1987.000000	78.878100
1986.000000	78.908709
1985.000000	78.946820
1984.000000	78.993831
1983.000000	79.050536
1982.000000	79.114800
1981.000000	79.180121
1980.000000	79.240957
1979.000000	79.296120
1978.000000	79.342266
1977.000000	79.373831
1976.000000	79.390859
1975.000000	79.401016
1974.000000	79.410792
1973.000000	79.421235
1972.000000	79.434044
1971.000000	79.454219
1970.000000	79.483754
1969.000000	79.519917
1968.000000	79.561921
1967.000000	79.612012
1966.000000	79.667598
1965.000000	79.719657
1964.000000	79.761103
1963.000000	79.790689
1962.000000	79.808776
1961.000000	79.816381
1960.000000	79.819825
1959.000000	79.828638
1958.000000	79.847066
1957.000000	79.873714
1956.000000	79.908463
1955.000000	79.953638
1954.000000	80.005672
1953.000000	80.055527
1952.000000	80.097202
1951.000000	80.128765
1950.000000	80.149690
1949.000000	80.158456
1948.000000	80.155366
1947.000000	80.144872
1946.000000	80.132459
1945.000000	80.123349
1944.000000	80.124301
1943.000000	80.142497
1942.000000	80.180150
1941.000000	80.232595
1940.000000	80.292855
1939.000000	80.352519
1938.000000	80.399623
1937.000000	80.425863
1936.000000	80.435542
1935.000000	80.440081
1934.000000	80.443847
1933.000000	80.446457
1932.000000	80.451935
1931.000000	80.465568
1930.000000	80.489992
1929.000000	80.519263
1928.000000	80.547429
1927.000000	80.571586
1926.000000	80.588797
1925.000000	80.599272
1924.000000	80.602213
1923.000000	80.598351
1922.000000	80.592696
1921.000000	80.592515
1920.000000	80.601973
1919.000000	80.615513
1918.000000	80.624691
1917.000000	80.633851
1916.000000	80.656590
1915.000000	80.698044
1914.000000	80.744045
1913.000000	80.775829
1912.000000	80.790433
1911.000000	80.798065
1910.000000	80.807055
1909.000000	80.815596
1908.000000	80.825304
1907.000000	80.840904
1906.000000	80.859561
1905.000000	80.876770
1904.000000	80.890663
1903.000000	80.905774
1902.000000	80.926644
1901.000000	80.948676
1900.000000	80.966812
1899.000000	80.981118
1898.000000	80.991274
1897.000000	80.997245
1896.000000	80.999709
1895.000000	81.000231
1894.000000	80.998423
1893.000000	80.992568
1892.000000	80.984063
1891.000000	80.976340
1890.000000	80.971169
1889.000000	80.971691
1888.000000	80.984402
1887.000000	81.012044
1886.000000	81.045647
1885.000000	81.071170
1884.000000	81.084561
1883.000000	81.093745
1882.000000	81.105144
1881.000000	81.114005
1880.000000	81.117158
1879.000000	81.120143
1878.000000	81.124479
1877.000000	81.127426
1876.000000	81.129524
1875.000000	81.129848
1874.000000	81.121765
1873.000000	81.100650
1872.000000	81.071900
1871.000000	81.043389
1870.000000	81.014513
1869.000000	80.986602
1868.000000	80.976368
1867.000000	81.000333
1866.000000	81.051276
1865.000000	81.102452
1864.000000	81.133289
1863.000000	81.143431
1862.000000	81.142184
1861.000000	81.135172
1860.000000	81.126687
1859.000000	81.123652
1858.000000	81.128488
1857.000000	81.135814
1856.000000	81.142659
1855.000000	81.150318
1854.000000	81.158369
1853.000000	81.155891
1852.000000	81.137277
1851.000000	81.112192
1850.000000	81.078013
1849.000000	81.023534
1848.000000	80.959001
1847.000000	80.918291
1846.000000	80.914873
1845.000000	80.919705
1844.000000	80.906066
1843.000000	80.890595
1842.000000	80.902374
1841.000000	80.937899
1840.000000	80.970047
1839.000000	80.975302
1838.000000	80.952450
1837.000000	80.917416
1836.000000	80.878603
1835.000000	80.834749
1834.000000	80.785796
1833.000000	80.733958
1832.000000	80.686123
1831.000000	80.645989
1830.000000	80.606014
1829.000000	80.568773
1828.000000	80.551389
1827.000000	80.559677
1826.000000	80.568677
1825.000000	80.551280
1824.000000	80.518057
1823.000000	80.497151
1822.000000	80.490096
1821.000000	80.475006
1820.000000	80.445528
1819.000000	80.414843
1818.000000	80.392029
1817.000000	80.375975
1816.000000	80.359628
1815.000000	80.339259
1814.000000	80.307065
1813.000000	80.254398
1812.000000	80.187581
1811.000000	80.118797
1810.000000	80.058863
1809.000000	80.014125
1808.000000	79.984782
1807.000000	79.966830
1806.000000	79.950273
1805.000000	79.925837
1804.000000	79.890965
1803.000000	79.854809
1802.000000	79.823367
1801.000000	79.794259
1800.000000	79.770818
1799.000000	79.751050
1798.000000	79.722785
1797.000000	79.675779
1796.000000	79.618735
1795.000000	79.573003
1794.000000	79.538371
1793.000000	79.494924
1792.000000	79.450641
1791.000000	79.439315
1790.000000	79.471567
1789.000000	79.520483
1788.000000	79.552354
1787.000000	79.548670
1786.000000	79.504631
1785.000000	79.425777
1784.000000	79.326699
1783.000000	79.236625
1782.000000	79.167695
1781.000000	79.104792
1780.000000	79.050138
1779.000000	79.016769
1778.000000	78.999242
1777.000000	78.968294
1776.000000	78.917369
1775.000000	78.873417
1774.000000	78.831343
1773.000000	78.735550
1772.000000	78.578565
1771.000000	78.436941
1770.000000	78.367913
1769.000000	78.357982
1768.000000	78.359873
1767.000000	78.348822
1766.000000	78.332427
1765.000000	78.323188
1764.000000	78.318136
1763.000000	78.299250
1762.000000	78.245996
1761.000000	78.160991
1760.000000	78.074044
1759.000000	78.008239
1758.000000	77.957368
1757.000000	77.884457
1756.000000	77.787995
1755.000000	77.712149
1754.000000	77.675912
1753.000000	77.640774
1752.000000	77.558612
1751.000000	77.431875
1750.000000	77.308226
1749.000000	77.220573
1748.000000	77.161985
1747.000000	77.120332
1746.000000	77.072021
1745.000000	76.991858
1744.000000	76.886678
1743.000000	76.787863
1742.000000	76.716843
1741.000000	76.661505
1740.000000	76.587455
1739.000000	76.485219
1738.000000	76.394489
1737.000000	76.354593
1736.000000	76.344873
1735.000000	76.270039
1734.000000	76.068792
1733.000000	75.814161
1732.000000	75.612826
1731.000000	75.496637
1730.000000	75.432785
1729.000000	75.367847
1728.000000	75.286025
1727.000000	75.206346
1726.000000	75.123286
1725.000000	75.013078
1724.000000	74.872642
1723.000000	74.710821
1722.000000	74.539807
1721.000000	74.367904
1720.000000	74.194254
1719.000000	73.988111
1718.000000	73.716894
1717.000000	73.420819
1716.000000	73.179155
1715.000000	73.022201
1714.000000	72.925708
1713.000000	72.846692
1712.000000	72.753960
1711.000000	72.637339
1710.000000	72.488942
1709.000000	72.296011
1708.000000	72.069275
1707.000000	71.828547
1706.000000	71.565219
1705.000000	71.282497
1704.000000	71.039250
1703.000000	70.896761
1702.000000	70.811173
1701.000000	70.619997
1700.000000	70.271818
1699.000000	69.947559
1698.000000	69.786210
1697.000000	69.731176
1696.000000	69.627619
1695.000000	69.409507
1694.000000	69.159550
1693.000000	68.950534
1692.000000	68.773004
1691.000000	68.573598
1690.000000	68.327985
1689.000000	68.064929
1688.000000	67.846476
1687.000000	67.701041
1686.000000	67.560367
1685.000000	67.298715
1684.000000	66.913915
1683.000000	66.583469
1682.000000	66.394369
1681.000000	66.273348
1680.000000	66.139495
1679.000000	65.977031
1678.000000	65.812678
1677.000000	65.639183
1676.000000	65.411296
1675.000000	65.130297
1674.000000	64.856920
1673.000000	64.629547
1672.000000	64.442729
1671.000000	64.263093
1670.000000	64.065217
1669.000000	63.853211
1668.000000	63.654889
1667.000000	63.490882
1666.000000	63.348473
1665.000000	63.193229
1664.000000	62.991255
1663.000000	62.747969
1662.000000	62.510084
1661.000000	62.302164
1660.000000	62.119783
1659.000000	61.945384
1658.000000	61.755800
1657.000000	61.553601
1656.000000	61.380532
1655.000000	61.247633
1654.000000	61.063828
1653.000000	60.767830
1652.000000	60.441958
1651.000000	60.166397
1650.000000	59.962238
1649.000000	59.809973
1648.000000	59.649133
1647.000000	59.463275
1646.000000	59.289893
1645.000000	59.143138
1644.000000	59.000297
1643.000000	58.859928
1642.000000	58.718942
1641.000000	58.544798
1640.000000	58.330421
1639.000000	58.111871
1638.000000	57.918441
1637.000000	57.723385
1636.000000	57.495672
1635.000000	57.276502
1634.000000	57.108746
1633.000000	56.982736
1632.000000	56.870491
1631.000000	56.753226
1630.000000	56.616801
1629.000000	56.451979
1628.000000	56.266253
1627.000000	56.089875
1626.000000	55.940570
1625.000000	55.800106
1624.000000	55.645808
1623.000000	55.487167
1622.000000	55.350599
1621.000000	55.239919
1620.000000	55.157126
1619.000000	55.107496
1618.000000	55.068584
1617.000000	54.995671
1616.000000	54.882265
1615.000000	54.776801
1614.000000	54.713002
1613.000000	54.675771
1612.000000	54.629506
1611.000000	54.566060
1610.000000	54.504976
1609.000000	54.454508
1608.000000	54.409552
1607.000000	54.377560
1606.000000	54.367200
1605.000000	54.364034
1604.000000	54.357460
1603.000000	54.356621
1602.000000	54.368796
1601.000000	54.383120
1600.000000	54.387742
1599.000000	54.386899
1598.000000	54.386010
1597.000000	54.380396
1596.000000	54.368867
1595.000000	54.363753
1594.000000	54.374808
1593.000000	54.394361
1592.000000	54.412975
1591.000000	54.435191
1590.000000	54.466534
1589.000000	54.497793
1588.000000	54.518998
1587.000000	54.533191
1586.000000	54.547593
1585.000000	54.553856
1584.000000	54.544822
1583.000000	54.534690
1582.000000	54.527278
1581.000000	54.504967
1580.000000	54.467613
1579.000000	54.448610
1578.000000	54.463865
1577.000000	54.481019
1576.000000	54.459071
1575.000000	54.405115
1574.000000	54.351675
1573.000000	54.313640
1572.000000	54.285637
1571.000000	54.250265
1570.000000	54.208957
1569.000000	54.174367
1568.000000	54.155122
1567.000000	54.159715
1566.000000	54.184975
1565.000000	54.205520
1564.000000	54.205822
1563.000000	54.209881
1562.000000	54.237746
1561.000000	54.257687
1560.000000	54.222366
1559.000000	54.211717
1558.000000	54.317901
1557.000000	54.470633
1556.000000	54.618177
1555.000000	54.785872
1554.000000	54.958698
1553.000000	55.102384
1552.000000	55.223787
1551.000000	55.360492
1550.000000	55.528710
1549.000000	55.708832
1548.000000	55.870371
1547.000000	56.009917
1546.000000	56.135717
1545.000000	56.249629
1544.000000	56.360359
1543.000000	56.489470
1542.000000	56.661795
1541.000000	56.906020
1540.000000	57.229895
1539.000000	57.572000
1538.000000	57.839374
1537.000000	58.027223
1536.000000	58.198659
1535.000000	58.403967
1534.000000	58.660397
1533.000000	58.954950
1532.000000	59.258291
1531.000000	59.545294
1530.000000	59.813548
1529.000000	60.070829
1528.000000	60.327705
1527.000000	60.600810
1526.000000	60.889478
1525.000000	61.169245
1524.000000	61.441780
1523.000000	61.748475
1522.000000	62.121802
1521.000000	62.522834
1520.000000	62.874786
1519.000000	63.182046
1518.000000	63.514556
1517.000000	63.903511
1516.000000	64.316217
1515.000000	64.715612
1514.000000	65.092598
1513.000000	65.436678
1512.000000	65.723323
1511.000000	65.946155
1510.000000	66.138433
1509.000000	66.350863
1508.000000	66.645873
1507.000000	67.103323
1506.000000	67.694600
1505.000000	68.221248
1504.000000	68.592085
1503.000000	68.891928
1502.000000	69.187605
1501.000000	69.473700
1500.000000	69.734070
1499.000000	69.996100
1498.000000	70.298757
1497.000000	70.646815
1496.000000	70.998165
1495.000000	71.306905
1494.000000	71.566911
1493.000000	71.788376
1492.000000	71.976819
1491.000000	72.148954
1490.000000	72.343772
1489.000000	72.586268
1488.000000	72.864380
1487.000000	73.150284
1486.000000	73.426131
1485.000000	73.664448
1484.000000	73.852926
1483.000000	74.017656
1482.000000	74.174576
1481.000000	74.314217
1480.000000	74.425179
1479.000000	74.512782
1478.000000	74.566280
1477.000000	74.562841
1476.000000	74.507853
1475.000000	74.438198
1474.000000	74.354352
1473.000000	74.201465
1472.000000	73.973766
1471.000000	73.713402
1470.000000	73.406486
1469.000000	72.988133
1468.000000	72.407965
1467.000000	71.629769
1466.000000	70.597092
1465.000000	69.294807
1464.000000	67.896803
1463.000000	66.653461
1462.000000	65.658060
1461.000000	64.879835
1460.000000	64.315813
1459.000000	64.019651
1458.000000	64.022541
1457.000000	64.257739
1456.000000	64.561393
1455.000000	64.795904
1454.000000	64.903043
1453.000000	64.836999
1452.000000	64.566852
1451.000000	64.104040
1450.000000	63.444170
1449.000000	62.540379
1448.000000	61.395305
1447.000000	60.115948
1446.000000	58.778938
1445.000000	57.346364
1444.000000	55.781794
1443.000000	54.090909
1442.000000	52.277511
1441.000000	50.368600
1440.000000	48.444777
1439.000000	46.506016
1438.000000	44.342143
1437.000000	41.773307
1436.000000	39.096696
1435.000000	36.819355
1434.000000	34.993609
1433.000000	33.372048
1432.000000	31.857260
1431.000000	30.522268
1430.000000	29.414331
1429.000000	28.531157
1428.000000	27.933557
1427.000000	27.675316
1426.000000	27.699029
1425.000000	27.936759
1424.000000	28.414810
1423.000000	29.128467
1422.000000	29.971018
1421.000000	30.904100
1420.000000	32.056684
1419.000000	33.493046
1418.000000	34.998724
1417.000000	36.377072
1416.000000	37.697557
1415.000000	39.074043
1414.000000	40.491694
1413.000000	41.908133
1412.000000	43.354477
1411.000000	44.855951
1410.000000	46.351606
1409.000000	47.782163
1408.000000	49.166208
1407.000000	50.546737
1406.000000	51.937012
1405.000000	53.331059
1404.000000	54.706594
1403.000000	56.001791
1402.000000	57.175575
1401.000000	58.278503
1400.000000	59.399280
1399.000000	60.541176
1398.000000	61.623796
1397.000000	62.629792
1396.000000	63.636231
1395.000000	64.692168
1394.000000	65.743282
1393.000000	66.709333
1392.000000	67.574217
1391.000000	68.357564
1390.000000	69.078910
1389.000000	69.768722
1388.000000	70.456693
1387.000000	71.128817
1386.000000	71.736275
1385.000000	72.251076
1384.000000	72.671900
1383.000000	72.986399
1382.000000	73.180685
1381.000000	73.265154
1380.000000	73.250636
1379.000000	73.124797
1378.000000	72.871428
1377.000000	72.486359
1376.000000	71.950312
1375.000000	71.229267
1374.000000	70.327282
1373.000000	69.306243
1372.000000	68.227611
1371.000000	67.118764
1370.000000	66.022745
1369.000000	65.043444
1368.000000	64.323558
1367.000000	63.962965
1366.000000	63.981064
1365.000000	64.351589
1364.000000	65.039187
1363.000000	65.990246
1362.000000	67.104557
1361.000000	68.256334
1360.000000	69.345688
1359.000000	70.315181
1358.000000	71.136141
1357.000000	71.793081
1356.000000	72.270265
1355.000000	72.548089
1354.000000	72.611805
1353.000000	72.455811
1352.000000	72.074500
1351.000000	71.456154
1350.000000	70.594359
1349.000000	69.492010
1348.000000	68.152809
1347.000000	66.575437
1346.000000	64.760845
1345.000000	62.723821
1344.000000	60.505167
1343.000000	58.160105
1342.000000	55.738967
1341.000000	53.300055
1340.000000	50.958507
1339.000000	48.895239
1338.000000	47.268823
1337.000000	46.119530
1336.000000	45.371826
1335.000000	44.884090
1334.000000	44.472496
1333.000000	43.935777
1332.000000	43.102236
1331.000000	41.870520
1330.000000	40.219374
1329.000000	38.196257
1328.000000	35.902903
1327.000000	33.477708
1326.000000	31.061985
1325.000000	28.772649
1324.000000	26.712013
1323.000000	24.973648
1322.000000	23.610027
1321.000000	22.613240
1320.000000	21.943532
1319.000000	21.543511
1318.000000	21.326867
1317.000000	21.191607
1316.000000	21.063589
1315.000000	20.916523
1314.000000	20.742040
1313.000000	20.535264
1312.000000	20.313129
1311.000000	20.111830
1310.000000	19.958694
1309.000000	19.866280
1308.000000	19.857418
1307.000000	19.965919
1306.000000	20.205045
1305.000000	20.563154
1304.000000	21.029455
1303.000000	21.598843
1302.000000	22.251819
1301.000000	22.954370
1300.000000	23.686303
1299.000000	24.444583
1298.000000	25.221052
1297.000000	26.001121
1296.000000	26.781389
1295.000000	27.568790
1294.000000	28.360853
1293.000000	29.145413
1292.000000	29.917117
1291.000000	30.675958
1290.000000	31.409194
1289.000000	32.091695
1288.000000	32.700334
1287.000000	33.211295
1286.000000	33.592811
1285.000000	33.819778
1284.000000	33.904193
1283.000000	33.904563
1282.000000	33.904174
1281.000000	33.985850
1280.000000	34.214996
1279.000000	34.620757
1278.000000	35.183949
1277.000000	35.855957
1276.000000	36.590265
1275.000000	37.353614
1274.000000	38.119402
1273.000000	38.868040
1272.000000	39.594451
1271.000000	40.301053
1270.000000	40.985563
1269.000000	41.644122
1268.000000	42.280910
1267.000000	42.903526
1266.000000	43.512975
1265.000000	44.106121
1264.000000	44.683618
1263.000000	45.248864
1262.000000	45.801283
1261.000000	46.338771
1260.000000	46.862515
1259.000000	47.373215
1258.000000	47.868018
1257.000000	48.345795
1256.000000	48.811388
1255.000000	49.270267
1254.000000	49.723411
1253.000000	50.171554
1252.000000	50.618158
1251.000000	51.064348
1250.000000	51.505377
1249.000000	51.935323
1248.000000	52.351970
1247.000000	52.754259
1246.000000	53.139959
1245.000000	53.509080
1244.000000	53.865125
1243.000000	54.211646
1242.000000	54.550588
1241.000000	54.885229
1240.000000	55.220668
1239.000000	55.559361
1238.000000	55.899940
1237.000000	56.240210
1236.000000	56.577584
1235.000000	56.907102
1234.000000	57.222998
1233.000000	57.523234
1232.000000	57.809156
1231.000000	58.082035
1230.000000	58.344207
1229.000000	58.601752
1228.000000	58.862162
1227.000000	59.129818
1226.000000	59.406369
1225.000000	59.693167
1224.000000	59.988910
1223.000000	60.287041
1222.000000	60.579551
1221.000000	60.861646
1220.000000	61.130394
1219.000000	61.382174
1218.000000	61.616101
1217.000000	61.837093
1216.000000	62.051508
1215.000000	62.263343
1214.000000	62.477017
1213.000000	62.699379
1212.000000	62.934365
1211.000000	63.178553
1210.000000	63.425965
1209.000000	63.673061
1208.000000	63.915773
1207.000000	64.146999
1206.000000	64.361922
1205.000000	64.562362
1204.000000	64.752114
1203.000000	64.933194
1202.000000	65.110259
1201.000000	65.292403
1200.000000	65.486134
1199.000000	65.690248
1198.000000	65.899933
1197.000000	66.110317
1196.000000	66.311466
1195.000000	66.487317
1194.000000	66.623581
1193.000000	66.711894
1192.000000	66.745766
1191.000000	66.718632
1190.000000	66.633415
1189.000000	66.508343
1188.000000	66.370661
1187.000000	66.250347
1186.000000	66.178213
1185.000000	66.179138
1184.000000	66.259887
1183.000000	66.406906
1182.000000	66.597186
1181.000000	66.810029
1180.000000	67.027361
1179.000000	67.233336
1178.000000	67.421749
1177.000000	67.597151
1176.000000	67.766204
1175.000000	67.932684
1174.000000	68.102228
1173.000000	68.283288
1172.000000	68.478977
1171.000000	68.683967
1170.000000	68.891971
1169.000000	69.099326
1168.000000	69.298853
1167.000000	69.479811
1166.000000	69.638345
1165.000000	69.780970
1164.000000	69.915047
1163.000000	70.043821
1162.000000	70.173878
1161.000000	70.317162
1160.000000	70.480561
1159.000000	70.661073
1158.000000	70.853982
1157.000000	71.056753
1156.000000	71.261451
1155.000000	71.453496
1154.000000	71.623577
1153.000000	71.772605
1152.000000	71.902526
1151.000000	72.012447
1150.000000	72.107640
1149.000000	72.202191
1148.000000	72.307010
1147.000000	72.424145
1146.000000	72.555104
1145.000000	72.703273
1144.000000	72.863867
1143.000000	73.021760
1142.000000	73.164442
1141.000000	73.288384
1140.000000	73.389984
1139.000000	73.463192
1138.000000	73.510349
1137.000000	73.545129
1136.000000	73.580202
1135.000000	73.621070
1134.000000	73.674645
1133.000000	73.750935
1132.000000	73.850940
1131.000000	73.963032
1130.000000	74.076026
1129.000000	74.186196
1128.000000	74.288705
1127.000000	74.374443
1126.000000	74.441088
1125.000000	74.496820
1124.000000	74.548994
1123.000000	74.599387
1122.000000	74.653525
1121.000000	74.722323
1120.000000	74.809417
1119.000000	74.907569
1118.000000	75.011185
1117.000000	75.120998
1116.000000	75.232732
1115.000000	75.334321
1114.000000	75.419760
1113.000000	75.494607
1112.000000	75.563692
1111.000000	75.626084
1110.000000	75.686048
1109.000000	75.755975
1108.000000	75.843198
1107.000000	75.944253
1106.000000	76.055910
1105.000000	76.179237
1104.000000	76.308942
1103.000000	76.431692
1102.000000	76.539919
1101.000000	76.635720
1100.000000	76.718658
1099.000000	76.783660
1098.000000	76.834956
1097.000000	76.887476
1096.000000	76.950544
1095.000000	77.022518
1094.000000	77.103543
1093.000000	77.198585
1092.000000	77.303886
1091.000000	77.405616
1090.000000	77.496344
1089.000000	77.579193
1088.000000	77.652611
1087.000000	77.706318
1086.000000	77.737261
1085.000000	77.754286
1084.000000	77.762084
1083.000000	77.755723
1082.000000	77.732638
1081.000000	77.696033
1080.000000	77.640210
1079.000000	77.545100
1078.000000	77.393200
1077.000000	77.172222
1076.000000	76.862503
1075.000000	76.435873
1074.000000	75.868587
1073.000000	75.151532
1072.000000	74.276350
1071.000000	73.235248
1070.000000	72.036895
1069.000000	70.705629
1068.000000	69.274114
1067.000000	67.780054
1066.000000	66.275040
1065.000000	64.824063
1064.000000	63.494889
1063.000000	62.347550
1062.000000	61.434293
1061.000000	60.796109
1060.000000	60.448594
1059.000000	60.385236
1058.000000	60.577807
1057.000000	60.987780
1056.000000	61.572452
1055.000000	62.280486
1054.000000	63.065517
1053.000000	63.890062
1052.000000	64.723167
1051.000000	65.537961
1050.000000	66.315823
1049.000000	67.050205
1048.000000	67.737341
1047.000000	68.371081
1046.000000	68.950279
1045.000000	69.483591
1044.000000	69.977408
1043.000000	70.430949
1042.000000	70.845869
1041.000000	71.229796
1040.000000	71.588194
1039.000000	71.920098
1038.000000	72.229156
1037.000000	72.527651
1036.000000	72.823233
1035.000000	73.113536
1034.000000	73.396296
1033.000000	73.674895
1032.000000	73.948968
1031.000000	74.210252
1030.000000	74.454365
1029.000000	74.684931
1028.000000	74.902654
1027.000000	75.102181
1026.000000	75.284273
1025.000000	75.460093
1024.000000	75.637769
1023.000000	75.815847
1022.000000	75.993828
1021.000000	76.175664
1020.000000	76.358894
1019.000000	76.532045
1018.000000	76.688095
1017.000000	76.829791
1016.000000	76.957824
1015.000000	77.068025
1014.000000	77.163976
1013.000000	77.259582
1012.000000	77.364331
1011.000000	77.477728
1010.000000	77.600862
1009.000000	77.739596
1008.000000	77.891574
1007.000000	78.042864
1006.000000	78.182002
1005.000000	78.306278
1004.000000	78.411956
1003.000000	78.491991
1002.000000	78.548819
1001.000000	78.596569
1000.000000	78.647107
999.000000	78.704810
998.000000	78.777023
997.000000	78.874919
996.000000	78.999107
995.000000	79.135897
994.000000	79.271750
993.000000	79.400046
992.000000	79.511650
991.000000	79.593712
990.000000	79.643443
989.000000	79.671676
988.000000	79.688839
987.000000	79.700805
986.000000	79.720170
985.000000	79.766753
984.000000	79.850491
983.000000	79.965148
982.000000	80.100726
981.000000	80.249060
980.000000	80.394569
979.000000	80.515174
978.000000	80.599467
977.000000	80.652154
976.000000	80.680367
975.000000	80.688206
974.000000	80.688430
973.000000	80.703061
972.000000	80.746459
971.000000	80.818328
970.000000	80.915649
969.000000	81.036715
968.000000	81.169480
967.000000	81.290785
966.000000	81.383867
965.000000	81.445897
964.000000	81.476473
963.000000	81.474138
962.000000	81.449072
961.000000	81.424556
960.000000	81.419207
959.000000	81.439388
958.000000	81.489915
957.000000	81.576313
956.000000	81.691318
955.000000	81.813381
954.000000	81.923790
953.000000	82.013796
952.000000	82.073906
951.000000	82.093025
950.000000	82.073736
949.000000	82.034695
948.000000	81.993225
947.000000	81.958379
946.000000	81.942582
945.000000	81.962060
944.000000	82.019740
943.000000	82.101064
942.000000	82.190805
941.000000	82.280360
940.000000	82.355913
939.000000	82.397329
938.000000	82.395864
937.000000	82.360302
936.000000	82.302125
935.000000	82.228839
934.000000	82.154951
933.000000	82.102079
932.000000	82.081542
931.000000	82.089522
930.000000	82.121630
929.000000	82.176533
928.000000	82.241932
927.000000	82.293259
926.000000	82.312878
925.000000	82.297460
924.000000	82.245461
923.000000	82.154129
922.000000	82.033119
921.000000	81.905512
920.000000	81.789137
919.000000	81.689818
918.000000	81.613733
917.000000	81.568782
916.000000	81.549269
915.000000	81.534468
914.000000	81.506780
913.000000	81.458097
912.000000	81.376104
911.000000	81.244199
910.000000	81.060201
909.000000	80.840516
908.000000	80.601616
907.000000	80.351379
906.000000	80.101809
905.000000	79.870729
904.000000	79.664608
903.000000	79.473845
902.000000	79.287688
901.000000	79.099190
900.000000	78.892612
899.000000	78.642808
898.000000	78.335108
897.000000	77.971274
896.000000	77.556079
895.000000	77.092981
894.000000	76.595189
893.000000	76.085603
892.000000	75.577953
891.000000	75.071656
890.000000	74.565233
889.000000	74.058633
888.000000	73.540384
887.000000	72.985609
886.000000	72.372862
885.000000	71.692324
884.000000	70.935286
883.000000	70.094614
882.000000	69.176966
881.000000	68.203484
880.000000	67.194566
879.000000	66.162354
878.000000	65.120183
877.000000	64.082224
876.000000	63.051530
875.000000	62.019067
874.000000	60.976588
873.000000	59.922137
872.000000	58.852786
871.000000	57.764182
870.000000	56.660416
869.000000	55.556524
868.000000	54.469215
867.000000	53.412782
866.000000	52.404260
865.000000	51.461671
864.000000	50.595864
863.000000	49.805789
862.000000	49.084785
861.000000	48.427530
860.000000	47.826616
859.000000	47.272606
858.000000	46.757263
857.000000	46.275573
856.000000	45.823919
855.000000	45.398388
854.000000	45.002115
853.000000	44.647653
852.000000	44.350287
851.000000	44.122920
850.000000	43.973971
849.000000	43.908472
848.000000	43.924023
847.000000	44.009182
846.000000	44.151544
845.000000	44.341076
844.000000	44.570492
843.000000	44.836529
842.000000	45.143864
841.000000	45.505725
840.000000	45.934300
839.000000	46.438714
838.000000	47.028220
837.000000	47.708614
836.000000	48.475194
835.000000	49.311682
834.000000	50.195343
833.000000	51.088604
832.000000	51.920068
831.000000	52.540522
830.000000	52.674765
829.000000	51.918865
828.000000	49.926715
827.000000	46.785780
826.000000	43.245700
825.000000	40.448996
824.000000	39.269652
823.000000	39.822800
822.000000	41.567303
821.000000	43.810163
820.000000	46.072347
819.000000	48.129804
818.000000	49.918440
817.000000	51.452413
816.000000	52.781556
815.000000	53.947755
814.000000	54.981076
813.000000	55.917504
812.000000	56.796863
811.000000	57.638657
810.000000	58.445351
809.000000	59.222891
808.000000	59.975282
807.000000	60.690877
806.000000	61.352823
805.000000	61.959664
804.000000	62.516984
803.000000	63.019037
802.000000	63.462775
801.000000	63.867925
800.000000	64.264645
799.000000	64.670415
798.000000	65.094926
797.000000	65.553510
796.000000	66.053224
795.000000	66.576260
794.000000	67.095535
793.000000	67.595547
792.000000	68.063616
791.000000	68.478090
790.000000	68.826369
789.000000	69.122885
788.000000	69.392321
787.000000	69.649499
786.000000	69.909228
785.000000	70.197854
784.000000	70.534773
783.000000	70.913133
782.000000	71.313119
781.000000	71.720366
780.000000	72.117077
779.000000	72.472945
778.000000	72.764846
777.000000	72.995234
776.000000	73.178427
775.000000	73.324182
774.000000	73.448890
773.000000	73.584477
772.000000	73.758440
771.000000	73.975641
770.000000	74.230920
769.000000	74.522369
768.000000	74.837027
767.000000	75.140338
766.000000	75.398300
765.000000	75.598604
764.000000	75.740639
763.000000	75.823826
762.000000	75.861421
761.000000	75.888001
760.000000	75.936281
759.000000	76.018991
758.000000	76.142523
757.000000	76.318190
756.000000	76.543936
755.000000	76.792013
754.000000	77.030259
753.000000	77.241157
752.000000	77.409896
751.000000	77.517021
750.000000	77.560354
749.000000	77.567283
748.000000	77.570038
747.000000	77.585331
746.000000	77.628613
745.000000	77.724642
744.000000	77.884302
743.000000	78.087247
742.000000	78.302743
741.000000	78.510470
740.000000	78.689074
739.000000	78.808518
738.000000	78.854443
737.000000	78.843007
736.000000	78.798237
735.000000	78.733245
734.000000	78.666498
733.000000	78.631717
732.000000	78.652498
731.000000	78.723236
730.000000	78.828169
729.000000	78.957503
728.000000	79.092353
727.000000	79.198523
726.000000	79.253830
725.000000	79.265742
724.000000	79.249412
723.000000	79.210570
722.000000	79.163796
721.000000	79.144004
720.000000	79.179937
719.000000	79.274418
718.000000	79.423607
717.000000	79.631247
716.000000	79.885753
715.000000	80.147847
714.000000	80.381357
713.000000	80.576273
712.000000	80.728408
711.000000	80.824103
710.000000	80.865640
709.000000	80.885665
708.000000	80.917379
707.000000	80.971820
706.000000	81.056561
705.000000	81.189322
704.000000	81.372690
703.000000	81.577927
702.000000	81.776137
701.000000	81.961730
700.000000	82.126874
699.000000	82.246207
698.000000	82.307069
697.000000	82.329999
696.000000	82.339088
695.000000	82.337412
694.000000	82.334275
693.000000	82.363237
692.000000	82.444698
691.000000	82.562137
690.000000	82.696539
689.000000	82.853837
688.000000	83.031331
687.000000	83.190296
686.000000	83.299277
685.000000	83.368500
684.000000	83.412757
683.000000	83.421093
682.000000	83.393936
681.000000	83.369654
680.000000	83.379749
679.000000	83.414237
678.000000	83.465068
677.000000	83.552378
676.000000	83.678712
675.000000	83.816364
674.000000	83.947062
673.000000	84.081504
672.000000	84.226400
671.000000	84.363975
670.000000	84.475324
669.000000	84.545035
668.000000	84.520298
667.000000	84.405496
666.000000	84.313580
665.000000	84.286940
664.000000	84.319263
663.000000	84.406197
662.000000	84.538630
661.000000	84.703276
660.000000	84.879050
659.000000	85.037512
658.000000	85.158100
657.000000	85.233610
656.000000	85.259451
655.000000	85.242099
654.000000	85.199519
653.000000	85.152137
652.000000	85.121929
651.000000	85.131088
650.000000	85.194932
649.000000	85.312939
648.000000	85.469891
647.000000	85.643259
646.000000	85.808883
645.000000	85.945451
644.000000	86.032353
643.000000	86.051714
642.000000	86.003631
641.000000	85.910984
640.000000	85.804076
639.000000	85.710087
638.000000	85.656323
637.000000	85.668832
636.000000	85.759084
635.000000	85.914570
634.000000	86.108851
633.000000	86.313634
632.000000	86.495781
631.000000	86.617551
630.000000	86.655560
629.000000	86.612380
628.000000	86.504855
627.000000	86.355741
626.000000	86.202841
625.000000	86.097031
624.000000	86.073465
623.000000	86.135312
622.000000	86.270196
621.000000	86.462631
620.000000	86.681130
619.000000	86.874131
618.000000	86.997754
617.000000	87.037514
616.000000	86.994302
615.000000	86.872158
614.000000	86.694317
613.000000	86.509775
612.000000	86.365228
611.000000	86.283815
610.000000	86.275666
609.000000	86.340831
608.000000	86.447355
607.000000	86.521576
606.000000	86.476583
605.000000	86.231604
604.000000	85.688623
603.000000	84.720561
602.000000	83.185996
601.000000	80.968689
600.000000	78.045178
599.000000	74.605389
598.000000	71.124464
597.000000	68.245930
596.000000	66.524766
595.000000	66.205346
594.000000	67.154246
593.000000	68.967794
592.000000	71.178531
591.000000	73.386773
590.000000	75.325693
589.000000	76.899404
588.000000	78.133498
587.000000	79.098879
586.000000	79.879939
585.000000	80.570148
584.000000	81.240091
583.000000	81.920061
582.000000	82.619662
581.000000	83.341008
580.000000	84.051127
579.000000	84.668467
578.000000	85.121916
577.000000	85.399649
576.000000	85.523627
575.000000	85.516488
574.000000	85.417677
573.000000	85.300250
572.000000	85.236718
571.000000	85.269197
570.000000	85.422003
569.000000	85.709568
568.000000	86.105291
567.000000	86.527455
566.000000	86.887044
565.000000	87.135644
564.000000	87.247151
563.000000	87.198339
562.000000	87.004585
561.000000	86.740537
560.000000	86.493683
559.000000	86.322908
558.000000	86.274627
557.000000	86.390635
556.000000	86.670030
555.000000	87.048123
554.000000	87.441417
553.000000	87.789461
552.000000	88.037309
551.000000	88.123062
550.000000	88.028293
549.000000	87.807311
548.000000	87.535718
547.000000	87.269299
546.000000	87.069720
545.000000	87.013639
544.000000	87.137064
543.000000	87.405311
542.000000	87.756012
541.000000	88.138216
540.000000	88.487279
539.000000	88.712881
538.000000	88.757171
537.000000	88.639316
536.000000	88.413002
535.000000	88.123306
534.000000	87.828917
533.000000	87.616354
532.000000	87.551004
531.000000	87.639700
530.000000	87.855447
529.000000	88.163172
528.000000	88.502301
527.000000	88.781299
526.000000	88.927780
525.000000	88.923764
524.000000	88.770368
523.000000	88.463123
522.000000	88.038017
521.000000	87.587878
520.000000	87.199090
519.000000	86.905997
518.000000	86.724983
517.000000	86.680859
516.000000	86.759599
515.000000	86.884606
514.000000	86.978032
513.000000	87.006806
512.000000	86.945613
511.000000	86.754247
510.000000	86.427753
509.000000	86.021328
508.000000	85.588934
507.000000	85.143905
506.000000	84.691148
505.000000	84.242599
504.000000	83.785179
503.000000	83.295700
502.000000	82.818353
501.000000	82.463531
500.000000	82.293618
499.000000	82.272223
498.000000	82.345162
497.000000	82.494351
496.000000	82.699914
495.000000	82.919427
494.000000	83.140085
493.000000	83.410231
492.000000	83.773496
491.000000	84.213584
490.000000	84.687808
489.000000	85.166622
488.000000	85.601301
487.000000	85.913987
486.000000	86.070444
485.000000	86.125415
484.000000	86.159041
483.000000	86.211622
482.000000	86.316704
481.000000	86.527626
480.000000	86.861065
479.000000	87.263307
478.000000	87.669305
477.000000	88.045173
476.000000	88.338707
475.000000	88.454585
474.000000	88.345130
473.000000	88.080245
472.000000	87.776498
471.000000	87.498190
470.000000	87.279453
469.000000	87.184275
468.000000	87.261898
467.000000	87.482673
466.000000	87.769864
465.000000	88.071562
464.000000	88.335904
463.000000	88.476200
462.000000	88.442876
461.000000	88.280032
460.000000	88.042467
459.000000	87.739366
458.000000	87.433919
457.000000	87.284346
456.000000	87.359551
455.000000	87.554977
454.000000	87.771533
453.000000	88.017656
452.000000	88.292461
451.000000	88.480429
450.000000	88.458455
449.000000	88.220002
448.000000	87.811029
447.000000	87.244555
446.000000	86.552948
445.000000	85.824595
444.000000	85.105238
443.000000	84.337984
442.000000	83.463603
441.000000	82.513322
440.000000	81.528835
439.000000	80.499825
438.000000	79.459089
437.000000	78.566155
436.000000	77.996196
435.000000	77.795343
434.000000	77.927382
433.000000	78.394269
432.000000	79.202932
431.000000	80.247189
430.000000	81.374825
429.000000	82.529767
428.000000	83.681371
427.000000	84.699147
426.000000	85.467198
425.000000	86.038023
424.000000	86.494601
423.000000	86.783402
422.000000	86.850502
421.000000	86.809103
420.000000	86.818763
419.000000	86.943121
418.000000	87.206774
417.000000	87.650069
416.000000	88.214226
415.000000	88.716172
414.000000	89.032621
413.000000	89.234595
412.000000	89.395763
411.000000	89.404020
410.000000	89.188609
409.000000	88.934653
408.000000	88.817983
407.000000	88.760473
406.000000	88.690801
405.000000	88.768497
404.000000	89.095222
403.000000	89.434074
402.000000	89.522308
401.000000	89.432749
400.000000	89.314884
