PE IR       SUBTECH     SPECTRUM    ASCII       PEDS        4.00        
   -1
23ms142,146,187_nitro.asc
24/09/06
16:01:30.00
24/09/06
16:01:30.00
Administrator
Sample 1124 By Administrator Date Friday, September 06 2024
400.000000
#HDR
-1
-1
#GR
cm-1
%T
1.0
0.0
4000.000000
-1.000000
3601
8
88.067708
9.382230
#DATA
4000.000000	59.690409
3999.000000	59.722184
3998.000000	59.755202
3997.000000	59.789071
3996.000000	59.823170
3995.000000	59.856401
3994.000000	59.887468
3993.000000	59.915860
3992.000000	59.942492
3991.000000	59.968867
3990.000000	59.995469
3989.000000	60.021851
3988.000000	60.048378
3987.000000	60.076828
3986.000000	60.108680
3985.000000	60.143296
3984.000000	60.178463
3983.000000	60.212282
3982.000000	60.244048
3981.000000	60.273612
3980.000000	60.300574
3979.000000	60.324749
3978.000000	60.347110
3977.000000	60.369341
3976.000000	60.392470
3975.000000	60.416163
3974.000000	60.439753
3973.000000	60.463420
3972.000000	60.488149
3971.000000	60.515169
3970.000000	60.544964
3969.000000	60.576595
3968.000000	60.607976
3967.000000	60.636846
3966.000000	60.661770
3965.000000	60.683074
3964.000000	60.702924
3963.000000	60.723786
3962.000000	60.746825
3961.000000	60.770958
3960.000000	60.794289
3959.000000	60.817127
3958.000000	60.841776
3957.000000	60.869711
3956.000000	60.899892
3955.000000	60.929890
3954.000000	60.957631
3953.000000	60.981854
3952.000000	61.002316
3951.000000	61.020234
3950.000000	61.037575
3949.000000	61.055468
3948.000000	61.073680
3947.000000	61.091084
3946.000000	61.107645
3945.000000	61.127127
3944.000000	61.155861
3943.000000	61.195031
3942.000000	61.237052
3941.000000	61.272532
3940.000000	61.299436
3939.000000	61.324171
3938.000000	61.352275
3937.000000	61.381000
3936.000000	61.403133
3935.000000	61.416737
3934.000000	61.429187
3933.000000	61.448865
3932.000000	61.476313
3931.000000	61.505354
3930.000000	61.530832
3929.000000	61.553926
3928.000000	61.578354
3927.000000	61.607055
3926.000000	61.642189
3925.000000	61.681612
3924.000000	61.716040
3923.000000	61.736085
3922.000000	61.742610
3921.000000	61.746551
3920.000000	61.757688
3919.000000	61.777335
3918.000000	61.803105
3917.000000	61.834795
3916.000000	61.871755
3915.000000	61.909141
3914.000000	61.943995
3913.000000	61.979535
3912.000000	62.018909
3911.000000	62.059724
3910.000000	62.095066
3909.000000	62.120410
3908.000000	62.136145
3907.000000	62.143736
3906.000000	62.144267
3905.000000	62.139705
3904.000000	62.132278
3903.000000	62.124264
3902.000000	62.119703
3901.000000	62.127279
3900.000000	62.156043
3899.000000	62.202730
3898.000000	62.252456
3897.000000	62.294152
3896.000000	62.328282
3895.000000	62.361751
3894.000000	62.398175
3893.000000	62.436083
3892.000000	62.472044
3891.000000	62.503386
3890.000000	62.523946
3889.000000	62.526221
3888.000000	62.516044
3887.000000	62.518818
3886.000000	62.553898
3885.000000	62.604925
3884.000000	62.636087
3883.000000	62.637175
3882.000000	62.634054
3881.000000	62.656182
3880.000000	62.702209
3879.000000	62.745197
3878.000000	62.765776
3877.000000	62.769974
3876.000000	62.781715
3875.000000	62.819899
3874.000000	62.873610
3873.000000	62.907713
3872.000000	62.903864
3871.000000	62.887282
3870.000000	62.896477
3869.000000	62.930398
3868.000000	62.952708
3867.000000	62.947447
3866.000000	62.943127
3865.000000	62.971901
3864.000000	63.026179
3863.000000	63.075662
3862.000000	63.108676
3861.000000	63.136900
3860.000000	63.173837
3859.000000	63.225670
3858.000000	63.289958
3857.000000	63.353156
3856.000000	63.391898
3855.000000	63.390266
3854.000000	63.359142
3853.000000	63.325978
3852.000000	63.306949
3851.000000	63.304269
3850.000000	63.321385
3849.000000	63.364401
3848.000000	63.428002
3847.000000	63.497477
3846.000000	63.560909
3845.000000	63.612563
3844.000000	63.650947
3843.000000	63.676316
3842.000000	63.686773
3841.000000	63.683797
3840.000000	63.675659
3839.000000	63.672614
3838.000000	63.680314
3837.000000	63.698617
3836.000000	63.723842
3835.000000	63.751793
3834.000000	63.781927
3833.000000	63.820168
3832.000000	63.870903
3831.000000	63.927191
3830.000000	63.976126
3829.000000	64.011411
3828.000000	64.039494
3827.000000	64.073781
3826.000000	64.115074
3825.000000	64.145186
3824.000000	64.147045
3823.000000	64.132381
3822.000000	64.137375
3821.000000	64.176778
3820.000000	64.219024
3819.000000	64.228528
3818.000000	64.210647
3817.000000	64.208268
3816.000000	64.254391
3815.000000	64.330070
3814.000000	64.393532
3813.000000	64.432595
3812.000000	64.465837
3811.000000	64.508508
3810.000000	64.553588
3809.000000	64.585288
3808.000000	64.605165
3807.000000	64.628735
3806.000000	64.655329
3805.000000	64.664687
3804.000000	64.647017
3803.000000	64.628054
3802.000000	64.643320
3801.000000	64.688314
3800.000000	64.724385
3799.000000	64.734235
3798.000000	64.740728
3797.000000	64.775198
3796.000000	64.841116
3795.000000	64.913518
3794.000000	64.971901
3793.000000	65.018348
3792.000000	65.064651
3791.000000	65.114170
3790.000000	65.159890
3789.000000	65.194449
3788.000000	65.217759
3787.000000	65.235216
3786.000000	65.253580
3785.000000	65.276759
3784.000000	65.301998
3783.000000	65.321957
3782.000000	65.335211
3781.000000	65.352024
3780.000000	65.383783
3779.000000	65.427539
3778.000000	65.467652
3777.000000	65.494202
3776.000000	65.513011
3775.000000	65.537070
3774.000000	65.569070
3773.000000	65.597807
3772.000000	65.615705
3771.000000	65.631953
3770.000000	65.656392
3769.000000	65.682047
3768.000000	65.697470
3767.000000	65.707683
3766.000000	65.731334
3765.000000	65.774887
3764.000000	65.820689
3763.000000	65.847344
3762.000000	65.855935
3761.000000	65.868182
3760.000000	65.895639
3759.000000	65.927263
3758.000000	65.951866
3757.000000	65.972136
3756.000000	65.990864
3755.000000	66.003302
3754.000000	66.008592
3753.000000	66.014916
3752.000000	66.023556
3751.000000	66.023324
3750.000000	66.016428
3749.000000	66.021929
3748.000000	66.039490
3747.000000	66.050297
3746.000000	66.057215
3745.000000	66.091058
3744.000000	66.159465
3743.000000	66.226644
3742.000000	66.265258
3741.000000	66.287835
3740.000000	66.317557
3739.000000	66.355893
3738.000000	66.390452
3737.000000	66.422323
3736.000000	66.463783
3735.000000	66.506598
3734.000000	66.531306
3733.000000	66.545888
3732.000000	66.577384
3731.000000	66.633773
3730.000000	66.696928
3729.000000	66.749633
3728.000000	66.797390
3727.000000	66.855489
3726.000000	66.920831
3725.000000	66.972456
3724.000000	67.003071
3723.000000	67.027193
3722.000000	67.058729
3721.000000	67.098924
3720.000000	67.141482
3719.000000	67.183621
3718.000000	67.228573
3717.000000	67.276378
3716.000000	67.318074
3715.000000	67.344088
3714.000000	67.356917
3713.000000	67.369161
3712.000000	67.387777
3711.000000	67.408770
3710.000000	67.429747
3709.000000	67.455755
3708.000000	67.492331
3707.000000	67.540250
3706.000000	67.594158
3705.000000	67.647135
3704.000000	67.697596
3703.000000	67.750190
3702.000000	67.807142
3701.000000	67.862620
3700.000000	67.907570
3699.000000	67.939135
3698.000000	67.966540
3697.000000	68.001879
3696.000000	68.043034
3695.000000	68.074933
3694.000000	68.090158
3693.000000	68.098462
3692.000000	68.112076
3691.000000	68.130599
3690.000000	68.146275
3689.000000	68.160999
3688.000000	68.186369
3687.000000	68.224860
3686.000000	68.267647
3685.000000	68.311429
3684.000000	68.359264
3683.000000	68.409094
3682.000000	68.452385
3681.000000	68.485581
3680.000000	68.513453
3679.000000	68.530224
3678.000000	68.520693
3677.000000	68.494734
3676.000000	68.492492
3675.000000	68.527472
3674.000000	68.560980
3673.000000	68.557561
3672.000000	68.532855
3671.000000	68.542901
3670.000000	68.614797
3669.000000	68.709645
3668.000000	68.783384
3667.000000	68.834130
3666.000000	68.881594
3665.000000	68.940596
3664.000000	69.010214
3663.000000	69.081069
3662.000000	69.145780
3661.000000	69.199637
3660.000000	69.237330
3659.000000	69.253438
3658.000000	69.251845
3657.000000	69.248580
3656.000000	69.255403
3655.000000	69.263620
3654.000000	69.252756
3653.000000	69.216086
3652.000000	69.173485
3651.000000	69.152279
3650.000000	69.154191
3649.000000	69.160716
3648.000000	69.175420
3647.000000	69.215232
3646.000000	69.275100
3645.000000	69.337192
3644.000000	69.395170
3643.000000	69.455073
3642.000000	69.518155
3641.000000	69.573538
3640.000000	69.611510
3639.000000	69.636134
3638.000000	69.656758
3637.000000	69.674154
3636.000000	69.685454
3635.000000	69.696741
3634.000000	69.715547
3633.000000	69.731618
3632.000000	69.721409
3631.000000	69.679566
3630.000000	69.638216
3629.000000	69.631958
3628.000000	69.651284
3627.000000	69.669395
3626.000000	69.681734
3625.000000	69.701337
3624.000000	69.736916
3623.000000	69.780371
3622.000000	69.815347
3621.000000	69.835865
3620.000000	69.847595
3619.000000	69.853738
3618.000000	69.850983
3617.000000	69.836813
3616.000000	69.815872
3615.000000	69.802325
3614.000000	69.808886
3613.000000	69.830204
3612.000000	69.846465
3611.000000	69.846394
3610.000000	69.842831
3609.000000	69.861311
3608.000000	69.909312
3607.000000	69.968385
3606.000000	70.017076
3605.000000	70.048855
3604.000000	70.070048
3603.000000	70.088367
3602.000000	70.106516
3601.000000	70.123728
3600.000000	70.136061
3599.000000	70.138513
3598.000000	70.132816
3597.000000	70.127583
3596.000000	70.132524
3595.000000	70.151406
3594.000000	70.177969
3593.000000	70.199568
3592.000000	70.205013
3591.000000	70.190735
3590.000000	70.166910
3589.000000	70.156273
3588.000000	70.174480
3587.000000	70.211856
3586.000000	70.246614
3585.000000	70.270322
3584.000000	70.290410
3583.000000	70.317018
3582.000000	70.352746
3581.000000	70.391893
3580.000000	70.426712
3579.000000	70.452777
3578.000000	70.470576
3577.000000	70.483230
3576.000000	70.493768
3575.000000	70.504244
3574.000000	70.514852
3573.000000	70.522802
3572.000000	70.522937
3571.000000	70.509532
3570.000000	70.482241
3569.000000	70.454655
3568.000000	70.448361
3567.000000	70.470768
3566.000000	70.507235
3565.000000	70.541129
3564.000000	70.569627
3563.000000	70.600042
3562.000000	70.637511
3561.000000	70.678940
3560.000000	70.717515
3559.000000	70.749474
3558.000000	70.775629
3557.000000	70.798430
3556.000000	70.819899
3555.000000	70.842231
3554.000000	70.868155
3553.000000	70.897927
3552.000000	70.926217
3551.000000	70.944489
3550.000000	70.948321
3549.000000	70.944255
3548.000000	70.946996
3547.000000	70.967530
3546.000000	71.003343
3545.000000	71.042975
3544.000000	71.078341
3543.000000	71.109612
3542.000000	71.140012
3541.000000	71.170983
3540.000000	71.202415
3539.000000	71.234110
3538.000000	71.265742
3537.000000	71.295148
3536.000000	71.318409
3535.000000	71.332512
3534.000000	71.338343
3533.000000	71.341345
3532.000000	71.348223
3531.000000	71.362512
3530.000000	71.382845
3529.000000	71.406364
3528.000000	71.432167
3527.000000	71.460296
3526.000000	71.489725
3525.000000	71.519279
3524.000000	71.548191
3523.000000	71.574103
3522.000000	71.593192
3521.000000	71.604880
3520.000000	71.614947
3519.000000	71.631048
3518.000000	71.655880
3517.000000	71.686252
3516.000000	71.718005
3515.000000	71.748666
3514.000000	71.774790
3513.000000	71.791511
3512.000000	71.797725
3511.000000	71.798692
3510.000000	71.800493
3509.000000	71.803687
3508.000000	71.804387
3507.000000	71.801008
3506.000000	71.798226
3505.000000	71.804224
3504.000000	71.823404
3503.000000	71.851559
3502.000000	71.879134
3501.000000	71.899609
3500.000000	71.913629
3499.000000	71.924772
3498.000000	71.933791
3497.000000	71.937967
3496.000000	71.934905
3495.000000	71.925139
3494.000000	71.911068
3493.000000	71.895332
3492.000000	71.881057
3491.000000	71.871727
3490.000000	71.869322
3489.000000	71.873371
3488.000000	71.880988
3487.000000	71.886641
3486.000000	71.883729
3485.000000	71.869157
3484.000000	71.846945
3483.000000	71.825099
3482.000000	71.807537
3481.000000	71.790763
3480.000000	71.768736
3479.000000	71.739605
3478.000000	71.707312
3477.000000	71.678670
3476.000000	71.659059
3475.000000	71.648771
3474.000000	71.643145
3473.000000	71.636637
3472.000000	71.626544
3471.000000	71.611928
3470.000000	71.589839
3469.000000	71.555673
3468.000000	71.507644
3467.000000	71.448839
3466.000000	71.385024
3465.000000	71.322514
3464.000000	71.267888
3463.000000	71.225878
3462.000000	71.195213
3461.000000	71.168370
3460.000000	71.136752
3459.000000	71.095823
3458.000000	71.045260
3457.000000	70.986391
3456.000000	70.921198
3455.000000	70.851636
3454.000000	70.778956
3453.000000	70.704413
3452.000000	70.630287
3451.000000	70.559303
3450.000000	70.493045
3449.000000	70.432048
3448.000000	70.376262
3447.000000	70.322961
3446.000000	70.265543
3445.000000	70.197720
3444.000000	70.118811
3443.000000	70.032948
3442.000000	69.943505
3441.000000	69.851188
3440.000000	69.757595
3439.000000	69.666799
3438.000000	69.581275
3437.000000	69.498414
3436.000000	69.413392
3435.000000	69.323521
3434.000000	69.228775
3433.000000	69.129907
3432.000000	69.026397
3431.000000	68.915475
3430.000000	68.792564
3429.000000	68.654591
3428.000000	68.503694
3427.000000	68.346056
3426.000000	68.187479
3425.000000	68.031399
3424.000000	67.880400
3423.000000	67.736702
3422.000000	67.599679
3421.000000	67.464744
3420.000000	67.325935
3419.000000	67.178794
3418.000000	67.020995
3417.000000	66.852146
3416.000000	66.673612
3415.000000	66.486873
3414.000000	66.291615
3413.000000	66.087356
3412.000000	65.876579
3411.000000	65.664226
3410.000000	65.453462
3409.000000	65.243383
3408.000000	65.031322
3407.000000	64.815418
3406.000000	64.594878
3405.000000	64.369342
3404.000000	64.138196
3403.000000	63.899007
3402.000000	63.646133
3401.000000	63.373326
3400.000000	63.079412
3399.000000	62.770895
3398.000000	62.458515
3397.000000	62.151244
3396.000000	61.852625
3395.000000	61.560840
3394.000000	61.270085
3393.000000	60.972420
3392.000000	60.659891
3391.000000	60.326798
3390.000000	59.972301
3389.000000	59.600797
3388.000000	59.219048
3387.000000	58.831957
3386.000000	58.441320
3385.000000	58.048593
3384.000000	57.656166
3383.000000	57.265299
3382.000000	56.874373
3381.000000	56.480242
3380.000000	56.080224
3379.000000	55.671666
3378.000000	55.251401
3377.000000	54.817346
3376.000000	54.369880
3375.000000	53.911413
3374.000000	53.445475
3373.000000	52.976444
3372.000000	52.508195
3371.000000	52.041092
3370.000000	51.572040
3369.000000	51.097872
3368.000000	50.617585
3367.000000	50.131107
3366.000000	49.637928
3365.000000	49.138263
3364.000000	48.633261
3363.000000	48.122944
3362.000000	47.605852
3361.000000	47.081595
3360.000000	46.552468
3359.000000	46.021723
3358.000000	45.491789
3357.000000	44.964840
3356.000000	44.442567
3355.000000	43.924645
3354.000000	43.408961
3353.000000	42.893620
3352.000000	42.377017
3351.000000	41.856190
3350.000000	41.328065
3349.000000	40.793080
3348.000000	40.255326
3347.000000	39.718614
3346.000000	39.184580
3345.000000	38.654539
3344.000000	38.130161
3343.000000	37.611759
3342.000000	37.098311
3341.000000	36.589508
3340.000000	36.085299
3339.000000	35.583461
3338.000000	35.080632
3337.000000	34.576091
3336.000000	34.072047
3335.000000	33.570180
3334.000000	33.070747
3333.000000	32.575111
3332.000000	32.085728
3331.000000	31.603428
3330.000000	31.127305
3329.000000	30.657264
3328.000000	30.194148
3327.000000	29.737197
3326.000000	29.284578
3325.000000	28.836236
3324.000000	28.393213
3323.000000	27.954891
3322.000000	27.519634
3321.000000	27.087966
3320.000000	26.662304
3319.000000	26.243659
3318.000000	25.832085
3317.000000	25.429121
3316.000000	25.036701
3315.000000	24.654236
3314.000000	24.279513
3313.000000	23.912113
3312.000000	23.552643
3311.000000	23.199728
3310.000000	22.851736
3309.000000	22.510171
3308.000000	22.178670
3307.000000	21.859236
3306.000000	21.552598
3305.000000	21.261127
3304.000000	20.986491
3303.000000	20.726299
3302.000000	20.476398
3301.000000	20.235623
3300.000000	20.005336
3299.000000	19.785175
3298.000000	19.573718
3297.000000	19.372049
3296.000000	19.182261
3295.000000	19.004079
3294.000000	18.836057
3293.000000	18.679461
3292.000000	18.537150
3291.000000	18.408867
3290.000000	18.292323
3289.000000	18.186771
3288.000000	18.092491
3287.000000	18.007869
3286.000000	17.930302
3285.000000	17.859809
3284.000000	17.797436
3283.000000	17.741921
3282.000000	17.691293
3281.000000	17.646069
3280.000000	17.607764
3279.000000	17.575188
3278.000000	17.546098
3277.000000	17.521159
3276.000000	17.502288
3275.000000	17.488649
3274.000000	17.477847
3273.000000	17.470072
3272.000000	17.467579
3271.000000	17.470768
3270.000000	17.478216
3269.000000	17.489174
3268.000000	17.502784
3267.000000	17.516513
3266.000000	17.528578
3265.000000	17.540845
3264.000000	17.556187
3263.000000	17.574368
3262.000000	17.593727
3261.000000	17.614701
3260.000000	17.638333
3259.000000	17.663070
3258.000000	17.686731
3257.000000	17.710466
3256.000000	17.737003
3255.000000	17.766375
3254.000000	17.796604
3253.000000	17.827189
3252.000000	17.858519
3251.000000	17.889292
3250.000000	17.918100
3249.000000	17.946591
3248.000000	17.977831
3247.000000	18.012543
3246.000000	18.049544
3245.000000	18.088323
3244.000000	18.128312
3243.000000	18.167189
3242.000000	18.203118
3241.000000	18.237292
3240.000000	18.271661
3239.000000	18.305648
3238.000000	18.337840
3237.000000	18.369062
3236.000000	18.401018
3235.000000	18.433662
3234.000000	18.466700
3233.000000	18.501689
3232.000000	18.539463
3231.000000	18.577389
3230.000000	18.612221
3229.000000	18.643972
3228.000000	18.674184
3227.000000	18.702447
3226.000000	18.727787
3225.000000	18.751596
3224.000000	18.775764
3223.000000	18.799673
3222.000000	18.821975
3221.000000	18.843594
3220.000000	18.865853
3219.000000	18.887346
3218.000000	18.905906
3217.000000	18.921999
3216.000000	18.937156
3215.000000	18.950727
3214.000000	18.961095
3213.000000	18.968718
3212.000000	18.974972
3211.000000	18.979563
3210.000000	18.981864
3209.000000	18.982950
3208.000000	18.983724
3207.000000	18.982708
3206.000000	18.978312
3205.000000	18.971531
3204.000000	18.963601
3203.000000	18.953149
3202.000000	18.938491
3201.000000	18.920708
3200.000000	18.901748
3199.000000	18.881235
3198.000000	18.858150
3197.000000	18.833589
3196.000000	18.808861
3195.000000	18.782837
3194.000000	18.754012
3193.000000	18.723392
3192.000000	18.692564
3191.000000	18.660681
3190.000000	18.626295
3189.000000	18.590181
3188.000000	18.553659
3187.000000	18.516160
3186.000000	18.477120
3185.000000	18.438231
3184.000000	18.400936
3183.000000	18.363821
3182.000000	18.325370
3181.000000	18.287217
3180.000000	18.251675
3179.000000	18.218098
3178.000000	18.184604
3177.000000	18.151508
3176.000000	18.120132
3175.000000	18.090054
3174.000000	18.060487
3173.000000	18.032545
3172.000000	18.007403
3171.000000	17.984119
3170.000000	17.961744
3169.000000	17.941688
3168.000000	17.925536
3167.000000	17.912472
3166.000000	17.901434
3165.000000	17.893416
3164.000000	17.889165
3163.000000	17.886968
3162.000000	17.885239
3161.000000	17.885229
3160.000000	17.888509
3159.000000	17.894107
3158.000000	17.900784
3157.000000	17.909605
3156.000000	17.921793
3155.000000	17.936399
3154.000000	17.952795
3153.000000	17.973106
3152.000000	17.999087
3151.000000	18.029013
3150.000000	18.060301
3149.000000	18.092949
3148.000000	18.127886
3147.000000	18.164169
3146.000000	18.200829
3145.000000	18.239206
3144.000000	18.280628
3143.000000	18.323910
3142.000000	18.367695
3141.000000	18.413334
3140.000000	18.462851
3139.000000	18.515958
3138.000000	18.571524
3137.000000	18.629689
3136.000000	18.690309
3135.000000	18.751574
3134.000000	18.812395
3133.000000	18.874199
3132.000000	18.938161
3131.000000	19.003227
3130.000000	19.068942
3129.000000	19.137401
3128.000000	19.210075
3127.000000	19.285140
3126.000000	19.360425
3125.000000	19.436523
3124.000000	19.514489
3123.000000	19.593127
3122.000000	19.671215
3121.000000	19.750034
3120.000000	19.831178
3119.000000	19.914090
3118.000000	19.998261
3117.000000	20.085446
3116.000000	20.177094
3115.000000	20.271786
3114.000000	20.367417
3113.000000	20.463838
3112.000000	20.561257
3111.000000	20.658556
3110.000000	20.755481
3109.000000	20.854019
3108.000000	20.955333
3107.000000	21.057597
3106.000000	21.159004
3105.000000	21.260644
3104.000000	21.364194
3103.000000	21.469244
3102.000000	21.575156
3101.000000	21.683051
3100.000000	21.793690
3099.000000	21.905535
3098.000000	22.017237
3097.000000	22.129761
3096.000000	22.243862
3095.000000	22.357893
3094.000000	22.470356
3093.000000	22.582502
3092.000000	22.696177
3091.000000	22.811186
3090.000000	22.926821
3089.000000	23.043766
3088.000000	23.162400
3087.000000	23.281315
3086.000000	23.399545
3085.000000	23.518281
3084.000000	23.638452
3083.000000	23.758721
3082.000000	23.877780
3081.000000	23.996448
3080.000000	24.115750
3079.000000	24.235122
3078.000000	24.354361
3077.000000	24.475005
3076.000000	24.597906
3075.000000	24.721615
3074.000000	24.844878
3073.000000	24.968434
3072.000000	25.092567
3071.000000	25.215387
3070.000000	25.335650
3069.000000	25.454998
3068.000000	25.575391
3067.000000	25.696407
3066.000000	25.817007
3065.000000	25.937782
3064.000000	26.059346
3063.000000	26.180668
3062.000000	26.301016
3061.000000	26.421594
3060.000000	26.543375
3059.000000	26.665223
3058.000000	26.785957
3057.000000	26.906213
3056.000000	27.026480
3055.000000	27.145350
3054.000000	27.261676
3053.000000	27.376675
3052.000000	27.492028
3051.000000	27.607713
3050.000000	27.723373
3049.000000	27.839858
3048.000000	27.957687
3047.000000	28.075755
3046.000000	28.193194
3045.000000	28.310684
3044.000000	28.428414
3043.000000	28.544813
3042.000000	28.658923
3041.000000	28.772025
3040.000000	28.885280
3039.000000	28.997713
3038.000000	29.108349
3037.000000	29.218353
3036.000000	29.329249
3035.000000	29.440896
3034.000000	29.552934
3033.000000	29.666331
3032.000000	29.781506
3031.000000	29.896590
3030.000000	30.009469
3029.000000	30.120088
3028.000000	30.229245
3027.000000	30.336773
3026.000000	30.442586
3025.000000	30.547984
3024.000000	30.654244
3023.000000	30.761219
3022.000000	30.868498
3021.000000	30.976473
3020.000000	31.085067
3019.000000	31.193003
3018.000000	31.299573
3017.000000	31.405447
3016.000000	31.510707
3015.000000	31.614025
3014.000000	31.715073
3013.000000	31.815816
3012.000000	31.917954
3011.000000	32.020915
3010.000000	32.123726
3009.000000	32.226967
3008.000000	32.331381
3007.000000	32.436295
3006.000000	32.540888
3005.000000	32.645399
3004.000000	32.749718
3003.000000	32.852362
3002.000000	32.952280
3001.000000	33.050193
3000.000000	33.147004
2999.000000	33.242529
2998.000000	33.337009
2997.000000	33.432087
2996.000000	33.528901
2995.000000	33.626731
2994.000000	33.724799
2993.000000	33.823769
2992.000000	33.924088
2991.000000	34.024453
2990.000000	34.123351
2989.000000	34.220657
2988.000000	34.316448
2987.000000	34.409891
2986.000000	34.500707
2985.000000	34.590350
2984.000000	34.680389
2983.000000	34.771049
2982.000000	34.862448
2981.000000	34.955662
2980.000000	35.051217
2979.000000	35.147872
2978.000000	35.244125
2977.000000	35.339618
2976.000000	35.434050
2975.000000	35.526336
2974.000000	35.616226
2973.000000	35.705208
2972.000000	35.794591
2971.000000	35.884006
2970.000000	35.973007
2969.000000	36.062545
2968.000000	36.153505
2967.000000	36.245294
2966.000000	36.337214
2965.000000	36.429715
2964.000000	36.522852
2963.000000	36.614898
2962.000000	36.704093
2961.000000	36.790561
2960.000000	36.875269
2959.000000	36.958536
2958.000000	37.040828
2957.000000	37.123596
2956.000000	37.207771
2955.000000	37.292665
2954.000000	37.377535
2953.000000	37.462947
2952.000000	37.549365
2951.000000	37.635687
2950.000000	37.720415
2949.000000	37.803137
2948.000000	37.883875
2947.000000	37.962356
2946.000000	38.039055
2945.000000	38.115719
2944.000000	38.193759
2943.000000	38.273136
2942.000000	38.353597
2941.000000	38.435606
2940.000000	38.519106
2939.000000	38.602845
2938.000000	38.685962
2937.000000	38.768814
2936.000000	38.851224
2935.000000	38.931438
2934.000000	39.008167
2933.000000	39.082346
2932.000000	39.155656
2931.000000	39.228664
2930.000000	39.301612
2929.000000	39.375618
2928.000000	39.451593
2927.000000	39.529036
2926.000000	39.607072
2925.000000	39.685514
2924.000000	39.763865
2923.000000	39.840584
2922.000000	39.914564
2921.000000	39.986232
2920.000000	40.056204
2919.000000	40.124176
2918.000000	40.190137
2917.000000	40.255416
2916.000000	40.321408
2915.000000	40.388278
2914.000000	40.455846
2913.000000	40.524584
2912.000000	40.594819
2911.000000	40.665844
2910.000000	40.736694
2909.000000	40.806919
2908.000000	40.875910
2907.000000	40.942586
2906.000000	41.006541
2905.000000	41.068620
2904.000000	41.129887
2903.000000	41.190590
2902.000000	41.251548
2901.000000	41.314250
2900.000000	41.379730
2899.000000	41.447804
2898.000000	41.517464
2897.000000	41.587500
2896.000000	41.656115
2895.000000	41.721423
2894.000000	41.783020
2893.000000	41.842171
2892.000000	41.899942
2891.000000	41.956315
2890.000000	42.011602
2889.000000	42.067365
2888.000000	42.125070
2887.000000	42.184910
2886.000000	42.246579
2885.000000	42.310063
2884.000000	42.374868
2883.000000	42.439560
2882.000000	42.502936
2881.000000	42.564749
2880.000000	42.624778
2879.000000	42.682527
2878.000000	42.738859
2877.000000	42.796654
2876.000000	42.858219
2875.000000	42.922333
2874.000000	42.984933
2873.000000	43.042702
2872.000000	43.095682
2871.000000	43.146971
2870.000000	43.200326
2869.000000	43.257462
2868.000000	43.316866
2867.000000	43.375354
2866.000000	43.430951
2865.000000	43.484077
2864.000000	43.536430
2863.000000	43.589632
2862.000000	43.644751
2861.000000	43.701747
2860.000000	43.759088
2859.000000	43.815097
2858.000000	43.870032
2857.000000	43.925855
2856.000000	43.983698
2855.000000	44.042619
2854.000000	44.101062
2853.000000	44.158397
2852.000000	44.214798
2851.000000	44.270667
2850.000000	44.326336
2849.000000	44.381377
2848.000000	44.434314
2847.000000	44.484386
2846.000000	44.533574
2845.000000	44.585411
2844.000000	44.641821
2843.000000	44.702413
2842.000000	44.766434
2841.000000	44.832921
2840.000000	44.898563
2839.000000	44.958145
2838.000000	45.008934
2837.000000	45.053327
2836.000000	45.095998
2835.000000	45.139752
2834.000000	45.185141
2833.000000	45.232505
2832.000000	45.282538
2831.000000	45.335475
2830.000000	45.391088
2829.000000	45.449107
2828.000000	45.508780
2827.000000	45.568553
2826.000000	45.627050
2825.000000	45.683935
2824.000000	45.739275
2823.000000	45.792844
2822.000000	45.844789
2821.000000	45.896208
2820.000000	45.948262
2819.000000	46.001299
2818.000000	46.055420
2817.000000	46.111066
2816.000000	46.168274
2815.000000	46.226120
2814.000000	46.283670
2813.000000	46.340725
2812.000000	46.396820
2811.000000	46.450309
2810.000000	46.499573
2809.000000	46.544789
2808.000000	46.587664
2807.000000	46.629820
2806.000000	46.672210
2805.000000	46.715568
2804.000000	46.760476
2803.000000	46.807015
2802.000000	46.854859
2801.000000	46.903460
2800.000000	46.951711
2799.000000	46.997981
2798.000000	47.041153
2797.000000	47.081392
2796.000000	47.119567
2795.000000	47.156439
2794.000000	47.192910
2793.000000	47.230396
2792.000000	47.270077
2791.000000	47.311958
2790.000000	47.355231
2789.000000	47.399272
2788.000000	47.443872
2787.000000	47.488948
2786.000000	47.534543
2785.000000	47.580734
2784.000000	47.627007
2783.000000	47.672012
2782.000000	47.714439
2781.000000	47.753995
2780.000000	47.791290
2779.000000	47.827244
2778.000000	47.862902
2777.000000	47.899129
2776.000000	47.935840
2775.000000	47.971762
2774.000000	48.005427
2773.000000	48.036190
2772.000000	48.063896
2771.000000	48.088108
2770.000000	48.108084
2769.000000	48.123196
2768.000000	48.133055
2767.000000	48.137509
2766.000000	48.137065
2765.000000	48.133015
2764.000000	48.126763
2763.000000	48.119419
2762.000000	48.112074
2761.000000	48.105794
2760.000000	48.100839
2759.000000	48.096271
2758.000000	48.090873
2757.000000	48.084002
2756.000000	48.075261
2755.000000	48.064029
2754.000000	48.049872
2753.000000	48.033037
2752.000000	48.013952
2751.000000	47.992709
2750.000000	47.969425
2749.000000	47.944448
2748.000000	47.917784
2747.000000	47.888656
2746.000000	47.856113
2745.000000	47.819606
2744.000000	47.778496
2743.000000	47.731921
2742.000000	47.679775
2741.000000	47.623322
2740.000000	47.564483
2739.000000	47.505227
2738.000000	47.448316
2737.000000	47.398017
2736.000000	47.358899
2735.000000	47.334090
2734.000000	47.325290
2733.000000	47.333273
2732.000000	47.357810
2731.000000	47.397574
2730.000000	47.450584
2729.000000	47.515011
2728.000000	47.588712
2727.000000	47.668810
2726.000000	47.752835
2725.000000	47.839606
2724.000000	47.929055
2723.000000	48.021387
2722.000000	48.116708
2721.000000	48.214993
2720.000000	48.315359
2719.000000	48.415676
2718.000000	48.513343
2717.000000	48.606175
2716.000000	48.692295
2715.000000	48.769886
2714.000000	48.837610
2713.000000	48.895305
2712.000000	48.943980
2711.000000	48.985124
2710.000000	49.020682
2709.000000	49.052883
2708.000000	49.083341
2707.000000	49.112525
2706.000000	49.140140
2705.000000	49.166005
2704.000000	49.189794
2703.000000	49.210237
2702.000000	49.225519
2701.000000	49.234371
2700.000000	49.236668
2699.000000	49.233144
2698.000000	49.225145
2697.000000	49.214767
2696.000000	49.204398
2695.000000	49.195936
2694.000000	49.190502
2693.000000	49.188500
2692.000000	49.189476
2691.000000	49.191945
2690.000000	49.193870
2689.000000	49.193438
2688.000000	49.189292
2687.000000	49.180488
2686.000000	49.166851
2685.000000	49.149435
2684.000000	49.130284
2683.000000	49.111633
2682.000000	49.095459
2681.000000	49.083326
2680.000000	49.075992
2679.000000	49.073091
2678.000000	49.073501
2677.000000	49.075946
2676.000000	49.079198
2675.000000	49.081991
2674.000000	49.083261
2673.000000	49.082753
2672.000000	49.081333
2671.000000	49.080924
2670.000000	49.084061
2669.000000	49.092959
2668.000000	49.108681
2667.000000	49.131025
2666.000000	49.159106
2665.000000	49.191567
2664.000000	49.226058
2663.000000	49.259368
2662.000000	49.288535
2661.000000	49.311724
2660.000000	49.328145
2659.000000	49.337778
2658.000000	49.341631
2657.000000	49.341966
2656.000000	49.341665
2655.000000	49.343261
2654.000000	49.348599
2653.000000	49.358794
2652.000000	49.373980
2651.000000	49.393326
2650.000000	49.415666
2649.000000	49.439967
2648.000000	49.465387
2647.000000	49.491362
2646.000000	49.518071
2645.000000	49.546737
2644.000000	49.578995
2643.000000	49.616446
2642.000000	49.660658
2641.000000	49.712827
2640.000000	49.773008
2639.000000	49.839599
2638.000000	49.910110
2637.000000	49.982077
2636.000000	50.052970
2635.000000	50.119935
2634.000000	50.180322
2633.000000	50.232609
2632.000000	50.276661
2631.000000	50.313403
2630.000000	50.344427
2629.000000	50.371995
2628.000000	50.398606
2627.000000	50.426136
2626.000000	50.455474
2625.000000	50.486449
2624.000000	50.518009
2623.000000	50.548405
2622.000000	50.575531
2621.000000	50.597470
2620.000000	50.612637
2619.000000	50.619990
2618.000000	50.619382
2617.000000	50.611738
2616.000000	50.598931
2615.000000	50.583111
2614.000000	50.566235
2613.000000	50.549763
2612.000000	50.534138
2611.000000	50.518750
2610.000000	50.502398
2609.000000	50.483926
2608.000000	50.462526
2607.000000	50.437835
2606.000000	50.410354
2605.000000	50.381743
2604.000000	50.354511
2603.000000	50.331495
2602.000000	50.315850
2601.000000	50.310776
2600.000000	50.318794
2599.000000	50.340863
2598.000000	50.375985
2597.000000	50.421979
2596.000000	50.475894
2595.000000	50.534392
2594.000000	50.594283
2593.000000	50.652826
2592.000000	50.708335
2591.000000	50.760419
2590.000000	50.809958
2589.000000	50.858795
2588.000000	50.909083
2587.000000	50.962910
2586.000000	51.022009
2585.000000	51.087402
2584.000000	51.158951
2583.000000	51.235108
2582.000000	51.313328
2581.000000	51.390842
2580.000000	51.465451
2579.000000	51.536050
2578.000000	51.602574
2577.000000	51.665572
2576.000000	51.725927
2575.000000	51.784926
2574.000000	51.844283
2573.000000	51.905762
2572.000000	51.970401
2571.000000	52.037937
2570.000000	52.106746
2569.000000	52.174059
2568.000000	52.236633
2567.000000	52.291430
2566.000000	52.336267
2565.000000	52.370191
2564.000000	52.393194
2563.000000	52.406196
2562.000000	52.410924
2561.000000	52.409688
2560.000000	52.404928
2559.000000	52.398164
2558.000000	52.389781
2557.000000	52.379491
2556.000000	52.367162
2555.000000	52.353552
2554.000000	52.340389
2553.000000	52.330041
2552.000000	52.325134
2551.000000	52.328416
2550.000000	52.342496
2549.000000	52.369573
2548.000000	52.410511
2547.000000	52.464459
2546.000000	52.529560
2545.000000	52.603447
2544.000000	52.683769
2543.000000	52.767972
2542.000000	52.853121
2541.000000	52.936241
2540.000000	53.014517
2539.000000	53.085563
2538.000000	53.147881
2537.000000	53.201446
2536.000000	53.247788
2535.000000	53.289493
2534.000000	53.329340
2533.000000	53.369863
2532.000000	53.413205
2531.000000	53.460549
2530.000000	53.511640
2529.000000	53.564809
2528.000000	53.617594
2527.000000	53.667457
2526.000000	53.712205
2525.000000	53.750519
2524.000000	53.782267
2523.000000	53.808327
2522.000000	53.830216
2521.000000	53.849893
2520.000000	53.869869
2519.000000	53.892787
2518.000000	53.920486
2517.000000	53.953378
2516.000000	53.990530
2515.000000	54.030102
2514.000000	54.069702
2513.000000	54.106700
2512.000000	54.138705
2511.000000	54.164145
2510.000000	54.182863
2509.000000	54.196373
2508.000000	54.207353
2507.000000	54.218707
2506.000000	54.232838
2505.000000	54.251539
2504.000000	54.275857
2503.000000	54.305540
2502.000000	54.338772
2501.000000	54.372839
2500.000000	54.405087
2499.000000	54.433328
2498.000000	54.455887
2497.000000	54.471995
2496.000000	54.482175
2495.000000	54.488113
2494.000000	54.492256
2493.000000	54.497546
2492.000000	54.506998
2491.000000	54.522615
2490.000000	54.544484
2489.000000	54.571032
2488.000000	54.599917
2487.000000	54.628475
2486.000000	54.653852
2485.000000	54.673633
2484.000000	54.686682
2483.000000	54.693234
2482.000000	54.694551
2481.000000	54.692888
2480.000000	54.691481
2479.000000	54.693746
2478.000000	54.702035
2477.000000	54.717125
2476.000000	54.738388
2475.000000	54.763901
2474.000000	54.790599
2473.000000	54.815145
2472.000000	54.834988
2471.000000	54.848633
2470.000000	54.855405
2469.000000	54.855796
2468.000000	54.851979
2467.000000	54.847342
2466.000000	54.845204
2465.000000	54.848011
2464.000000	54.857309
2463.000000	54.873557
2462.000000	54.895646
2461.000000	54.920978
2460.000000	54.946227
2459.000000	54.968053
2458.000000	54.983660
2457.000000	54.991645
2456.000000	54.992620
2455.000000	54.988734
2454.000000	54.982715
2453.000000	54.977542
2452.000000	54.976465
2451.000000	54.982214
2450.000000	54.995761
2449.000000	55.016043
2448.000000	55.040832
2447.000000	55.067403
2446.000000	55.092525
2445.000000	55.112858
2444.000000	55.126019
2443.000000	55.131399
2442.000000	55.130146
2441.000000	55.124834
2440.000000	55.119035
2439.000000	55.116482
2438.000000	55.120046
2437.000000	55.131160
2436.000000	55.149734
2435.000000	55.174168
2434.000000	55.201555
2433.000000	55.228423
2432.000000	55.251604
2431.000000	55.268570
2430.000000	55.277729
2429.000000	55.279258
2428.000000	55.275546
2427.000000	55.270181
2426.000000	55.266494
2425.000000	55.267173
2424.000000	55.274552
2423.000000	55.290046
2422.000000	55.313065
2421.000000	55.340985
2420.000000	55.370318
2419.000000	55.397603
2418.000000	55.419635
2417.000000	55.434006
2416.000000	55.440100
2415.000000	55.439425
2414.000000	55.434955
2413.000000	55.430403
2412.000000	55.429612
2411.000000	55.435617
2410.000000	55.449736
2409.000000	55.471524
2408.000000	55.499302
2407.000000	55.530412
2406.000000	55.561260
2405.000000	55.588105
2404.000000	55.608316
2403.000000	55.620923
2402.000000	55.626389
2401.000000	55.626542
2400.000000	55.624559
2399.000000	55.624189
2398.000000	55.628639
2397.000000	55.640102
2396.000000	55.659723
2395.000000	55.687202
2394.000000	55.720415
2393.000000	55.755926
2392.000000	55.790023
2391.000000	55.819310
2390.000000	55.841201
2389.000000	55.854790
2388.000000	55.861628
2387.000000	55.864856
2386.000000	55.867814
2385.000000	55.873703
2384.000000	55.885418
2383.000000	55.905357
2382.000000	55.934510
2381.000000	55.972530
2380.000000	56.018361
2379.000000	56.069786
2378.000000	56.123385
2377.000000	56.175350
2376.000000	56.222555
2375.000000	56.262845
2374.000000	56.295419
2373.000000	56.321585
2372.000000	56.344652
2371.000000	56.368218
2370.000000	56.394204
2369.000000	56.423904
2368.000000	56.458582
2367.000000	56.498297
2366.000000	56.540810
2365.000000	56.582832
2364.000000	56.623617
2363.000000	56.660866
2362.000000	56.691462
2361.000000	56.717502
2360.000000	56.741357
2359.000000	56.767134
2358.000000	56.796831
2357.000000	56.830626
2356.000000	56.871599
2355.000000	56.917297
2354.000000	56.964148
2353.000000	57.007872
2352.000000	57.048457
2351.000000	57.087776
2350.000000	57.120369
2349.000000	57.147003
2348.000000	57.173537
2347.000000	57.210925
2346.000000	57.262423
2345.000000	57.316050
2344.000000	57.361475
2343.000000	57.393382
2342.000000	57.422014
2341.000000	57.456636
2340.000000	57.497884
2339.000000	57.543318
2338.000000	57.589769
2337.000000	57.635573
2336.000000	57.678930
2335.000000	57.717819
2334.000000	57.751273
2333.000000	57.779124
2332.000000	57.803052
2331.000000	57.828968
2330.000000	57.857172
2329.000000	57.891071
2328.000000	57.929328
2327.000000	57.973119
2326.000000	58.022927
2325.000000	58.075034
2324.000000	58.129291
2323.000000	58.180945
2322.000000	58.228804
2321.000000	58.269063
2320.000000	58.301606
2319.000000	58.328718
2318.000000	58.352317
2317.000000	58.374735
2316.000000	58.397102
2315.000000	58.423370
2314.000000	58.455209
2313.000000	58.493545
2312.000000	58.536715
2311.000000	58.583553
2310.000000	58.631430
2309.000000	58.677387
2308.000000	58.719580
2307.000000	58.757541
2306.000000	58.791248
2305.000000	58.819684
2304.000000	58.843882
2303.000000	58.866871
2302.000000	58.892308
2301.000000	58.922494
2300.000000	58.958310
2299.000000	59.000215
2298.000000	59.046648
2297.000000	59.094797
2296.000000	59.141717
2295.000000	59.185843
2294.000000	59.225900
2293.000000	59.260287
2292.000000	59.288729
2291.000000	59.312317
2290.000000	59.332952
2289.000000	59.352195
2288.000000	59.372684
2287.000000	59.397288
2286.000000	59.427657
2285.000000	59.463183
2284.000000	59.502786
2283.000000	59.545260
2282.000000	59.588482
2281.000000	59.629320
2280.000000	59.665554
2279.000000	59.696581
2278.000000	59.722193
2277.000000	59.742440
2276.000000	59.758823
2275.000000	59.774617
2274.000000	59.792717
2273.000000	59.814901
2272.000000	59.842636
2271.000000	59.876970
2270.000000	59.916929
2269.000000	59.959379
2268.000000	60.001259
2267.000000	60.040561
2266.000000	60.075168
2265.000000	60.102889
2264.000000	60.123111
2263.000000	60.137356
2262.000000	60.147704
2261.000000	60.156095
2260.000000	60.165552
2259.000000	60.179430
2258.000000	60.199244
2257.000000	60.223881
2256.000000	60.251476
2255.000000	60.280205
2254.000000	60.307053
2253.000000	60.328177
2252.000000	60.340838
2251.000000	60.344296
2250.000000	60.338161
2249.000000	60.322350
2248.000000	60.298681
2247.000000	60.270725
2246.000000	60.241552
2245.000000	60.212546
2244.000000	60.184610
2243.000000	60.158230
2242.000000	60.132060
2241.000000	60.103150
2240.000000	60.068997
2239.000000	60.028220
2238.000000	59.979629
2237.000000	59.922957
2236.000000	59.861081
2235.000000	59.799567
2234.000000	59.743664
2233.000000	59.696914
2232.000000	59.662399
2231.000000	59.642660
2230.000000	59.637629
2229.000000	59.644273
2228.000000	59.658794
2227.000000	59.677764
2226.000000	59.696841
2225.000000	59.710976
2224.000000	59.717033
2223.000000	59.715013
2222.000000	59.706279
2221.000000	59.692320
2220.000000	59.675831
2219.000000	59.660904
2218.000000	59.650944
2217.000000	59.647339
2216.000000	59.650463
2215.000000	59.660177
2214.000000	59.674607
2213.000000	59.689963
2212.000000	59.702521
2211.000000	59.709960
2210.000000	59.710866
2209.000000	59.704728
2208.000000	59.693058
2207.000000	59.679044
2206.000000	59.665577
2205.000000	59.654790
2204.000000	59.649296
2203.000000	59.651705
2202.000000	59.662199
2201.000000	59.678068
2200.000000	59.696024
2199.000000	59.713465
2198.000000	59.727432
2197.000000	59.734625
2196.000000	59.733485
2195.000000	59.724948
2194.000000	59.710732
2193.000000	59.692559
2192.000000	59.673328
2191.000000	59.656962
2190.000000	59.646068
2189.000000	59.640883
2188.000000	59.640711
2187.000000	59.644650
2186.000000	59.650493
2185.000000	59.654789
2184.000000	59.654940
2183.000000	59.650222
2182.000000	59.640759
2181.000000	59.627326
2180.000000	59.612504
2179.000000	59.600200
2178.000000	59.593321
2177.000000	59.593148
2176.000000	59.600959
2175.000000	59.618124
2174.000000	59.644016
2173.000000	59.675448
2172.000000	59.708824
2171.000000	59.741404
2170.000000	59.770468
2169.000000	59.793596
2168.000000	59.810678
2167.000000	59.824151
2166.000000	59.836775
2165.000000	59.850703
2164.000000	59.868658
2163.000000	59.893586
2162.000000	59.926239
2161.000000	59.964734
2160.000000	60.006851
2159.000000	60.050885
2158.000000	60.093960
2157.000000	60.132097
2156.000000	60.163109
2155.000000	60.187805
2154.000000	60.207888
2153.000000	60.224667
2152.000000	60.240338
2151.000000	60.258138
2150.000000	60.280156
2149.000000	60.306594
2148.000000	60.337525
2147.000000	60.373200
2146.000000	60.412063
2145.000000	60.450520
2144.000000	60.485671
2143.000000	60.516625
2142.000000	60.542822
2141.000000	60.563638
2140.000000	60.580579
2139.000000	60.597630
2138.000000	60.618357
2137.000000	60.644288
2136.000000	60.676342
2135.000000	60.715338
2134.000000	60.760075
2133.000000	60.807027
2132.000000	60.852943
2131.000000	60.896040
2130.000000	60.934384
2129.000000	60.965765
2128.000000	60.990153
2127.000000	61.010200
2126.000000	61.028578
2125.000000	61.046781
2124.000000	61.066831
2123.000000	61.091616
2122.000000	61.122471
2121.000000	61.158235
2120.000000	61.197196
2119.000000	61.237793
2118.000000	61.277195
2117.000000	61.312022
2116.000000	61.341425
2115.000000	61.367190
2114.000000	61.390467
2113.000000	61.410972
2112.000000	61.429889
2111.000000	61.450587
2110.000000	61.475480
2109.000000	61.504607
2108.000000	61.537721
2107.000000	61.574844
2106.000000	61.613731
2105.000000	61.649665
2104.000000	61.679004
2103.000000	61.700736
2102.000000	61.714360
2101.000000	61.719168
2100.000000	61.716771
2099.000000	61.711242
2098.000000	61.705709
2097.000000	61.701204
2096.000000	61.698664
2095.000000	61.699200
2094.000000	61.701713
2093.000000	61.703183
2092.000000	61.702353
2091.000000	61.700371
2090.000000	61.697261
2089.000000	61.690940
2088.000000	61.680818
2087.000000	61.669584
2086.000000	61.660405
2085.000000	61.655171
2084.000000	61.656401
2083.000000	61.667537
2082.000000	61.689970
2081.000000	61.721815
2080.000000	61.760472
2079.000000	61.803865
2078.000000	61.848297
2077.000000	61.888872
2076.000000	61.923153
2075.000000	61.952578
2074.000000	61.979206
2073.000000	62.003897
2072.000000	62.029133
2071.000000	62.059105
2070.000000	62.095521
2069.000000	62.136679
2068.000000	62.182291
2067.000000	62.235851
2066.000000	62.299754
2065.000000	62.370587
2064.000000	62.441627
2063.000000	62.507812
2062.000000	62.566520
2061.000000	62.616826
2060.000000	62.660709
2059.000000	62.703014
2058.000000	62.748137
2057.000000	62.798234
2056.000000	62.854828
2055.000000	62.919363
2054.000000	62.990724
2053.000000	63.064763
2052.000000	63.137840
2051.000000	63.207883
2050.000000	63.271438
2049.000000	63.324154
2048.000000	63.365577
2047.000000	63.399424
2046.000000	63.428718
2045.000000	63.454910
2044.000000	63.482539
2043.000000	63.519824
2042.000000	63.572321
2041.000000	63.638930
2040.000000	63.715077
2039.000000	63.796307
2038.000000	63.877445
2037.000000	63.952464
2036.000000	64.018012
2035.000000	64.074675
2034.000000	64.123960
2033.000000	64.167311
2032.000000	64.208400
2031.000000	64.253180
2030.000000	64.305441
2029.000000	64.365776
2028.000000	64.434733
2027.000000	64.512911
2026.000000	64.597500
2025.000000	64.682073
2024.000000	64.761831
2023.000000	64.833899
2022.000000	64.893199
2021.000000	64.934591
2020.000000	64.961042
2019.000000	64.985050
2018.000000	65.019354
2017.000000	65.069038
2016.000000	65.133363
2015.000000	65.210481
2014.000000	65.297360
2013.000000	65.389347
2012.000000	65.482475
2011.000000	65.574425
2010.000000	65.662199
2009.000000	65.742070
2008.000000	65.812701
2007.000000	65.875762
2006.000000	65.933544
2005.000000	65.987843
2004.000000	66.043301
2003.000000	66.105801
2002.000000	66.178346
2001.000000	66.260726
2000.000000	66.352301
1999.000000	66.453047
1998.000000	66.556823
1997.000000	66.649998
1996.000000	66.721707
1995.000000	66.772618
1994.000000	66.812061
1993.000000	66.849717
1992.000000	66.890975
1991.000000	66.938018
1990.000000	66.992818
1989.000000	67.058860
1988.000000	67.139660
1987.000000	67.233283
1986.000000	67.331144
1985.000000	67.424623
1984.000000	67.511436
1983.000000	67.591261
1982.000000	67.659806
1981.000000	67.711985
1980.000000	67.748910
1979.000000	67.778085
1978.000000	67.804722
1977.000000	67.830906
1976.000000	67.862233
1975.000000	67.906652
1974.000000	67.965458
1973.000000	68.031644
1972.000000	68.097276
1971.000000	68.156325
1970.000000	68.202830
1969.000000	68.236046
1968.000000	68.265882
1967.000000	68.302598
1966.000000	68.342902
1965.000000	68.376481
1964.000000	68.403089
1963.000000	68.432708
1962.000000	68.471751
1961.000000	68.519001
1960.000000	68.573868
1959.000000	68.637400
1958.000000	68.704489
1957.000000	68.766636
1956.000000	68.821666
1955.000000	68.872092
1954.000000	68.914451
1953.000000	68.941810
1952.000000	68.956133
1951.000000	68.965340
1950.000000	68.973450
1949.000000	68.981632
1948.000000	68.994979
1947.000000	69.018903
1946.000000	69.049949
1945.000000	69.082378
1944.000000	69.122286
1943.000000	69.179871
1942.000000	69.247803
1941.000000	69.305634
1940.000000	69.345083
1939.000000	69.372915
1938.000000	69.392726
1937.000000	69.402387
1936.000000	69.407920
1935.000000	69.424652
1934.000000	69.460130
1933.000000	69.509173
1932.000000	69.566912
1931.000000	69.630003
1930.000000	69.692235
1929.000000	69.742408
1928.000000	69.771060
1927.000000	69.773768
1926.000000	69.748153
1925.000000	69.704972
1924.000000	69.670427
1923.000000	69.666785
1922.000000	69.694549
1921.000000	69.741393
1920.000000	69.802234
1919.000000	69.875764
1918.000000	69.948220
1917.000000	70.002542
1916.000000	70.039319
1915.000000	70.071799
1914.000000	70.098792
1913.000000	70.102857
1912.000000	70.080269
1911.000000	70.051868
1910.000000	70.042929
1909.000000	70.060083
1908.000000	70.098259
1907.000000	70.154599
1906.000000	70.222740
1905.000000	70.292975
1904.000000	70.357647
1903.000000	70.414026
1902.000000	70.460691
1901.000000	70.490610
1900.000000	70.497906
1899.000000	70.484946
1898.000000	70.457793
1897.000000	70.428097
1896.000000	70.413540
1895.000000	70.425071
1894.000000	70.454568
1893.000000	70.484062
1892.000000	70.508234
1891.000000	70.539281
1890.000000	70.583943
1889.000000	70.627499
1888.000000	70.653236
1887.000000	70.663114
1886.000000	70.666409
1885.000000	70.664511
1884.000000	70.656979
1883.000000	70.650180
1882.000000	70.653011
1881.000000	70.667757
1880.000000	70.694012
1879.000000	70.734314
1878.000000	70.784843
1877.000000	70.833668
1876.000000	70.871983
1875.000000	70.894942
1874.000000	70.895052
1873.000000	70.865291
1872.000000	70.806814
1871.000000	70.728849
1870.000000	70.649737
1869.000000	70.598665
1868.000000	70.599876
1867.000000	70.656247
1866.000000	70.749658
1865.000000	70.849409
1864.000000	70.929554
1863.000000	70.982269
1862.000000	71.010917
1861.000000	71.018397
1860.000000	71.009204
1859.000000	70.992805
1858.000000	70.976243
1857.000000	70.959002
1856.000000	70.942921
1855.000000	70.936226
1854.000000	70.944411
1853.000000	70.959937
1852.000000	70.969712
1851.000000	70.971284
1850.000000	70.961939
1849.000000	70.937600
1848.000000	70.910857
1847.000000	70.908340
1846.000000	70.934654
1845.000000	70.950588
1844.000000	70.920007
1843.000000	70.859621
1842.000000	70.811894
1841.000000	70.797309
1840.000000	70.809756
1839.000000	70.833148
1838.000000	70.856750
1837.000000	70.878365
1836.000000	70.893318
1835.000000	70.891489
1834.000000	70.863007
1833.000000	70.800165
1832.000000	70.707800
1831.000000	70.613859
1830.000000	70.542117
1829.000000	70.490784
1828.000000	70.458159
1827.000000	70.454929
1826.000000	70.479284
1825.000000	70.509476
1824.000000	70.531228
1823.000000	70.549870
1822.000000	70.567214
1821.000000	70.566933
1820.000000	70.535716
1819.000000	70.479465
1818.000000	70.410518
1817.000000	70.338690
1816.000000	70.267546
1815.000000	70.196031
1814.000000	70.122121
1813.000000	70.050560
1812.000000	70.002201
1811.000000	69.989543
1810.000000	69.998515
1809.000000	70.008859
1808.000000	70.011090
1807.000000	70.001490
1806.000000	69.969810
1805.000000	69.905771
1804.000000	69.812007
1803.000000	69.709162
1802.000000	69.625275
1801.000000	69.576106
1800.000000	69.560439
1799.000000	69.560548
1798.000000	69.557620
1797.000000	69.549826
1796.000000	69.549777
1795.000000	69.565273
1794.000000	69.575682
1793.000000	69.550159
1792.000000	69.495740
1791.000000	69.444973
1790.000000	69.415363
1789.000000	69.405933
1788.000000	69.408376
1787.000000	69.411448
1786.000000	69.400431
1785.000000	69.364894
1784.000000	69.303274
1783.000000	69.229038
1782.000000	69.161929
1781.000000	69.103845
1780.000000	69.047345
1779.000000	68.982436
1778.000000	68.896363
1777.000000	68.781967
1776.000000	68.656864
1775.000000	68.559421
1774.000000	68.500844
1773.000000	68.453574
1772.000000	68.403464
1771.000000	68.364566
1770.000000	68.346568
1769.000000	68.346141
1768.000000	68.343966
1767.000000	68.315383
1766.000000	68.254078
1765.000000	68.177175
1764.000000	68.105271
1763.000000	68.040213
1762.000000	67.962785
1761.000000	67.861746
1760.000000	67.763302
1759.000000	67.703951
1758.000000	67.690691
1757.000000	67.682385
1756.000000	67.639736
1755.000000	67.569795
1754.000000	67.489151
1753.000000	67.380876
1752.000000	67.210328
1751.000000	66.989467
1750.000000	66.779147
1749.000000	66.629888
1748.000000	66.550508
1747.000000	66.519597
1746.000000	66.497722
1745.000000	66.457498
1744.000000	66.416402
1743.000000	66.402765
1742.000000	66.402887
1741.000000	66.368939
1740.000000	66.270433
1739.000000	66.124123
1738.000000	65.972977
1737.000000	65.854563
1736.000000	65.768280
1735.000000	65.644830
1734.000000	65.431579
1733.000000	65.176641
1732.000000	64.964771
1731.000000	64.847225
1730.000000	64.810718
1729.000000	64.780879
1728.000000	64.702693
1727.000000	64.581335
1726.000000	64.425510
1725.000000	64.225910
1724.000000	63.997545
1723.000000	63.775184
1722.000000	63.570057
1721.000000	63.358179
1720.000000	63.112206
1719.000000	62.833206
1718.000000	62.551046
1717.000000	62.302852
1716.000000	62.109051
1715.000000	61.961733
1714.000000	61.827740
1713.000000	61.669142
1712.000000	61.473337
1711.000000	61.254039
1710.000000	61.020337
1709.000000	60.762970
1708.000000	60.478943
1707.000000	60.190564
1706.000000	59.918121
1705.000000	59.676343
1704.000000	59.501091
1703.000000	59.438412
1702.000000	59.429674
1701.000000	59.237908
1700.000000	58.768361
1699.000000	58.236480
1698.000000	57.854015
1697.000000	57.669550
1696.000000	57.558826
1695.000000	57.369128
1694.000000	57.101657
1693.000000	56.821078
1692.000000	56.561236
1691.000000	56.308717
1690.000000	56.033434
1689.000000	55.737575
1688.000000	55.461506
1687.000000	55.245006
1686.000000	55.045010
1685.000000	54.766291
1684.000000	54.406025
1683.000000	54.054471
1682.000000	53.763533
1681.000000	53.533286
1680.000000	53.358956
1679.000000	53.230654
1678.000000	53.130511
1677.000000	53.013770
1676.000000	52.813737
1675.000000	52.517122
1674.000000	52.179617
1673.000000	51.851929
1672.000000	51.561447
1671.000000	51.311976
1670.000000	51.080291
1669.000000	50.838328
1668.000000	50.593235
1667.000000	50.380092
1666.000000	50.204266
1665.000000	50.033700
1664.000000	49.836739
1663.000000	49.615981
1662.000000	49.390779
1661.000000	49.157962
1660.000000	48.913745
1659.000000	48.669495
1658.000000	48.421697
1657.000000	48.168746
1656.000000	47.935021
1655.000000	47.751480
1654.000000	47.586568
1653.000000	47.344440
1652.000000	47.027461
1651.000000	46.712454
1650.000000	46.427907
1649.000000	46.182877
1648.000000	45.985903
1647.000000	45.837883
1646.000000	45.699723
1645.000000	45.522631
1644.000000	45.307853
1643.000000	45.088990
1642.000000	44.885064
1641.000000	44.674861
1640.000000	44.444151
1639.000000	44.219827
1638.000000	44.037231
1637.000000	43.903817
1636.000000	43.786718
1635.000000	43.647624
1634.000000	43.475657
1633.000000	43.282322
1632.000000	43.089670
1631.000000	42.908792
1630.000000	42.727576
1629.000000	42.533258
1628.000000	42.338576
1627.000000	42.171995
1626.000000	42.040643
1625.000000	41.921324
1624.000000	41.800290
1623.000000	41.688581
1622.000000	41.586972
1621.000000	41.475417
1620.000000	41.355431
1619.000000	41.255503
1618.000000	41.185204
1617.000000	41.113367
1616.000000	41.013285
1615.000000	40.905486
1614.000000	40.818584
1613.000000	40.755362
1612.000000	40.703896
1611.000000	40.659914
1610.000000	40.630674
1609.000000	40.613798
1608.000000	40.599094
1607.000000	40.584619
1606.000000	40.568719
1605.000000	40.537776
1604.000000	40.490162
1603.000000	40.449546
1602.000000	40.432975
1601.000000	40.430690
1600.000000	40.429592
1599.000000	40.434419
1598.000000	40.450050
1597.000000	40.467974
1596.000000	40.484324
1595.000000	40.508780
1594.000000	40.542469
1593.000000	40.567106
1592.000000	40.570981
1591.000000	40.566382
1590.000000	40.568153
1589.000000	40.572456
1588.000000	40.573488
1587.000000	40.580911
1586.000000	40.604793
1585.000000	40.636224
1584.000000	40.661928
1583.000000	40.687142
1582.000000	40.711672
1581.000000	40.709459
1580.000000	40.664309
1579.000000	40.603766
1578.000000	40.572162
1577.000000	40.578235
1576.000000	40.585110
1575.000000	40.564643
1574.000000	40.524866
1573.000000	40.486347
1572.000000	40.464684
1571.000000	40.460722
1570.000000	40.473512
1569.000000	40.486195
1568.000000	40.477042
1567.000000	40.460408
1566.000000	40.457353
1565.000000	40.455224
1564.000000	40.441519
1563.000000	40.435568
1562.000000	40.474393
1561.000000	40.504756
1560.000000	40.472169
1559.000000	40.527998
1558.000000	40.687753
1557.000000	40.802218
1556.000000	40.886538
1555.000000	41.016202
1554.000000	41.178098
1553.000000	41.300917
1552.000000	41.375172
1551.000000	41.460467
1550.000000	41.598678
1549.000000	41.763040
1548.000000	41.904141
1547.000000	42.010338
1546.000000	42.097668
1545.000000	42.187031
1544.000000	42.292980
1543.000000	42.416265
1542.000000	42.562405
1541.000000	42.803963
1540.000000	43.184587
1539.000000	43.573595
1538.000000	43.836359
1537.000000	43.987943
1536.000000	44.111870
1535.000000	44.278442
1534.000000	44.522604
1533.000000	44.819490
1532.000000	45.103338
1531.000000	45.354283
1530.000000	45.596337
1529.000000	45.844317
1528.000000	46.105491
1527.000000	46.392732
1526.000000	46.695694
1525.000000	46.971433
1524.000000	47.210161
1523.000000	47.480101
1522.000000	47.862333
1521.000000	48.308251
1520.000000	48.677024
1519.000000	48.950477
1518.000000	49.245007
1517.000000	49.646477
1516.000000	50.111660
1515.000000	50.554233
1514.000000	50.952245
1513.000000	51.304131
1512.000000	51.589367
1511.000000	51.791858
1510.000000	51.934364
1509.000000	52.076141
1508.000000	52.390577
1507.000000	53.048535
1506.000000	53.833531
1505.000000	54.401351
1504.000000	54.737025
1503.000000	55.006245
1502.000000	55.316835
1501.000000	55.660771
1500.000000	55.989615
1499.000000	56.305390
1498.000000	56.655834
1497.000000	57.057793
1496.000000	57.458881
1495.000000	57.797973
1494.000000	58.063711
1493.000000	58.269376
1492.000000	58.423784
1491.000000	58.567357
1490.000000	58.779558
1489.000000	59.083731
1488.000000	59.431623
1487.000000	59.777335
1486.000000	60.091403
1485.000000	60.342376
1484.000000	60.520446
1483.000000	60.663255
1482.000000	60.805873
1481.000000	60.940724
1480.000000	61.046035
1479.000000	61.119082
1478.000000	61.151688
1477.000000	61.123685
1476.000000	61.047489
1475.000000	60.969320
1474.000000	60.918984
1473.000000	60.879160
1472.000000	60.816781
1471.000000	60.715918
1470.000000	60.568599
1469.000000	60.368277
1468.000000	60.118709
1467.000000	59.820396
1466.000000	59.445915
1465.000000	58.961828
1464.000000	58.404197
1463.000000	57.857984
1462.000000	57.339759
1461.000000	56.805030
1460.000000	56.229990
1459.000000	55.626564
1458.000000	54.961154
1457.000000	54.154962
1456.000000	53.283738
1455.000000	52.497178
1454.000000	51.768725
1453.000000	50.981729
1452.000000	50.093916
1451.000000	49.134398
1450.000000	48.092239
1449.000000	46.896908
1448.000000	45.557546
1447.000000	44.186471
1446.000000	42.836662
1445.000000	41.453597
1444.000000	40.001122
1443.000000	38.485898
1442.000000	36.894039
1441.000000	35.235781
1440.000000	33.585451
1439.000000	31.936239
1438.000000	30.053438
1437.000000	27.727441
1436.000000	25.256441
1435.000000	23.152762
1434.000000	21.463008
1433.000000	19.955357
1432.000000	18.561005
1431.000000	17.364163
1430.000000	16.406699
1429.000000	15.685466
1428.000000	15.272436
1427.000000	15.223168
1426.000000	15.479127
1425.000000	15.985718
1424.000000	16.765755
1423.000000	17.771252
1422.000000	18.856601
1421.000000	19.986734
1420.000000	21.305845
1419.000000	22.863447
1418.000000	24.404948
1417.000000	25.726062
1416.000000	26.925537
1415.000000	28.135262
1414.000000	29.344604
1413.000000	30.515598
1412.000000	31.687344
1411.000000	32.895204
1410.000000	34.088848
1409.000000	35.216365
1408.000000	36.302338
1407.000000	37.392838
1406.000000	38.501678
1405.000000	39.627397
1404.000000	40.753565
1403.000000	41.825798
1402.000000	42.804144
1401.000000	43.731362
1400.000000	44.692804
1399.000000	45.698589
1398.000000	46.673137
1397.000000	47.604019
1396.000000	48.583983
1395.000000	49.663561
1394.000000	50.759330
1393.000000	51.768486
1392.000000	52.687670
1391.000000	53.558640
1390.000000	54.403689
1389.000000	55.246245
1388.000000	56.117843
1387.000000	57.002452
1386.000000	57.829595
1385.000000	58.563251
1384.000000	59.222731
1383.000000	59.813172
1382.000000	60.307658
1381.000000	60.687446
1380.000000	60.945398
1379.000000	61.055793
1378.000000	60.982440
1377.000000	60.704467
1376.000000	60.203866
1375.000000	59.461072
1374.000000	58.491067
1373.000000	57.361552
1372.000000	56.156358
1371.000000	54.945936
1370.000000	53.822500
1369.000000	52.929566
1368.000000	52.411687
1367.000000	52.325478
1366.000000	52.633726
1365.000000	53.283571
1364.000000	54.256528
1363.000000	55.530389
1362.000000	56.998413
1361.000000	58.489704
1360.000000	59.870449
1359.000000	61.073487
1358.000000	62.063825
1357.000000	62.814516
1356.000000	63.297486
1355.000000	63.485750
1354.000000	63.363659
1353.000000	62.929388
1352.000000	62.189170
1351.000000	61.151304
1350.000000	59.836347
1349.000000	58.280459
1348.000000	56.518162
1347.000000	54.575806
1346.000000	52.477342
1345.000000	50.252782
1344.000000	47.942126
1343.000000	45.579636
1342.000000	43.177117
1341.000000	40.746776
1340.000000	38.357235
1339.000000	36.145531
1338.000000	34.239588
1337.000000	32.679669
1336.000000	31.432051
1335.000000	30.436559
1334.000000	29.614583
1333.000000	28.873416
1332.000000	28.128906
1331.000000	27.315391
1330.000000	26.371547
1329.000000	25.236656
1328.000000	23.879861
1327.000000	22.325096
1326.000000	20.639423
1325.000000	18.911086
1324.000000	17.246722
1323.000000	15.756348
1322.000000	14.506915
1321.000000	13.500064
1320.000000	12.702981
1319.000000	12.073286
1318.000000	11.555822
1317.000000	11.095152
1316.000000	10.670567
1315.000000	10.301446
1314.000000	10.004373
1313.000000	9.772564
1312.000000	9.597861
1311.000000	9.479525
1310.000000	9.410650
1309.000000	9.382230
1308.000000	9.410871
1307.000000	9.535725
1306.000000	9.780641
1305.000000	10.146869
1304.000000	10.636470
1303.000000	11.252847
1302.000000	11.976650
1301.000000	12.766766
1300.000000	13.592974
1299.000000	14.442055
1298.000000	15.296586
1297.000000	16.135146
1296.000000	16.950808
1295.000000	17.748394
1294.000000	18.523235
1293.000000	19.261344
1292.000000	19.956768
1291.000000	20.610760
1290.000000	21.212670
1289.000000	21.740490
1288.000000	22.177893
1287.000000	22.514431
1286.000000	22.739127
1285.000000	22.851396
1284.000000	22.882424
1283.000000	22.892483
1282.000000	22.942639
1281.000000	23.077225
1280.000000	23.324397
1279.000000	23.690404
1278.000000	24.150562
1277.000000	24.664653
1276.000000	25.203281
1275.000000	25.752264
1274.000000	26.300010
1273.000000	26.836464
1272.000000	27.362283
1271.000000	27.882362
1270.000000	28.391489
1269.000000	28.878180
1268.000000	29.339286
1267.000000	29.778431
1266.000000	30.194600
1265.000000	30.584118
1264.000000	30.951416
1263.000000	31.307874
1262.000000	31.660680
1261.000000	32.013091
1260.000000	32.371235
1259.000000	32.739385
1258.000000	33.111807
1257.000000	33.478115
1256.000000	33.833888
1255.000000	34.177961
1254.000000	34.504391
1253.000000	34.806764
1252.000000	35.087072
1251.000000	35.353309
1250.000000	35.611579
1249.000000	35.866781
1248.000000	36.127469
1247.000000	36.402025
1246.000000	36.691586
1245.000000	36.992178
1244.000000	37.300269
1243.000000	37.610414
1242.000000	37.911354
1241.000000	38.191645
1240.000000	38.447462
1239.000000	38.680487
1238.000000	38.892678
1237.000000	39.088316
1236.000000	39.278000
1235.000000	39.474767
1234.000000	39.686776
1233.000000	39.917107
1232.000000	40.166926
1231.000000	40.433412
1230.000000	40.706778
1229.000000	40.974266
1228.000000	41.226375
1227.000000	41.457283
1226.000000	41.663450
1225.000000	41.846263
1224.000000	42.013589
1223.000000	42.176097
1222.000000	42.343596
1221.000000	42.525744
1220.000000	42.731900
1219.000000	42.966207
1218.000000	43.224164
1217.000000	43.495811
1216.000000	43.769791
1215.000000	44.033649
1214.000000	44.275176
1213.000000	44.487301
1212.000000	44.670370
1211.000000	44.829176
1210.000000	44.971541
1209.000000	45.109904
1208.000000	45.259900
1207.000000	45.434154
1206.000000	45.637931
1205.000000	45.870365
1204.000000	46.125881
1203.000000	46.392864
1202.000000	46.655008
1201.000000	46.896990
1200.000000	47.108452
1199.000000	47.283922
1198.000000	47.423443
1197.000000	47.534603
1196.000000	47.629624
1195.000000	47.719919
1194.000000	47.812772
1193.000000	47.910217
1192.000000	48.007718
1191.000000	48.092359
1190.000000	48.147849
1189.000000	48.163361
1188.000000	48.138274
1187.000000	48.082350
1186.000000	48.013481
1185.000000	47.953969
1184.000000	47.924034
1183.000000	47.936380
1182.000000	47.996124
1181.000000	48.106570
1180.000000	48.271233
1179.000000	48.489833
1178.000000	48.755987
1177.000000	49.056604
1176.000000	49.372936
1175.000000	49.682013
1174.000000	49.962063
1173.000000	50.199300
1172.000000	50.389601
1171.000000	50.536824
1170.000000	50.652794
1169.000000	50.756497
1168.000000	50.868045
1167.000000	51.003003
1166.000000	51.171197
1165.000000	51.376661
1164.000000	51.614926
1163.000000	51.871902
1162.000000	52.128911
1161.000000	52.368867
1160.000000	52.577830
1159.000000	52.746395
1158.000000	52.874144
1157.000000	52.971527
1156.000000	53.054743
1155.000000	53.140507
1154.000000	53.245457
1153.000000	53.383734
1152.000000	53.560721
1151.000000	53.770444
1150.000000	54.000510
1149.000000	54.236602
1148.000000	54.461567
1147.000000	54.656759
1146.000000	54.809956
1145.000000	54.920157
1144.000000	54.994377
1143.000000	55.044122
1142.000000	55.086885
1141.000000	55.144210
1140.000000	55.232853
1139.000000	55.359520
1138.000000	55.523767
1137.000000	55.720053
1136.000000	55.934365
1135.000000	56.144974
1134.000000	56.331718
1133.000000	56.482831
1132.000000	56.592952
1131.000000	56.661961
1130.000000	56.699103
1129.000000	56.723381
1128.000000	56.755668
1127.000000	56.812953
1126.000000	56.908930
1125.000000	57.051860
1124.000000	57.237290
1123.000000	57.447269
1122.000000	57.659921
1121.000000	57.856834
1120.000000	58.022116
1119.000000	58.143514
1118.000000	58.219777
1117.000000	58.262446
1116.000000	58.288530
1115.000000	58.315434
1114.000000	58.362634
1113.000000	58.448841
1112.000000	58.582260
1111.000000	58.756805
1110.000000	58.958996
1109.000000	59.172642
1108.000000	59.377033
1107.000000	59.549760
1106.000000	59.677310
1105.000000	59.759178
1104.000000	59.801722
1103.000000	59.815757
1102.000000	59.820267
1101.000000	59.839575
1100.000000	59.891856
1099.000000	59.984189
1098.000000	60.117403
1097.000000	60.287025
1096.000000	60.477452
1095.000000	60.664221
1094.000000	60.826676
1093.000000	60.954148
1092.000000	61.040924
1091.000000	61.086275
1090.000000	61.101999
1089.000000	61.111074
1088.000000	61.135368
1087.000000	61.189787
1086.000000	61.286129
1085.000000	61.431360
1084.000000	61.618387
1083.000000	61.825837
1082.000000	62.030344
1081.000000	62.213260
1080.000000	62.357205
1079.000000	62.448695
1078.000000	62.489647
1077.000000	62.497456
1076.000000	62.492553
1075.000000	62.492729
1074.000000	62.517209
1073.000000	62.583495
1072.000000	62.695636
1071.000000	62.842340
1070.000000	63.007101
1069.000000	63.171989
1068.000000	63.312733
1067.000000	63.403401
1066.000000	63.432276
1065.000000	63.406672
1064.000000	63.341805
1063.000000	63.256698
1062.000000	63.179827
1061.000000	63.145074
1060.000000	63.175377
1059.000000	63.276165
1058.000000	63.441990
1057.000000	63.659953
1056.000000	63.904956
1055.000000	64.143160
1054.000000	64.347941
1053.000000	64.506469
1052.000000	64.612578
1051.000000	64.665896
1050.000000	64.681958
1049.000000	64.690149
1048.000000	64.717357
1047.000000	64.780216
1046.000000	64.890747
1045.000000	65.054968
1044.000000	65.262636
1043.000000	65.488139
1042.000000	65.705625
1041.000000	65.896593
1040.000000	66.044133
1039.000000	66.134431
1038.000000	66.169638
1037.000000	66.169810
1036.000000	66.159045
1035.000000	66.158957
1034.000000	66.193137
1033.000000	66.283125
1032.000000	66.434129
1031.000000	66.632620
1030.000000	66.858466
1029.000000	67.090938
1028.000000	67.303578
1027.000000	67.468176
1026.000000	67.570623
1025.000000	67.615754
1024.000000	67.616599
1023.000000	67.590575
1022.000000	67.565818
1021.000000	67.575327
1020.000000	67.639674
1019.000000	67.761899
1018.000000	67.937350
1017.000000	68.155646
1016.000000	68.392388
1015.000000	68.612297
1014.000000	68.787177
1013.000000	68.904265
1012.000000	68.959458
1011.000000	68.956730
1010.000000	68.917267
1009.000000	68.875559
1008.000000	68.861965
1007.000000	68.895846
1006.000000	68.991318
1005.000000	69.153958
1004.000000	69.369299
1003.000000	69.606073
1002.000000	69.833595
1001.000000	70.028637
1000.000000	70.169033
999.000000	70.237869
998.000000	70.238955
997.000000	70.197520
996.000000	70.143040
995.000000	70.101490
994.000000	70.100740
993.000000	70.166086
992.000000	70.304044
991.000000	70.499399
990.000000	70.728465
989.000000	70.965702
988.000000	71.179109
987.000000	71.335752
986.000000	71.419543
985.000000	71.436141
984.000000	71.401055
983.000000	71.334774
982.000000	71.269561
981.000000	71.243540
980.000000	71.281765
979.000000	71.389458
978.000000	71.561618
977.000000	71.784495
976.000000	72.027408
975.000000	72.248308
974.000000	72.415052
973.000000	72.514066
972.000000	72.541652
971.000000	72.502801
970.000000	72.421036
969.000000	72.335064
968.000000	72.279419
967.000000	72.276205
966.000000	72.341114
965.000000	72.481413
964.000000	72.682984
963.000000	72.911852
962.000000	73.131945
961.000000	73.314804
960.000000	73.435206
959.000000	73.475983
958.000000	73.442590
957.000000	73.362413
956.000000	73.267102
955.000000	73.184704
954.000000	73.145679
953.000000	73.177453
952.000000	73.287196
951.000000	73.458583
950.000000	73.666593
949.000000	73.883463
948.000000	74.073607
947.000000	74.201022
946.000000	74.249946
945.000000	74.228257
944.000000	74.152899
943.000000	74.044986
942.000000	73.937453
941.000000	73.869145
940.000000	73.864878
939.000000	73.929522
938.000000	74.057878
937.000000	74.236139
936.000000	74.433030
935.000000	74.606753
934.000000	74.726318
933.000000	74.778867
932.000000	74.759295
931.000000	74.671419
930.000000	74.539614
929.000000	74.403649
928.000000	74.296962
927.000000	74.238826
926.000000	74.243018
925.000000	74.315294
924.000000	74.439442
923.000000	74.579863
922.000000	74.702221
921.000000	74.781693
920.000000	74.795363
919.000000	74.726617
918.000000	74.582225
917.000000	74.389917
916.000000	74.179108
915.000000	73.974057
914.000000	73.801449
913.000000	73.684787
912.000000	73.626196
911.000000	73.605960
910.000000	73.599319
909.000000	73.582009
908.000000	73.522722
907.000000	73.388945
906.000000	73.167474
905.000000	72.867561
904.000000	72.505050
903.000000	72.098930
902.000000	71.678357
901.000000	71.276150
900.000000	70.909362
899.000000	70.575203
898.000000	70.263966
897.000000	69.960503
896.000000	69.636221
895.000000	69.255746
894.000000	68.795564
893.000000	68.249417
892.000000	67.616666
891.000000	66.902423
890.000000	66.126876
889.000000	65.318461
888.000000	64.498822
887.000000	63.679015
886.000000	62.866498
885.000000	62.062142
884.000000	61.250174
883.000000	60.403935
882.000000	59.499870
881.000000	58.521907
880.000000	57.458735
879.000000	56.307521
878.000000	55.082404
877.000000	53.808754
876.000000	52.512026
875.000000	51.216291
874.000000	49.946001
873.000000	48.720705
872.000000	47.548455
871.000000	46.427274
870.000000	45.349033
869.000000	44.302353
868.000000	43.275076
867.000000	42.259873
866.000000	41.257420
865.000000	40.273670
864.000000	39.320081
863.000000	38.412023
862.000000	37.563698
861.000000	36.784156
860.000000	36.076424
859.000000	35.439959
858.000000	34.866980
857.000000	34.341750
856.000000	33.848701
855.000000	33.377030
854.000000	32.920685
853.000000	32.477080
852.000000	32.051187
851.000000	31.658290
850.000000	31.315496
849.000000	31.036854
848.000000	30.835353
847.000000	30.722899
846.000000	30.705663
845.000000	30.778546
844.000000	30.932303
843.000000	31.159399
842.000000	31.450281
841.000000	31.792961
840.000000	32.177683
839.000000	32.605199
838.000000	33.083990
837.000000	33.621592
836.000000	34.225370
835.000000	34.904212
834.000000	35.658614
833.000000	36.455552
832.000000	37.209455
831.000000	37.755575
830.000000	37.830477
829.000000	37.096915
828.000000	35.305389
827.000000	32.559579
826.000000	29.427252
825.000000	26.711919
824.000000	25.029990
823.000000	24.564204
822.000000	25.147780
821.000000	26.492888
820.000000	28.297401
819.000000	30.251187
818.000000	32.094037
817.000000	33.696583
816.000000	35.066690
815.000000	36.255516
814.000000	37.293627
813.000000	38.200006
812.000000	39.003012
811.000000	39.726812
810.000000	40.385401
809.000000	40.999802
808.000000	41.599555
807.000000	42.204573
806.000000	42.818445
805.000000	43.442828
804.000000	44.078014
803.000000	44.706081
802.000000	45.294844
801.000000	45.822172
800.000000	46.284751
799.000000	46.686467
798.000000	47.036458
797.000000	47.359823
796.000000	47.691315
795.000000	48.055992
794.000000	48.465775
793.000000	48.929189
792.000000	49.447027
791.000000	49.998984
790.000000	50.549605
789.000000	51.068546
788.000000	51.535972
787.000000	51.936136
786.000000	52.263263
785.000000	52.532699
784.000000	52.774382
783.000000	53.016511
782.000000	53.283632
781.000000	53.600970
780.000000	53.985061
779.000000	54.430422
778.000000	54.914343
777.000000	55.410055
776.000000	55.887233
775.000000	56.309347
774.000000	56.648142
773.000000	56.900375
772.000000	57.083541
771.000000	57.222497
770.000000	57.348292
769.000000	57.499567
768.000000	57.708618
767.000000	57.987059
766.000000	58.329625
765.000000	58.723154
764.000000	59.142033
763.000000	59.544918
762.000000	59.891066
761.000000	60.158792
760.000000	60.343028
759.000000	60.448108
758.000000	60.494543
757.000000	60.523121
756.000000	60.578424
755.000000	60.690925
754.000000	60.878131
753.000000	61.148608
752.000000	61.492065
751.000000	61.873532
750.000000	62.249539
749.000000	62.585606
748.000000	62.854760
747.000000	63.035455
746.000000	63.126505
745.000000	63.155718
744.000000	63.163449
743.000000	63.184565
742.000000	63.250691
741.000000	63.392176
740.000000	63.621443
739.000000	63.920999
738.000000	64.257120
737.000000	64.596016
736.000000	64.900460
735.000000	65.128391
734.000000	65.252860
733.000000	65.277555
732.000000	65.225146
731.000000	65.123161
730.000000	65.008134
729.000000	64.925973
728.000000	64.911615
727.000000	64.974548
726.000000	65.108741
725.000000	65.302867
724.000000	65.531148
723.000000	65.750231
722.000000	65.921261
721.000000	66.028885
720.000000	66.073574
719.000000	66.062476
718.000000	66.019752
717.000000	65.990250
716.000000	66.017513
715.000000	66.125039
714.000000	66.323596
713.000000	66.617516
712.000000	66.990133
711.000000	67.396999
710.000000	67.788758
709.000000	68.130409
708.000000	68.394493
707.000000	68.559002
706.000000	68.628442
705.000000	68.642085
704.000000	68.647732
703.000000	68.678113
702.000000	68.759630
701.000000	68.920511
700.000000	69.170190
699.000000	69.485988
698.000000	69.832511
697.000000	70.179480
696.000000	70.490944
695.000000	70.721841
694.000000	70.847662
693.000000	70.883158
692.000000	70.859112
691.000000	70.802453
690.000000	70.750724
689.000000	70.759632
688.000000	70.869205
687.000000	71.074903
686.000000	71.351511
685.000000	71.679156
684.000000	72.025296
683.000000	72.332930
682.000000	72.556180
681.000000	72.687605
680.000000	72.736539
679.000000	72.710125
678.000000	72.637924
677.000000	72.579141
676.000000	72.579714
675.000000	72.658937
674.000000	72.827748
673.000000	73.091132
672.000000	73.430256
671.000000	73.812795
670.000000	74.218238
669.000000	74.617695
668.000000	74.914285
667.000000	74.976109
666.000000	74.817845
665.000000	74.602057
664.000000	74.446264
663.000000	74.386276
662.000000	74.428442
661.000000	74.576446
660.000000	74.825804
659.000000	75.151034
658.000000	75.510972
657.000000	75.859135
656.000000	76.143896
655.000000	76.327306
654.000000	76.400365
653.000000	76.380071
652.000000	76.300905
651.000000	76.209431
650.000000	76.158250
649.000000	76.189777
648.000000	76.322255
647.000000	76.550734
646.000000	76.855641
645.000000	77.207280
644.000000	77.561050
643.000000	77.860671
642.000000	78.061955
641.000000	78.151878
640.000000	78.142376
639.000000	78.061096
638.000000	77.952907
637.000000	77.873725
636.000000	77.872035
635.000000	77.976267
634.000000	78.194499
633.000000	78.513077
632.000000	78.892213
631.000000	79.273239
630.000000	79.601050
629.000000	79.837822
628.000000	79.959763
627.000000	79.962057
626.000000	79.876611
625.000000	79.764549
624.000000	79.679474
623.000000	79.651779
622.000000	79.705529
621.000000	79.861873
620.000000	80.116698
619.000000	80.435150
618.000000	80.776464
617.000000	81.108313
616.000000	81.390184
615.000000	81.572080
614.000000	81.628381
613.000000	81.577610
612.000000	81.459441
611.000000	81.314951
610.000000	81.190067
609.000000	81.123559
608.000000	81.114771
607.000000	81.109448
606.000000	81.020738
605.000000	80.732968
604.000000	80.072321
603.000000	78.812300
602.000000	76.714704
601.000000	73.608081
600.000000	69.495756
599.000000	64.681496
598.000000	59.779505
597.000000	55.520024
596.000000	52.503325
595.000000	51.040834
594.000000	51.102801
593.000000	52.380978
592.000000	54.461328
591.000000	56.930149
590.000000	59.424197
589.000000	61.712903
588.000000	63.711314
587.000000	65.424170
586.000000	66.887054
585.000000	68.148406
584.000000	69.255570
583.000000	70.250820
582.000000	71.181737
581.000000	72.101277
580.000000	73.034438
579.000000	73.950763
578.000000	74.803210
577.000000	75.569385
576.000000	76.234618
575.000000	76.766681
574.000000	77.140674
573.000000	77.377452
572.000000	77.524090
571.000000	77.623709
570.000000	77.725375
569.000000	77.890199
568.000000	78.160144
567.000000	78.530219
566.000000	78.964399
565.000000	79.424227
564.000000	79.864542
563.000000	80.228693
562.000000	80.478798
561.000000	80.617928
560.000000	80.666231
559.000000	80.639749
558.000000	80.572763
557.000000	80.526451
556.000000	80.552265
555.000000	80.666874
554.000000	80.871728
553.000000	81.166195
552.000000	81.524810
551.000000	81.887721
550.000000	82.196714
549.000000	82.423584
548.000000	82.551904
547.000000	82.569691
546.000000	82.502120
545.000000	82.414654
544.000000	82.358367
543.000000	82.347988
542.000000	82.400472
541.000000	82.550528
540.000000	82.804884
539.000000	83.119384
538.000000	83.442246
537.000000	83.747987
536.000000	84.009292
535.000000	84.177757
534.000000	84.227247
533.000000	84.186611
532.000000	84.100187
531.000000	83.992209
530.000000	83.892474
529.000000	83.849123
528.000000	83.892702
527.000000	84.022796
526.000000	84.238709
525.000000	84.530338
524.000000	84.829967
523.000000	85.023848
522.000000	85.031188
521.000000	84.837422
520.000000	84.450710
519.000000	83.877600
518.000000	83.169007
517.000000	82.447331
516.000000	81.839560
515.000000	81.416922
514.000000	81.211734
513.000000	81.241011
512.000000	81.468143
511.000000	81.778378
510.000000	82.033026
509.000000	82.134048
508.000000	82.007306
507.000000	81.581527
506.000000	80.822002
505.000000	79.740370
504.000000	78.362612
503.000000	76.771925
502.000000	75.215178
501.000000	74.027122
500.000000	73.396454
499.000000	73.296450
498.000000	73.613204
497.000000	74.216245
496.000000	74.939801
495.000000	75.605771
494.000000	76.106998
493.000000	76.454331
492.000000	76.717963
491.000000	76.966496
490.000000	77.264679
489.000000	77.671654
488.000000	78.197272
487.000000	78.797554
486.000000	79.435485
485.000000	80.112291
484.000000	80.816711
483.000000	81.492153
482.000000	82.092441
481.000000	82.619441
480.000000	83.072484
479.000000	83.420681
478.000000	83.655129
477.000000	83.820145
476.000000	83.956586
475.000000	84.065468
474.000000	84.172259
473.000000	84.369997
472.000000	84.717415
471.000000	85.133756
470.000000	85.502064
469.000000	85.802148
468.000000	86.053947
467.000000	86.230452
466.000000	86.288848
465.000000	86.243030
464.000000	86.130477
463.000000	85.970382
462.000000	85.807886
461.000000	85.723174
460.000000	85.747543
459.000000	85.835793
458.000000	85.966881
457.000000	86.178233
456.000000	86.427664
455.000000	86.585731
454.000000	86.584133
453.000000	86.461299
452.000000	86.274086
451.000000	86.010749
450.000000	85.640564
449.000000	85.200119
448.000000	84.753581
447.000000	84.310195
446.000000	83.830582
445.000000	83.271531
444.000000	82.554398
443.000000	81.553655
442.000000	80.191753
441.000000	78.508751
440.000000	76.577814
439.000000	74.442796
438.000000	72.193028
437.000000	70.068206
436.000000	68.407930
435.000000	67.449912
434.000000	67.198369
433.000000	67.531296
432.000000	68.362458
431.000000	69.595091
430.000000	71.068336
429.000000	72.635542
428.000000	74.195758
427.000000	75.640592
426.000000	76.891661
425.000000	77.993003
424.000000	79.016330
423.000000	79.917502
422.000000	80.619623
421.000000	81.189026
420.000000	81.793248
419.000000	82.605967
418.000000	83.621952
417.000000	84.589452
416.000000	85.364270
415.000000	85.904804
414.000000	86.196753
413.000000	86.351518
412.000000	86.474753
411.000000	86.500281
410.000000	86.379410
409.000000	86.277419
408.000000	86.361849
407.000000	86.576172
406.000000	86.829248
405.000000	87.189348
404.000000	87.678247
403.000000	88.053171
402.000000	88.067708
401.000000	87.768120
400.000000	87.295642
