PE IR       SUBTECH     SPECTRUM    ASCII       PEDS        4.00        
   -1
23MS176_nitro.asc
24/09/06
15:56:16.00
24/09/06
15:56:16.00
Administrator
Sample 1123 By Administrator Date Friday, September 06 2024
400.000000
#HDR
-1
-1
#GR
cm-1
%T
1.0
0.0
4000.000000
-1.000000
3601
8
76.065642
0.441052
#DATA
4000.000000	33.101995
3999.000000	33.144854
3998.000000	33.187536
3997.000000	33.229860
3996.000000	33.271679
3995.000000	33.312961
3994.000000	33.353613
3993.000000	33.393496
3992.000000	33.432758
3991.000000	33.472044
3990.000000	33.512113
3989.000000	33.553160
3988.000000	33.594725
3987.000000	33.636294
3986.000000	33.677811
3985.000000	33.719444
3984.000000	33.761110
3983.000000	33.802313
3982.000000	33.842307
3981.000000	33.880453
3980.000000	33.916619
3979.000000	33.951352
3978.000000	33.985541
3977.000000	34.019950
3976.000000	34.054923
3975.000000	34.090394
3974.000000	34.126140
3973.000000	34.162010
3972.000000	34.197959
3971.000000	34.234023
3970.000000	34.270326
3969.000000	34.306840
3968.000000	34.343037
3967.000000	34.378070
3966.000000	34.411500
3965.000000	34.443790
3964.000000	34.476185
3963.000000	34.509825
3962.000000	34.544833
3961.000000	34.580260
3960.000000	34.615022
3959.000000	34.649013
3958.000000	34.683439
3957.000000	34.719613
3956.000000	34.757387
3955.000000	34.795162
3954.000000	34.831407
3953.000000	34.865765
3952.000000	34.898928
3951.000000	34.931953
3950.000000	34.965537
3949.000000	34.999194
3948.000000	35.031547
3947.000000	35.062110
3946.000000	35.092319
3945.000000	35.124839
3944.000000	35.162097
3943.000000	35.204755
3942.000000	35.250425
3941.000000	35.294782
3940.000000	35.335075
3939.000000	35.372032
3938.000000	35.408254
3937.000000	35.445202
3936.000000	35.481823
3935.000000	35.516224
3934.000000	35.548712
3933.000000	35.582042
3932.000000	35.618243
3931.000000	35.655806
3930.000000	35.691315
3929.000000	35.723651
3928.000000	35.755246
3927.000000	35.789690
3926.000000	35.828717
3925.000000	35.871548
3924.000000	35.915112
3923.000000	35.954710
3922.000000	35.987347
3921.000000	36.014818
3920.000000	36.042348
3919.000000	36.073800
3918.000000	36.109043
3917.000000	36.146348
3916.000000	36.185052
3915.000000	36.225067
3914.000000	36.265841
3913.000000	36.307431
3912.000000	36.351068
3911.000000	36.396531
3910.000000	36.441197
3909.000000	36.482099
3908.000000	36.518630
3907.000000	36.551236
3906.000000	36.579318
3905.000000	36.601222
3904.000000	36.617061
3903.000000	36.629237
3902.000000	36.641271
3901.000000	36.657285
3900.000000	36.681440
3899.000000	36.716140
3898.000000	36.758772
3897.000000	36.803791
3896.000000	36.848591
3895.000000	36.895479
3894.000000	36.947086
3893.000000	37.000930
3892.000000	37.049850
3891.000000	37.088680
3890.000000	37.119404
3889.000000	37.146196
3888.000000	37.170021
3887.000000	37.191147
3886.000000	37.214722
3885.000000	37.246026
3884.000000	37.281239
3883.000000	37.311560
3882.000000	37.337035
3881.000000	37.367188
3880.000000	37.407427
3879.000000	37.451593
3878.000000	37.490002
3877.000000	37.519460
3876.000000	37.545324
3875.000000	37.577644
3874.000000	37.622992
3873.000000	37.675377
3872.000000	37.718224
3871.000000	37.741226
3870.000000	37.753460
3869.000000	37.772003
3868.000000	37.799990
3867.000000	37.826701
3866.000000	37.848113
3865.000000	37.875979
3864.000000	37.921755
3863.000000	37.978346
3862.000000	38.028774
3861.000000	38.067042
3860.000000	38.102260
3859.000000	38.148603
3858.000000	38.215810
3857.000000	38.300168
3856.000000	38.380250
3855.000000	38.424391
3854.000000	38.421179
3853.000000	38.396943
3852.000000	38.380460
3851.000000	38.378577
3850.000000	38.393284
3849.000000	38.428550
3848.000000	38.485139
3847.000000	38.556262
3846.000000	38.630281
3845.000000	38.697123
3844.000000	38.751787
3843.000000	38.795265
3842.000000	38.832823
3841.000000	38.867267
3840.000000	38.896950
3839.000000	38.920288
3838.000000	38.939505
3837.000000	38.959207
3836.000000	38.983889
3835.000000	39.015070
3834.000000	39.052124
3833.000000	39.093977
3832.000000	39.140647
3831.000000	39.192221
3830.000000	39.245928
3829.000000	39.297433
3828.000000	39.344835
3827.000000	39.390174
3826.000000	39.437599
3825.000000	39.487379
3824.000000	39.531718
3823.000000	39.561505
3822.000000	39.580499
3821.000000	39.604825
3820.000000	39.642233
3819.000000	39.681447
3818.000000	39.709185
3817.000000	39.726471
3816.000000	39.749538
3815.000000	39.793252
3814.000000	39.851573
3813.000000	39.906823
3812.000000	39.954539
3811.000000	40.005435
3810.000000	40.066349
3809.000000	40.128419
3808.000000	40.175967
3807.000000	40.206328
3806.000000	40.232194
3805.000000	40.261493
3804.000000	40.288019
3803.000000	40.304435
3802.000000	40.316277
3801.000000	40.337682
3800.000000	40.372391
3799.000000	40.409997
3798.000000	40.445558
3797.000000	40.486675
3796.000000	40.541712
3795.000000	40.608600
3794.000000	40.675939
3793.000000	40.735352
3792.000000	40.788108
3791.000000	40.839650
3790.000000	40.890529
3789.000000	40.936735
3788.000000	40.976169
3787.000000	41.011535
3786.000000	41.046927
3785.000000	41.084322
3784.000000	41.123464
3783.000000	41.163314
3782.000000	41.203047
3781.000000	41.244069
3780.000000	41.290072
3779.000000	41.341763
3778.000000	41.393446
3777.000000	41.437865
3776.000000	41.473936
3775.000000	41.507796
3774.000000	41.546964
3773.000000	41.592239
3772.000000	41.636973
3771.000000	41.675726
3770.000000	41.710886
3769.000000	41.746791
3768.000000	41.782810
3767.000000	41.817457
3766.000000	41.854037
3765.000000	41.897735
3764.000000	41.948529
3763.000000	41.998249
3762.000000	42.038071
3761.000000	42.069767
3760.000000	42.104803
3759.000000	42.148718
3758.000000	42.194646
3757.000000	42.236636
3756.000000	42.278010
3755.000000	42.321270
3754.000000	42.362501
3753.000000	42.397727
3752.000000	42.428290
3751.000000	42.454501
3750.000000	42.471519
3749.000000	42.484138
3748.000000	42.508863
3747.000000	42.549355
3746.000000	42.591039
3745.000000	42.625767
3744.000000	42.667704
3743.000000	42.728139
3742.000000	42.793859
3741.000000	42.851164
3740.000000	42.904161
3739.000000	42.960413
3738.000000	43.017233
3737.000000	43.068808
3736.000000	43.121694
3735.000000	43.185667
3734.000000	43.252839
3733.000000	43.306446
3732.000000	43.346513
3731.000000	43.389114
3730.000000	43.444403
3729.000000	43.507247
3728.000000	43.568844
3727.000000	43.630213
3726.000000	43.697815
3725.000000	43.769082
3724.000000	43.833258
3723.000000	43.887423
3722.000000	43.939365
3721.000000	43.995149
3720.000000	44.053536
3719.000000	44.110660
3718.000000	44.165086
3717.000000	44.219014
3716.000000	44.274015
3715.000000	44.325849
3714.000000	44.368341
3713.000000	44.402331
3712.000000	44.438211
3711.000000	44.484609
3710.000000	44.538173
3709.000000	44.591464
3708.000000	44.643210
3707.000000	44.698026
3706.000000	44.759671
3705.000000	44.826147
3704.000000	44.893130
3703.000000	44.959928
3702.000000	45.028777
3701.000000	45.097728
3700.000000	45.161056
3699.000000	45.216047
3698.000000	45.265403
3697.000000	45.314616
3696.000000	45.367676
3695.000000	45.421668
3694.000000	45.469132
3693.000000	45.508718
3692.000000	45.548769
3691.000000	45.597958
3690.000000	45.654153
3689.000000	45.706444
3688.000000	45.748978
3687.000000	45.788999
3686.000000	45.835109
3685.000000	45.887130
3684.000000	45.942596
3683.000000	46.001251
3682.000000	46.061754
3681.000000	46.119586
3680.000000	46.173037
3679.000000	46.223173
3678.000000	46.264008
3677.000000	46.286893
3676.000000	46.303748
3675.000000	46.340072
3674.000000	46.393679
3673.000000	46.438132
3672.000000	46.460051
3671.000000	46.478570
3670.000000	46.530232
3669.000000	46.623640
3668.000000	46.727088
3667.000000	46.813608
3666.000000	46.885260
3665.000000	46.955873
3664.000000	47.033783
3663.000000	47.117448
3662.000000	47.200410
3661.000000	47.276824
3660.000000	47.342332
3659.000000	47.392212
3658.000000	47.423583
3657.000000	47.441707
3656.000000	47.458892
3655.000000	47.482758
3654.000000	47.507977
3653.000000	47.523535
3652.000000	47.524980
3651.000000	47.522490
3650.000000	47.535490
3649.000000	47.573139
3648.000000	47.627843
3647.000000	47.691029
3646.000000	47.759402
3645.000000	47.828067
3644.000000	47.893403
3643.000000	47.957287
3642.000000	48.023795
3641.000000	48.091792
3640.000000	48.154330
3639.000000	48.206789
3638.000000	48.251780
3637.000000	48.293364
3636.000000	48.331355
3635.000000	48.365045
3634.000000	48.398075
3633.000000	48.431822
3632.000000	48.455862
3631.000000	48.455336
3630.000000	48.436385
3629.000000	48.434178
3628.000000	48.470267
3627.000000	48.524714
3626.000000	48.572448
3625.000000	48.609998
3624.000000	48.646161
3623.000000	48.687072
3622.000000	48.727935
3621.000000	48.759382
3620.000000	48.782076
3619.000000	48.806114
3618.000000	48.833752
3617.000000	48.856825
3616.000000	48.870148
3615.000000	48.878892
3614.000000	48.895049
3613.000000	48.924977
3612.000000	48.960993
3611.000000	48.990140
3610.000000	49.010816
3609.000000	49.037895
3608.000000	49.088140
3607.000000	49.160321
3606.000000	49.235739
3605.000000	49.296985
3604.000000	49.340226
3603.000000	49.373171
3602.000000	49.405115
3601.000000	49.439075
3600.000000	49.472066
3599.000000	49.498725
3598.000000	49.516094
3597.000000	49.528589
3596.000000	49.546860
3595.000000	49.580133
3594.000000	49.627553
3593.000000	49.676609
3592.000000	49.711681
3591.000000	49.724649
3590.000000	49.719561
3589.000000	49.715464
3588.000000	49.738958
3587.000000	49.799321
3586.000000	49.875684
3585.000000	49.941070
3584.000000	49.987512
3583.000000	50.023839
3582.000000	50.060970
3581.000000	50.102593
3580.000000	50.146713
3579.000000	50.190703
3578.000000	50.233140
3577.000000	50.273004
3576.000000	50.310259
3575.000000	50.346026
3574.000000	50.380364
3573.000000	50.410442
3572.000000	50.431172
3571.000000	50.437869
3570.000000	50.428616
3569.000000	50.410900
3568.000000	50.406900
3567.000000	50.439711
3566.000000	50.507094
3565.000000	50.584663
3564.000000	50.653328
3563.000000	50.711081
3562.000000	50.764213
3561.000000	50.816611
3560.000000	50.867285
3559.000000	50.913933
3558.000000	50.955161
3557.000000	50.990130
3556.000000	51.019796
3555.000000	51.048472
3554.000000	51.082001
3553.000000	51.123268
3552.000000	51.168970
3551.000000	51.211101
3550.000000	51.242647
3549.000000	51.263745
3548.000000	51.284095
3547.000000	51.317299
3546.000000	51.368589
3545.000000	51.429482
3544.000000	51.486956
3543.000000	51.534570
3542.000000	51.573210
3541.000000	51.606183
3540.000000	51.637533
3539.000000	51.672001
3538.000000	51.712237
3537.000000	51.755943
3536.000000	51.797297
3535.000000	51.831497
3534.000000	51.857252
3533.000000	51.876347
3532.000000	51.892754
3531.000000	51.911022
3530.000000	51.933561
3529.000000	51.960136
3528.000000	51.990510
3527.000000	52.025851
3526.000000	52.066198
3525.000000	52.108624
3524.000000	52.149419
3523.000000	52.186195
3522.000000	52.217330
3521.000000	52.242198
3520.000000	52.263237
3519.000000	52.285589
3518.000000	52.312844
3517.000000	52.344233
3516.000000	52.376410
3515.000000	52.405882
3514.000000	52.428680
3513.000000	52.440596
3512.000000	52.441381
3511.000000	52.437748
3510.000000	52.438366
3509.000000	52.445848
3508.000000	52.455694
3507.000000	52.462716
3506.000000	52.466290
3505.000000	52.470560
3504.000000	52.480965
3503.000000	52.498789
3502.000000	52.518383
3501.000000	52.531664
3500.000000	52.535584
3499.000000	52.532895
3498.000000	52.526493
3497.000000	52.516122
3496.000000	52.500812
3495.000000	52.481317
3494.000000	52.458588
3493.000000	52.432397
3492.000000	52.403512
3491.000000	52.375321
3490.000000	52.351109
3489.000000	52.330934
3488.000000	52.312078
3487.000000	52.290361
3486.000000	52.260352
3485.000000	52.218069
3484.000000	52.166216
3483.000000	52.114345
3482.000000	52.070276
3481.000000	52.032093
3480.000000	51.990619
3479.000000	51.938658
3478.000000	51.875982
3477.000000	51.807593
3476.000000	51.739997
3475.000000	51.677595
3474.000000	51.620455
3473.000000	51.565765
3472.000000	51.511341
3471.000000	51.455775
3470.000000	51.394955
3469.000000	51.321747
3468.000000	51.231349
3467.000000	51.125456
3466.000000	51.010124
3465.000000	50.891920
3464.000000	50.777279
3463.000000	50.671768
3462.000000	50.576084
3461.000000	50.483938
3460.000000	50.386390
3459.000000	50.278040
3458.000000	50.158568
3457.000000	50.030475
3456.000000	49.897106
3455.000000	49.761122
3454.000000	49.623016
3453.000000	49.481801
3452.000000	49.337788
3451.000000	49.192819
3450.000000	49.047340
3449.000000	48.899988
3448.000000	48.750942
3447.000000	48.602455
3446.000000	48.454235
3445.000000	48.301358
3444.000000	48.138931
3443.000000	47.966928
3442.000000	47.789115
3441.000000	47.609338
3440.000000	47.430152
3439.000000	47.252840
3438.000000	47.076306
3437.000000	46.896489
3436.000000	46.708773
3435.000000	46.510901
3434.000000	46.303406
3433.000000	46.088726
3432.000000	45.869617
3431.000000	45.646448
3430.000000	45.415504
3429.000000	45.171887
3428.000000	44.915075
3427.000000	44.649579
3426.000000	44.380494
3425.000000	44.110477
3424.000000	43.840649
3423.000000	43.571728
3422.000000	43.302855
3421.000000	43.031504
3420.000000	42.755458
3419.000000	42.473434
3418.000000	42.184099
3417.000000	41.886184
3416.000000	41.579924
3415.000000	41.266201
3414.000000	40.944023
3413.000000	40.611592
3412.000000	40.269768
3411.000000	39.922254
3410.000000	39.571600
3409.000000	39.216846
3408.000000	38.856167
3407.000000	38.489583
3406.000000	38.118572
3405.000000	37.744657
3404.000000	37.368271
3403.000000	36.987481
3402.000000	36.597035
3401.000000	36.190527
3400.000000	35.765097
3399.000000	35.323919
3398.000000	34.874739
3397.000000	34.425991
3396.000000	33.982641
3395.000000	33.544077
3394.000000	33.105219
3393.000000	32.660352
3392.000000	32.205793
3391.000000	31.739352
3390.000000	31.260167
3389.000000	30.770043
3388.000000	30.273380
3387.000000	29.773894
3386.000000	29.272423
3385.000000	28.769303
3384.000000	28.266482
3383.000000	27.765704
3382.000000	27.266214
3381.000000	26.766009
3380.000000	26.264145
3379.000000	25.760082
3378.000000	25.252416
3377.000000	24.740174
3376.000000	24.224304
3375.000000	23.706714
3374.000000	23.189049
3373.000000	22.673346
3372.000000	22.162033
3371.000000	21.655607
3370.000000	21.151824
3369.000000	20.648436
3368.000000	20.145313
3367.000000	19.643259
3366.000000	19.142926
3365.000000	18.645881
3364.000000	18.154576
3363.000000	17.669806
3362.000000	17.189944
3361.000000	16.713922
3360.000000	16.242904
3359.000000	15.778238
3358.000000	15.320074
3357.000000	14.868885
3356.000000	14.426478
3355.000000	13.993905
3354.000000	13.570497
3353.000000	13.155742
3352.000000	12.749791
3351.000000	12.351833
3350.000000	11.960046
3349.000000	11.574065
3348.000000	11.195669
3347.000000	10.825980
3346.000000	10.464768
3345.000000	10.112530
3344.000000	9.770699
3343.000000	9.439422
3342.000000	9.117174
3341.000000	8.803575
3340.000000	8.499863
3339.000000	8.206078
3338.000000	7.920688
3337.000000	7.643039
3336.000000	7.374041
3335.000000	7.113740
3334.000000	6.860724
3333.000000	6.614852
3332.000000	6.377505
3331.000000	6.149063
3330.000000	5.928390
3329.000000	5.714933
3328.000000	5.509466
3327.000000	5.311994
3326.000000	5.121706
3325.000000	4.938999
3324.000000	4.764803
3323.000000	4.598287
3322.000000	4.437369
3321.000000	4.281640
3320.000000	4.132454
3319.000000	3.989791
3318.000000	3.852308
3317.000000	3.719884
3316.000000	3.593652
3315.000000	3.473572
3314.000000	3.358278
3313.000000	3.247522
3312.000000	3.141989
3311.000000	3.040953
3310.000000	2.943102
3309.000000	2.849175
3308.000000	2.761429
3307.000000	2.680433
3306.000000	2.604944
3305.000000	2.534861
3304.000000	2.470987
3303.000000	2.412471
3302.000000	2.357082
3301.000000	2.303902
3300.000000	2.253463
3299.000000	2.205419
3298.000000	2.158968
3297.000000	2.115144
3296.000000	2.075699
3295.000000	2.040210
3294.000000	2.006843
3293.000000	1.975788
3292.000000	1.949059
3291.000000	1.926831
3290.000000	1.907127
3289.000000	1.888807
3288.000000	1.872365
3287.000000	1.857893
3286.000000	1.844669
3285.000000	1.832893
3284.000000	1.823194
3283.000000	1.814731
3282.000000	1.806062
3281.000000	1.797515
3280.000000	1.790503
3279.000000	1.784857
3278.000000	1.779289
3277.000000	1.773954
3276.000000	1.770042
3275.000000	1.767347
3274.000000	1.764702
3273.000000	1.762515
3272.000000	1.762397
3271.000000	1.764589
3270.000000	1.768016
3269.000000	1.772347
3268.000000	1.777668
3267.000000	1.782783
3266.000000	1.786223
3265.000000	1.788513
3264.000000	1.791278
3263.000000	1.794668
3262.000000	1.797913
3261.000000	1.801498
3260.000000	1.806352
3259.000000	1.811675
3258.000000	1.816070
3257.000000	1.820161
3256.000000	1.825540
3255.000000	1.831846
3254.000000	1.837389
3253.000000	1.842096
3252.000000	1.847260
3251.000000	1.852941
3250.000000	1.858139
3249.000000	1.863085
3248.000000	1.868978
3247.000000	1.875827
3246.000000	1.882749
3245.000000	1.889886
3244.000000	1.897884
3243.000000	1.906048
3242.000000	1.913237
3241.000000	1.919861
3240.000000	1.926902
3239.000000	1.933681
3238.000000	1.938854
3237.000000	1.942901
3236.000000	1.947500
3235.000000	1.953141
3234.000000	1.959382
3233.000000	1.966577
3232.000000	1.975024
3231.000000	1.983266
3230.000000	1.989555
3229.000000	1.994352
3228.000000	1.999305
3227.000000	2.004576
3226.000000	2.009272
3225.000000	2.013624
3224.000000	2.018443
3223.000000	2.023253
3222.000000	2.027121
3221.000000	2.030552
3220.000000	2.034461
3219.000000	2.038117
3218.000000	2.040270
3217.000000	2.041437
3216.000000	2.042963
3215.000000	2.044745
3214.000000	2.045920
3213.000000	2.046871
3212.000000	2.048352
3211.000000	2.049551
3210.000000	2.049203
3209.000000	2.047733
3208.000000	2.046305
3207.000000	2.044690
3206.000000	2.042114
3205.000000	2.039235
3204.000000	2.037083
3203.000000	2.035010
3202.000000	2.031733
3201.000000	2.027481
3200.000000	2.023177
3199.000000	2.018522
3198.000000	2.012909
3197.000000	2.007110
3196.000000	2.001967
3195.000000	1.996516
3194.000000	1.989446
3193.000000	1.981346
3192.000000	1.973578
3191.000000	1.966033
3190.000000	1.958057
3189.000000	1.950287
3188.000000	1.943443
3187.000000	1.936492
3186.000000	1.928187
3185.000000	1.919338
3184.000000	1.911450
3183.000000	1.904263
3182.000000	1.896712
3181.000000	1.889112
3180.000000	1.882247
3179.000000	1.875456
3178.000000	1.867767
3177.000000	1.859879
3176.000000	1.852969
3175.000000	1.846652
3174.000000	1.840104
3173.000000	1.833933
3172.000000	1.828914
3171.000000	1.824168
3170.000000	1.818668
3169.000000	1.813332
3168.000000	1.809552
3167.000000	1.806849
3166.000000	1.804031
3165.000000	1.801386
3164.000000	1.799675
3163.000000	1.798272
3162.000000	1.796395
3161.000000	1.795009
3160.000000	1.795373
3159.000000	1.796836
3158.000000	1.797982
3157.000000	1.798712
3156.000000	1.799435
3155.000000	1.799730
3154.000000	1.799846
3153.000000	1.801965
3152.000000	1.807618
3151.000000	1.815161
3150.000000	1.821910
3149.000000	1.827503
3148.000000	1.833094
3147.000000	1.838773
3146.000000	1.844122
3145.000000	1.850005
3144.000000	1.857355
3143.000000	1.865266
3142.000000	1.872494
3141.000000	1.879875
3140.000000	1.889152
3139.000000	1.900327
3138.000000	1.912162
3137.000000	1.924219
3136.000000	1.936568
3135.000000	1.948630
3134.000000	1.960171
3133.000000	1.972421
3132.000000	1.986378
3131.000000	2.001156
3130.000000	2.015656
3129.000000	2.030490
3128.000000	2.046576
3127.000000	2.063211
3126.000000	2.079390
3125.000000	2.095624
3124.000000	2.112629
3123.000000	2.129638
3122.000000	2.145882
3121.000000	2.162372
3120.000000	2.180406
3119.000000	2.199665
3118.000000	2.219628
3117.000000	2.241300
3116.000000	2.265484
3115.000000	2.290755
3114.000000	2.315120
3113.000000	2.338537
3112.000000	2.362071
3111.000000	2.385943
3110.000000	2.410202
3109.000000	2.435847
3108.000000	2.463411
3107.000000	2.491653
3106.000000	2.519320
3105.000000	2.546900
3104.000000	2.575145
3103.000000	2.603518
3102.000000	2.631779
3101.000000	2.661360
3100.000000	2.693313
3099.000000	2.726391
3098.000000	2.759076
3097.000000	2.791904
3096.000000	2.825840
3095.000000	2.860039
3094.000000	2.893259
3093.000000	2.926148
3092.000000	2.960130
3091.000000	2.995256
3090.000000	3.030959
3089.000000	3.067558
3088.000000	3.105266
3087.000000	3.143072
3086.000000	3.180372
3085.000000	3.218385
3084.000000	3.258208
3083.000000	3.298873
3082.000000	3.339071
3081.000000	3.379328
3080.000000	3.420795
3079.000000	3.463301
3078.000000	3.506351
3077.000000	3.550576
3076.000000	3.596358
3075.000000	3.642490
3074.000000	3.687978
3073.000000	3.733706
3072.000000	3.780552
3071.000000	3.827319
3070.000000	3.872530
3069.000000	3.917009
3068.000000	3.962751
3067.000000	4.010376
3066.000000	4.059348
3065.000000	4.109492
3064.000000	4.160483
3063.000000	4.211014
3062.000000	4.260264
3061.000000	4.309197
3060.000000	4.359002
3059.000000	4.409391
3058.000000	4.459780
3057.000000	4.510788
3056.000000	4.562979
3055.000000	4.615404
3054.000000	4.667071
3053.000000	4.718678
3052.000000	4.771398
3051.000000	4.825008
3050.000000	4.878642
3049.000000	4.932243
3048.000000	4.985963
3047.000000	5.039343
3046.000000	5.092396
3045.000000	5.146298
3044.000000	5.201806
3043.000000	5.258180
3042.000000	5.314767
3041.000000	5.372113
3040.000000	5.430301
3039.000000	5.487815
3038.000000	5.543518
3037.000000	5.598376
3036.000000	5.653912
3035.000000	5.710331
3034.000000	5.767444
3033.000000	5.825908
3032.000000	5.886008
3031.000000	5.946540
3030.000000	6.006318
3029.000000	6.065582
3028.000000	6.124810
3027.000000	6.183592
3026.000000	6.241867
3025.000000	6.300676
3024.000000	6.360377
3023.000000	6.419664
3022.000000	6.477693
3021.000000	6.535647
3020.000000	6.594794
3019.000000	6.654527
3018.000000	6.713771
3017.000000	6.772843
3016.000000	6.832442
3015.000000	6.892232
3014.000000	6.951984
3013.000000	7.012782
3012.000000	7.075514
3011.000000	7.139323
3010.000000	7.202854
3009.000000	7.265910
3008.000000	7.328725
3007.000000	7.390982
3006.000000	7.452764
3005.000000	7.515164
3004.000000	7.578686
3003.000000	7.642219
3002.000000	7.704712
3001.000000	7.766576
3000.000000	7.828441
2999.000000	7.889959
2998.000000	7.950972
2997.000000	8.012366
2996.000000	8.074592
2995.000000	8.136782
2994.000000	8.198538
2993.000000	8.261103
2992.000000	8.325464
2991.000000	8.390703
2990.000000	8.455528
2989.000000	8.520024
2988.000000	8.584604
2987.000000	8.648628
2986.000000	8.711452
2985.000000	8.773630
2984.000000	8.835809
2983.000000	8.897735
2982.000000	8.959530
2981.000000	9.022573
2980.000000	9.087716
2979.000000	9.153820
2978.000000	9.219411
2977.000000	9.284607
2976.000000	9.350215
2975.000000	9.416134
2974.000000	9.481967
2973.000000	9.548022
2972.000000	9.614434
2971.000000	9.680410
2970.000000	9.745554
2969.000000	9.810808
2968.000000	9.876885
2967.000000	9.942969
2966.000000	10.008153
2965.000000	10.072982
2964.000000	10.138323
2963.000000	10.203880
2962.000000	10.269080
2961.000000	10.334257
2960.000000	10.399711
2959.000000	10.464742
2958.000000	10.528725
2957.000000	10.592043
2956.000000	10.655069
2955.000000	10.717579
2954.000000	10.780068
2953.000000	10.843968
2952.000000	10.909440
2951.000000	10.974496
2950.000000	11.037643
2949.000000	11.099873
2948.000000	11.162813
2947.000000	11.226415
2946.000000	11.289933
2945.000000	11.353774
2944.000000	11.418727
2943.000000	11.484401
2942.000000	11.549906
2941.000000	11.615213
2940.000000	11.680585
2939.000000	11.745568
2938.000000	11.809757
2937.000000	11.873657
2936.000000	11.937651
2935.000000	12.000981
2934.000000	12.062878
2933.000000	12.123855
2932.000000	12.184911
2931.000000	12.246374
2930.000000	12.308317
2929.000000	12.370983
2928.000000	12.433892
2927.000000	12.495789
2926.000000	12.556448
2925.000000	12.617294
2924.000000	12.679252
2923.000000	12.741276
2922.000000	12.802033
2921.000000	12.861682
2920.000000	12.920964
2919.000000	12.979870
2918.000000	13.038294
2917.000000	13.096874
2916.000000	13.156120
2915.000000	13.215698
2914.000000	13.275376
2913.000000	13.335586
2912.000000	13.396337
2911.000000	13.456707
2910.000000	13.516163
2909.000000	13.575267
2908.000000	13.634379
2907.000000	13.692860
2906.000000	13.750285
2905.000000	13.807285
2904.000000	13.864362
2903.000000	13.921069
2902.000000	13.977107
2901.000000	14.033245
2900.000000	14.090254
2899.000000	14.147841
2898.000000	14.205520
2897.000000	14.263205
2896.000000	14.320505
2895.000000	14.376514
2894.000000	14.431114
2893.000000	14.485364
2892.000000	14.539936
2891.000000	14.594248
2890.000000	14.647811
2889.000000	14.701227
2888.000000	14.755109
2887.000000	14.809250
2886.000000	14.863620
2885.000000	14.918974
2884.000000	14.975538
2883.000000	15.032215
2882.000000	15.088022
2881.000000	15.143268
2880.000000	15.198483
2879.000000	15.253335
2878.000000	15.307685
2877.000000	15.362677
2876.000000	15.419452
2875.000000	15.477331
2874.000000	15.534281
2873.000000	15.588776
2872.000000	15.640666
2871.000000	15.690943
2870.000000	15.741337
2869.000000	15.793393
2868.000000	15.847177
2867.000000	15.901375
2866.000000	15.955086
2865.000000	16.008719
2864.000000	16.062870
2863.000000	16.117377
2862.000000	16.171975
2861.000000	16.226739
2860.000000	16.281226
2859.000000	16.334335
2858.000000	16.385838
2857.000000	16.437085
2856.000000	16.489415
2855.000000	16.542767
2854.000000	16.596494
2853.000000	16.650507
2852.000000	16.704881
2851.000000	16.759249
2850.000000	16.813230
2849.000000	16.866659
2848.000000	16.918980
2847.000000	16.969481
2846.000000	17.018686
2845.000000	17.068451
2844.000000	17.120182
2843.000000	17.173932
2842.000000	17.229505
2841.000000	17.286885
2840.000000	17.344782
2839.000000	17.400343
2838.000000	17.451709
2837.000000	17.500023
2836.000000	17.547859
2835.000000	17.596530
2834.000000	17.645896
2833.000000	17.695902
2832.000000	17.746936
2831.000000	17.799093
2830.000000	17.852193
2829.000000	17.906326
2828.000000	17.961642
2827.000000	18.017842
2826.000000	18.074499
2825.000000	18.131467
2824.000000	18.188469
2823.000000	18.244770
2822.000000	18.299864
2821.000000	18.354066
2820.000000	18.407922
2819.000000	18.461536
2818.000000	18.514905
2817.000000	18.568343
2816.000000	18.622041
2815.000000	18.675719
2814.000000	18.729183
2813.000000	18.782629
2812.000000	18.835903
2811.000000	18.888055
2810.000000	18.938189
2809.000000	18.986289
2808.000000	19.032777
2807.000000	19.077889
2806.000000	19.121963
2805.000000	19.165695
2804.000000	19.209490
2803.000000	19.253115
2802.000000	19.296434
2801.000000	19.339868
2800.000000	19.383529
2799.000000	19.426580
2798.000000	19.468166
2797.000000	19.508534
2796.000000	19.548585
2795.000000	19.588820
2794.000000	19.629355
2793.000000	19.670513
2792.000000	19.712633
2791.000000	19.755468
2790.000000	19.798338
2789.000000	19.840761
2788.000000	19.882698
2787.000000	19.924557
2786.000000	19.967194
2785.000000	20.011348
2784.000000	20.056673
2783.000000	20.101724
2782.000000	20.145241
2781.000000	20.186997
2780.000000	20.227136
2779.000000	20.265433
2778.000000	20.301671
2777.000000	20.336027
2776.000000	20.368483
2775.000000	20.398268
2774.000000	20.424523
2773.000000	20.447182
2772.000000	20.466590
2771.000000	20.482776
2770.000000	20.495538
2769.000000	20.504752
2768.000000	20.510145
2767.000000	20.511094
2766.000000	20.507368
2765.000000	20.499694
2764.000000	20.489039
2763.000000	20.475851
2762.000000	20.460475
2761.000000	20.443931
2760.000000	20.427580
2759.000000	20.412129
2758.000000	20.397506
2757.000000	20.383337
2756.000000	20.369049
2755.000000	20.353846
2754.000000	20.337073
2753.000000	20.318434
2752.000000	20.297462
2751.000000	20.273212
2750.000000	20.244870
2749.000000	20.212219
2748.000000	20.175248
2747.000000	20.133653
2746.000000	20.087213
2745.000000	20.036258
2744.000000	19.981194
2743.000000	19.922260
2742.000000	19.860305
2741.000000	19.797326
2740.000000	19.735846
2739.000000	19.678125
2738.000000	19.626346
2737.000000	19.583250
2736.000000	19.551848
2735.000000	19.534692
2734.000000	19.533923
2733.000000	19.550869
2732.000000	19.585458
2731.000000	19.636546
2730.000000	19.702706
2729.000000	19.782697
2728.000000	19.874397
2727.000000	19.974279
2726.000000	20.078857
2725.000000	20.185819
2724.000000	20.293965
2723.000000	20.402497
2722.000000	20.510671
2721.000000	20.617757
2720.000000	20.722671
2719.000000	20.824022
2718.000000	20.920816
2717.000000	21.012627
2716.000000	21.098793
2715.000000	21.178169
2714.000000	21.249738
2713.000000	21.313160
2712.000000	21.368521
2711.000000	21.415809
2710.000000	21.455418
2709.000000	21.488435
2708.000000	21.516060
2707.000000	21.539223
2706.000000	21.558609
2705.000000	21.574851
2704.000000	21.588114
2703.000000	21.597980
2702.000000	21.604394
2701.000000	21.608002
2700.000000	21.609365
2699.000000	21.608241
2698.000000	21.604168
2697.000000	21.597506
2696.000000	21.589252
2695.000000	21.580318
2694.000000	21.571412
2693.000000	21.563141
2692.000000	21.555692
2691.000000	21.548610
2690.000000	21.541333
2689.000000	21.533642
2688.000000	21.525248
2687.000000	21.515514
2686.000000	21.504141
2685.000000	21.491731
2684.000000	21.479176
2683.000000	21.466856
2682.000000	21.454946
2681.000000	21.444059
2680.000000	21.434925
2679.000000	21.427765
2678.000000	21.422553
2677.000000	21.419503
2676.000000	21.418799
2675.000000	21.420093
2674.000000	21.422890
2673.000000	21.427395
2672.000000	21.434433
2671.000000	21.444844
2670.000000	21.459227
2669.000000	21.477871
2668.000000	21.500581
2667.000000	21.526568
2666.000000	21.554801
2665.000000	21.584202
2664.000000	21.613187
2663.000000	21.639627
2662.000000	21.661801
2661.000000	21.679206
2660.000000	21.692267
2659.000000	21.701626
2658.000000	21.707985
2657.000000	21.712312
2656.000000	21.715707
2655.000000	21.719145
2654.000000	21.723690
2653.000000	21.730536
2652.000000	21.740479
2651.000000	21.753718
2650.000000	21.770504
2649.000000	21.791552
2648.000000	21.817701
2647.000000	21.849433
2646.000000	21.887123
2645.000000	21.931546
2644.000000	21.983311
2643.000000	22.042364
2642.000000	22.108131
2641.000000	22.179726
2640.000000	22.255928
2639.000000	22.334861
2638.000000	22.414427
2637.000000	22.492915
2636.000000	22.568949
2635.000000	22.641167
2634.000000	22.708279
2633.000000	22.769330
2632.000000	22.823759
2631.000000	22.871470
2630.000000	22.912890
2629.000000	22.949163
2628.000000	22.981765
2627.000000	23.011797
2626.000000	23.039909
2625.000000	23.066343
2624.000000	23.091092
2623.000000	23.113820
2622.000000	23.133796
2621.000000	23.150194
2620.000000	23.162193
2619.000000	23.169171
2618.000000	23.170799
2617.000000	23.166917
2616.000000	23.157641
2615.000000	23.143412
2614.000000	23.125045
2613.000000	23.103359
2612.000000	23.078561
2611.000000	23.050613
2610.000000	23.020023
2609.000000	22.988051
2608.000000	22.956090
2607.000000	22.925241
2606.000000	22.896781
2605.000000	22.872679
2604.000000	22.855216
2603.000000	22.846322
2602.000000	22.847676
2601.000000	22.860465
2600.000000	22.885039
2599.000000	22.920886
2598.000000	22.966905
2597.000000	23.021991
2596.000000	23.084517
2595.000000	23.152178
2594.000000	23.222750
2593.000000	23.294514
2592.000000	23.366396
2591.000000	23.437688
2590.000000	23.508155
2589.000000	23.578230
2588.000000	23.648626
2587.000000	23.720036
2586.000000	23.793156
2585.000000	23.868747
2584.000000	23.947323
2583.000000	24.028678
2582.000000	24.111964
2581.000000	24.196133
2580.000000	24.280344
2579.000000	24.364138
2578.000000	24.447353
2577.000000	24.529880
2576.000000	24.611447
2575.000000	24.691695
2574.000000	24.770468
2573.000000	24.847948
2572.000000	24.924252
2571.000000	24.998992
2570.000000	25.071253
2569.000000	25.139753
2568.000000	25.203202
2567.000000	25.260322
2566.000000	25.309943
2565.000000	25.351337
2564.000000	25.383974
2563.000000	25.407482
2562.000000	25.421401
2561.000000	25.425272
2560.000000	25.419040
2559.000000	25.402740
2558.000000	25.376768
2557.000000	25.342237
2556.000000	25.301453
2555.000000	25.258407
2554.000000	25.218636
2553.000000	25.188470
2552.000000	25.173775
2551.000000	25.178839
2550.000000	25.205572
2549.000000	25.253793
2548.000000	25.321189
2547.000000	25.403777
2546.000000	25.497198
2545.000000	25.597189
2544.000000	25.700171
2543.000000	25.803110
2542.000000	25.903442
2541.000000	25.999404
2540.000000	26.089869
2539.000000	26.174084
2538.000000	26.251724
2537.000000	26.323274
2536.000000	26.389949
2535.000000	26.453159
2534.000000	26.513864
2533.000000	26.572657
2532.000000	26.630158
2531.000000	26.686731
2530.000000	26.742250
2529.000000	26.796129
2528.000000	26.847668
2527.000000	26.896313
2526.000000	26.941685
2525.000000	26.983890
2524.000000	27.023496
2523.000000	27.061059
2522.000000	27.096962
2521.000000	27.131792
2520.000000	27.166637
2519.000000	27.202490
2518.000000	27.239565
2517.000000	27.277529
2516.000000	27.315909
2515.000000	27.353878
2514.000000	27.390010
2513.000000	27.423024
2512.000000	27.452788
2511.000000	27.480040
2510.000000	27.505448
2509.000000	27.529483
2508.000000	27.552989
2507.000000	27.577153
2506.000000	27.602732
2505.000000	27.629852
2504.000000	27.658458
2503.000000	27.688325
2502.000000	27.718633
2501.000000	27.748055
2500.000000	27.775413
2499.000000	27.799930
2498.000000	27.821014
2497.000000	27.838585
2496.000000	27.853599
2495.000000	27.867742
2494.000000	27.882452
2493.000000	27.898499
2492.000000	27.916385
2491.000000	27.936422
2490.000000	27.958316
2489.000000	27.981195
2488.000000	28.004103
2487.000000	28.026112
2486.000000	28.046032
2485.000000	28.062659
2484.000000	28.075574
2483.000000	28.085339
2482.000000	28.093037
2481.000000	28.099990
2480.000000	28.107767
2479.000000	28.117843
2478.000000	28.130965
2477.000000	28.147046
2476.000000	28.165477
2475.000000	28.185183
2474.000000	28.204617
2473.000000	28.222269
2472.000000	28.237241
2471.000000	28.249093
2470.000000	28.257499
2469.000000	28.262742
2468.000000	28.266278
2467.000000	28.270178
2466.000000	28.275997
2465.000000	28.284512
2464.000000	28.296163
2463.000000	28.310923
2462.000000	28.327854
2461.000000	28.345482
2460.000000	28.362620
2459.000000	28.378292
2458.000000	28.391229
2457.000000	28.400405
2456.000000	28.406157
2455.000000	28.410097
2454.000000	28.413908
2453.000000	28.418820
2452.000000	28.426004
2451.000000	28.436485
2450.000000	28.450420
2449.000000	28.467024
2448.000000	28.485282
2447.000000	28.504168
2446.000000	28.522221
2445.000000	28.537808
2444.000000	28.550082
2443.000000	28.559272
2442.000000	28.566100
2441.000000	28.571536
2440.000000	28.577049
2439.000000	28.584291
2438.000000	28.594263
2437.000000	28.607168
2436.000000	28.622936
2435.000000	28.641236
2434.000000	28.660950
2433.000000	28.680365
2432.000000	28.698088
2431.000000	28.713338
2430.000000	28.725619
2429.000000	28.734938
2428.000000	28.742385
2427.000000	28.749770
2426.000000	28.758528
2425.000000	28.769448
2424.000000	28.783186
2423.000000	28.800147
2422.000000	28.819763
2421.000000	28.840623
2420.000000	28.861479
2419.000000	28.881486
2418.000000	28.899590
2417.000000	28.914681
2416.000000	28.926667
2415.000000	28.936792
2414.000000	28.946673
2413.000000	28.957548
2412.000000	28.970401
2411.000000	28.985972
2410.000000	29.004345
2409.000000	29.025013
2408.000000	29.047375
2407.000000	29.070718
2406.000000	29.093792
2405.000000	29.115219
2404.000000	29.134454
2403.000000	29.151807
2402.000000	29.167671
2401.000000	29.182492
2400.000000	29.197415
2399.000000	29.214044
2398.000000	29.233345
2397.000000	29.255418
2396.000000	29.280199
2395.000000	29.307512
2394.000000	29.336374
2393.000000	29.365167
2392.000000	29.392808
2391.000000	29.419155
2390.000000	29.444306
2389.000000	29.468346
2388.000000	29.492001
2387.000000	29.516781
2386.000000	29.544263
2385.000000	29.575752
2384.000000	29.612447
2383.000000	29.655089
2382.000000	29.703229
2381.000000	29.755523
2380.000000	29.810784
2379.000000	29.867991
2378.000000	29.925423
2377.000000	29.980903
2376.000000	30.033375
2375.000000	30.083221
2374.000000	30.131296
2373.000000	30.178388
2372.000000	30.225882
2371.000000	30.275724
2370.000000	30.328557
2369.000000	30.383190
2368.000000	30.438656
2367.000000	30.495256
2366.000000	30.552357
2365.000000	30.607472
2364.000000	30.660106
2363.000000	30.711239
2362.000000	30.760190
2361.000000	30.807975
2360.000000	30.855857
2359.000000	30.905039
2358.000000	30.956452
2357.000000	31.007616
2356.000000	31.059007
2355.000000	31.110821
2354.000000	31.161577
2353.000000	31.209876
2352.000000	31.257131
2351.000000	31.310288
2350.000000	31.366726
2349.000000	31.418346
2348.000000	31.462126
2347.000000	31.504227
2346.000000	31.556722
2345.000000	31.618912
2344.000000	31.683153
2343.000000	31.740266
2342.000000	31.788670
2341.000000	31.834788
2340.000000	31.880524
2339.000000	31.927593
2338.000000	31.974200
2337.000000	32.019771
2336.000000	32.064709
2335.000000	32.111382
2334.000000	32.160624
2333.000000	32.212311
2332.000000	32.264973
2331.000000	32.320500
2330.000000	32.376810
2329.000000	32.432581
2328.000000	32.488998
2327.000000	32.545655
2326.000000	32.604924
2325.000000	32.662916
2324.000000	32.721076
2323.000000	32.778213
2322.000000	32.832744
2321.000000	32.882743
2320.000000	32.927428
2319.000000	32.971027
2318.000000	33.015217
2317.000000	33.061999
2316.000000	33.111252
2315.000000	33.164116
2314.000000	33.219509
2313.000000	33.275081
2312.000000	33.329059
2311.000000	33.380387
2310.000000	33.428891
2309.000000	33.473350
2308.000000	33.515154
2307.000000	33.555692
2306.000000	33.596688
2305.000000	33.637763
2304.000000	33.679891
2303.000000	33.724006
2302.000000	33.770143
2301.000000	33.816987
2300.000000	33.864181
2299.000000	33.911946
2298.000000	33.959675
2297.000000	34.005335
2296.000000	34.048466
2295.000000	34.089469
2294.000000	34.129149
2293.000000	34.167018
2292.000000	34.204263
2291.000000	34.242149
2290.000000	34.281124
2289.000000	34.319988
2288.000000	34.358868
2287.000000	34.398790
2286.000000	34.439865
2285.000000	34.480860
2284.000000	34.521405
2283.000000	34.562168
2282.000000	34.602809
2281.000000	34.642121
2280.000000	34.680041
2279.000000	34.717968
2278.000000	34.756210
2277.000000	34.794001
2276.000000	34.831344
2275.000000	34.869471
2274.000000	34.908477
2273.000000	34.947131
2272.000000	34.985174
2271.000000	35.023531
2270.000000	35.062168
2269.000000	35.099664
2268.000000	35.135532
2267.000000	35.170612
2266.000000	35.204887
2265.000000	35.237164
2264.000000	35.267245
2263.000000	35.296141
2262.000000	35.324066
2261.000000	35.349951
2260.000000	35.373681
2259.000000	35.396176
2258.000000	35.417290
2257.000000	35.435818
2256.000000	35.451576
2255.000000	35.465475
2254.000000	35.476842
2253.000000	35.483443
2252.000000	35.483955
2251.000000	35.478645
2250.000000	35.467245
2249.000000	35.448482
2248.000000	35.422421
2247.000000	35.390193
2246.000000	35.351795
2245.000000	35.306203
2244.000000	35.253520
2243.000000	35.194908
2242.000000	35.130292
2241.000000	35.058739
2240.000000	34.981055
2239.000000	34.899962
2238.000000	34.817625
2237.000000	34.735534
2236.000000	34.656803
2235.000000	34.585984
2234.000000	34.526158
2233.000000	34.478016
2232.000000	34.441890
2231.000000	34.418134
2230.000000	34.405320
2229.000000	34.400298
2228.000000	34.400549
2227.000000	34.404823
2226.000000	34.411206
2225.000000	34.417071
2224.000000	34.421186
2223.000000	34.423936
2222.000000	34.425255
2221.000000	34.424298
2220.000000	34.421383
2219.000000	34.417928
2218.000000	34.414331
2217.000000	34.410002
2216.000000	34.405630
2215.000000	34.403092
2214.000000	34.402904
2213.000000	34.403930
2212.000000	34.405698
2211.000000	34.408650
2210.000000	34.412030
2209.000000	34.414083
2208.000000	34.414680
2207.000000	34.415420
2206.000000	34.416809
2205.000000	34.417734
2204.000000	34.418009
2203.000000	34.419001
2202.000000	34.421358
2201.000000	34.424423
2200.000000	34.428184
2199.000000	34.433329
2198.000000	34.439001
2197.000000	34.442942
2196.000000	34.444279
2195.000000	34.443879
2194.000000	34.441625
2193.000000	34.435921
2192.000000	34.426376
2191.000000	34.414542
2190.000000	34.401510
2189.000000	34.387101
2188.000000	34.371848
2187.000000	34.357362
2186.000000	34.344265
2185.000000	34.331998
2184.000000	34.321042
2183.000000	34.313044
2182.000000	34.308357
2181.000000	34.305885
2180.000000	34.305671
2179.000000	34.309313
2178.000000	34.317421
2177.000000	34.329035
2176.000000	34.344008
2175.000000	34.363489
2174.000000	34.387599
2173.000000	34.414934
2172.000000	34.444847
2171.000000	34.477837
2170.000000	34.513312
2169.000000	34.549514
2168.000000	34.586069
2167.000000	34.624184
2166.000000	34.663949
2165.000000	34.703990
2164.000000	34.744128
2163.000000	34.785611
2162.000000	34.828304
2161.000000	34.870438
2160.000000	34.911628
2159.000000	34.953294
2158.000000	34.995532
2157.000000	35.036605
2156.000000	35.076223
2155.000000	35.116362
2154.000000	35.157962
2153.000000	35.199640
2152.000000	35.240505
2151.000000	35.281328
2150.000000	35.322106
2149.000000	35.361297
2148.000000	35.398417
2147.000000	35.434745
2146.000000	35.470687
2145.000000	35.505151
2144.000000	35.538426
2143.000000	35.572878
2142.000000	35.609819
2141.000000	35.648420
2140.000000	35.688503
2139.000000	35.731532
2138.000000	35.777952
2137.000000	35.826293
2136.000000	35.875715
2135.000000	35.926682
2134.000000	35.978322
2133.000000	36.027972
2132.000000	36.074250
2131.000000	36.118013
2130.000000	36.159698
2129.000000	36.198631
2128.000000	36.235499
2127.000000	36.272543
2126.000000	36.310648
2125.000000	36.348967
2124.000000	36.387784
2123.000000	36.428690
2122.000000	36.471409
2121.000000	36.513550
2120.000000	36.554092
2119.000000	36.594085
2118.000000	36.633615
2117.000000	36.671444
2116.000000	36.708101
2115.000000	36.745858
2114.000000	36.785170
2113.000000	36.824490
2112.000000	36.864000
2111.000000	36.905882
2110.000000	36.950314
2109.000000	36.994829
2108.000000	37.038052
2107.000000	37.080309
2106.000000	37.119998
2105.000000	37.153409
2104.000000	37.179062
2103.000000	37.198669
2102.000000	37.213141
2101.000000	37.221441
2100.000000	37.224181
2099.000000	37.224140
2098.000000	37.222585
2097.000000	37.218465
2096.000000	37.211511
2095.000000	37.202792
2094.000000	37.191839
2093.000000	37.177135
2092.000000	37.159923
2091.000000	37.143594
2090.000000	37.128982
2089.000000	37.114297
2088.000000	37.100191
2087.000000	37.090818
2086.000000	37.089057
2085.000000	37.094765
2084.000000	37.108488
2083.000000	37.132475
2082.000000	37.166994
2081.000000	37.209273
2080.000000	37.257083
2079.000000	37.309719
2078.000000	37.364796
2077.000000	37.418512
2076.000000	37.470081
2075.000000	37.522386
2074.000000	37.576972
2073.000000	37.632642
2072.000000	37.689787
2071.000000	37.750854
2070.000000	37.815881
2069.000000	37.882653
2068.000000	37.952610
2067.000000	38.031225
2066.000000	38.120275
2065.000000	38.214245
2064.000000	38.306907
2063.000000	38.396884
2062.000000	38.484675
2061.000000	38.569484
2060.000000	38.651650
2059.000000	38.734120
2058.000000	38.818921
2057.000000	38.905533
2056.000000	38.994043
2055.000000	39.086079
2054.000000	39.180871
2053.000000	39.274661
2052.000000	39.365523
2051.000000	39.454165
2050.000000	39.539316
2049.000000	39.617788
2048.000000	39.689702
2047.000000	39.758246
2046.000000	39.824304
2045.000000	39.887227
2044.000000	39.951282
2043.000000	40.024657
2042.000000	40.110413
2041.000000	40.204004
2040.000000	40.300825
2039.000000	40.400256
2038.000000	40.501032
2037.000000	40.599255
2036.000000	40.693347
2035.000000	40.785594
2034.000000	40.877166
2033.000000	40.966800
2032.000000	41.055574
2031.000000	41.147845
2030.000000	41.245291
2029.000000	41.345910
2028.000000	41.449217
2027.000000	41.556985
2026.000000	41.667633
2025.000000	41.775837
2024.000000	41.878922
2023.000000	41.976460
2022.000000	42.064950
2021.000000	42.141015
2020.000000	42.210937
2019.000000	42.288768
2018.000000	42.382096
2017.000000	42.486209
2016.000000	42.594470
2015.000000	42.706202
2014.000000	42.821581
2013.000000	42.937655
2012.000000	43.052655
2011.000000	43.168135
2010.000000	43.284027
2009.000000	43.397268
2008.000000	43.506957
2007.000000	43.615860
2006.000000	43.725133
2005.000000	43.833128
2004.000000	43.941603
2003.000000	44.055181
2002.000000	44.175198
2001.000000	44.298441
2000.000000	44.423877
1999.000000	44.553102
1998.000000	44.679625
1997.000000	44.789650
1996.000000	44.878446
1995.000000	44.957605
1994.000000	45.041820
1993.000000	45.134158
1992.000000	45.228680
1991.000000	45.323472
1990.000000	45.422627
1989.000000	45.529260
1988.000000	45.643100
1987.000000	45.760744
1986.000000	45.875823
1985.000000	45.982387
1984.000000	46.080248
1983.000000	46.172066
1982.000000	46.256625
1981.000000	46.329520
1980.000000	46.391934
1979.000000	46.451821
1978.000000	46.513383
1977.000000	46.575222
1976.000000	46.639233
1975.000000	46.711614
1974.000000	46.792049
1973.000000	46.870858
1972.000000	46.939612
1971.000000	46.997519
1970.000000	47.047551
1969.000000	47.095727
1968.000000	47.151399
1967.000000	47.217528
1966.000000	47.284020
1965.000000	47.339634
1964.000000	47.387345
1963.000000	47.439723
1962.000000	47.501725
1961.000000	47.567986
1960.000000	47.635591
1959.000000	47.706860
1958.000000	47.779583
1957.000000	47.847329
1956.000000	47.909175
1955.000000	47.968699
1954.000000	48.022888
1953.000000	48.065092
1952.000000	48.096784
1951.000000	48.125202
1950.000000	48.153243
1949.000000	48.178919
1948.000000	48.203807
1947.000000	48.232910
1946.000000	48.267549
1945.000000	48.309863
1944.000000	48.369807
1943.000000	48.449750
1942.000000	48.529629
1941.000000	48.587965
1940.000000	48.626340
1939.000000	48.658772
1938.000000	48.688544
1937.000000	48.710189
1936.000000	48.728351
1935.000000	48.757525
1934.000000	48.802246
1933.000000	48.855186
1932.000000	48.911939
1931.000000	48.972589
1930.000000	49.033525
1929.000000	49.082027
1928.000000	49.107002
1927.000000	49.105740
1926.000000	49.084312
1925.000000	49.061563
1924.000000	49.060622
1923.000000	49.089888
1922.000000	49.140943
1921.000000	49.205100
1920.000000	49.280734
1919.000000	49.359814
1918.000000	49.418850
1917.000000	49.445382
1916.000000	49.457555
1915.000000	49.476721
1914.000000	49.496179
1913.000000	49.496831
1912.000000	49.482624
1911.000000	49.479358
1910.000000	49.502929
1909.000000	49.544516
1908.000000	49.593759
1907.000000	49.650110
1906.000000	49.710650
1905.000000	49.768117
1904.000000	49.818542
1903.000000	49.864443
1902.000000	49.905213
1901.000000	49.931295
1900.000000	49.937466
1899.000000	49.928842
1898.000000	49.913924
1897.000000	49.904307
1896.000000	49.911426
1895.000000	49.934494
1894.000000	49.957976
1893.000000	49.969915
1892.000000	49.979221
1891.000000	50.005231
1890.000000	50.043557
1889.000000	50.066283
1888.000000	50.064696
1887.000000	50.057439
1886.000000	50.057280
1885.000000	50.059122
1884.000000	50.058131
1883.000000	50.060286
1882.000000	50.070872
1881.000000	50.086316
1880.000000	50.105950
1879.000000	50.134464
1878.000000	50.167615
1877.000000	50.193488
1876.000000	50.205604
1875.000000	50.202284
1874.000000	50.180162
1873.000000	50.138014
1872.000000	50.082336
1871.000000	50.025822
1870.000000	49.985492
1869.000000	49.973237
1868.000000	49.993168
1867.000000	50.046357
1866.000000	50.117945
1865.000000	50.177987
1864.000000	50.209281
1863.000000	50.217282
1862.000000	50.210070
1861.000000	50.188047
1860.000000	50.157246
1859.000000	50.130767
1858.000000	50.112174
1857.000000	50.093903
1856.000000	50.076580
1855.000000	50.069906
1854.000000	50.073327
1853.000000	50.069489
1852.000000	50.047649
1851.000000	50.011827
1850.000000	49.962119
1849.000000	49.904395
1848.000000	49.870458
1847.000000	49.893176
1846.000000	49.952011
1845.000000	49.969388
1844.000000	49.896225
1843.000000	49.780160
1842.000000	49.695136
1841.000000	49.656739
1840.000000	49.642248
1839.000000	49.634244
1838.000000	49.628698
1837.000000	49.617026
1836.000000	49.583070
1835.000000	49.520945
1834.000000	49.435402
1833.000000	49.328325
1832.000000	49.211151
1831.000000	49.111527
1830.000000	49.031213
1829.000000	48.955815
1828.000000	48.901947
1827.000000	48.890641
1826.000000	48.903220
1825.000000	48.896573
1824.000000	48.859941
1823.000000	48.818838
1822.000000	48.778997
1821.000000	48.716642
1820.000000	48.622640
1819.000000	48.513673
1818.000000	48.401898
1817.000000	48.284450
1816.000000	48.160662
1815.000000	48.041030
1814.000000	47.932034
1813.000000	47.838303
1812.000000	47.774456
1811.000000	47.743272
1810.000000	47.722783
1809.000000	47.689646
1808.000000	47.639156
1807.000000	47.575246
1806.000000	47.491342
1805.000000	47.379514
1804.000000	47.250561
1803.000000	47.134404
1802.000000	47.050460
1801.000000	46.992357
1800.000000	46.946280
1799.000000	46.902639
1798.000000	46.858173
1797.000000	46.821925
1796.000000	46.813100
1795.000000	46.834317
1794.000000	46.847101
1793.000000	46.804131
1792.000000	46.701531
1791.000000	46.581839
1790.000000	46.485408
1789.000000	46.419511
1788.000000	46.374552
1787.000000	46.336118
1786.000000	46.279220
1785.000000	46.180792
1784.000000	46.048220
1783.000000	45.920149
1782.000000	45.817451
1781.000000	45.720686
1780.000000	45.606642
1779.000000	45.472116
1778.000000	45.319271
1777.000000	45.151575
1776.000000	44.999197
1775.000000	44.896880
1774.000000	44.830084
1773.000000	44.743635
1772.000000	44.617717
1771.000000	44.502422
1770.000000	44.435641
1769.000000	44.385085
1768.000000	44.297330
1767.000000	44.168191
1766.000000	44.036396
1765.000000	43.928147
1764.000000	43.837160
1763.000000	43.738688
1762.000000	43.599719
1761.000000	43.422242
1760.000000	43.263618
1759.000000	43.171874
1758.000000	43.126347
1757.000000	43.051961
1756.000000	42.925248
1755.000000	42.801464
1754.000000	42.706195
1753.000000	42.582766
1752.000000	42.369391
1751.000000	42.092900
1750.000000	41.837942
1749.000000	41.644394
1748.000000	41.496685
1747.000000	41.375561
1746.000000	41.261891
1745.000000	41.141413
1744.000000	41.029840
1743.000000	40.954444
1742.000000	40.899712
1741.000000	40.798169
1740.000000	40.600663
1739.000000	40.356816
1738.000000	40.170042
1737.000000	40.076587
1736.000000	40.002286
1735.000000	39.813855
1734.000000	39.443783
1733.000000	39.006736
1732.000000	38.666126
1731.000000	38.461212
1730.000000	38.325171
1729.000000	38.165840
1728.000000	37.956386
1727.000000	37.727633
1726.000000	37.487179
1725.000000	37.214949
1724.000000	36.913495
1723.000000	36.619056
1722.000000	36.358318
1721.000000	36.112556
1720.000000	35.839687
1719.000000	35.526155
1718.000000	35.177872
1717.000000	34.811814
1716.000000	34.476148
1715.000000	34.192606
1714.000000	33.928182
1713.000000	33.649559
1712.000000	33.357296
1711.000000	33.065629
1710.000000	32.769050
1709.000000	32.453147
1708.000000	32.122829
1707.000000	31.793217
1706.000000	31.458414
1705.000000	31.137754
1704.000000	30.919446
1703.000000	30.850243
1702.000000	30.786044
1701.000000	30.448597
1700.000000	29.826850
1699.000000	29.254047
1698.000000	28.930208
1697.000000	28.757771
1696.000000	28.512881
1695.000000	28.128614
1694.000000	27.737239
1693.000000	27.409465
1692.000000	27.118293
1691.000000	26.820952
1690.000000	26.501807
1689.000000	26.186173
1688.000000	25.925382
1687.000000	25.735872
1686.000000	25.547909
1685.000000	25.259526
1684.000000	24.836381
1683.000000	24.407285
1682.000000	24.088604
1681.000000	23.850795
1680.000000	23.648305
1679.000000	23.478816
1678.000000	23.342963
1677.000000	23.187520
1676.000000	22.933031
1675.000000	22.582524
1674.000000	22.228848
1673.000000	21.936181
1672.000000	21.699089
1671.000000	21.485761
1670.000000	21.255056
1669.000000	20.981804
1668.000000	20.701771
1667.000000	20.471791
1666.000000	20.295408
1665.000000	20.127747
1664.000000	19.927611
1663.000000	19.693042
1662.000000	19.446292
1661.000000	19.202560
1660.000000	18.965801
1659.000000	18.742824
1658.000000	18.538246
1657.000000	18.366973
1656.000000	18.237613
1655.000000	18.143154
1654.000000	18.009095
1653.000000	17.690682
1652.000000	17.286034
1651.000000	16.988665
1650.000000	16.794678
1649.000000	16.646956
1648.000000	16.512040
1647.000000	16.361222
1646.000000	16.172758
1645.000000	15.960854
1644.000000	15.757729
1643.000000	15.580292
1642.000000	15.419180
1641.000000	15.248925
1640.000000	15.071429
1639.000000	14.918565
1638.000000	14.806407
1637.000000	14.711844
1636.000000	14.578016
1635.000000	14.389745
1634.000000	14.198257
1633.000000	14.033124
1632.000000	13.890098
1631.000000	13.761024
1630.000000	13.632788
1629.000000	13.493607
1628.000000	13.348641
1627.000000	13.221421
1626.000000	13.121638
1625.000000	13.030318
1624.000000	12.929178
1623.000000	12.821196
1622.000000	12.719703
1621.000000	12.631556
1620.000000	12.561683
1619.000000	12.513667
1618.000000	12.474429
1617.000000	12.409721
1616.000000	12.309712
1615.000000	12.214065
1614.000000	12.150154
1613.000000	12.105422
1612.000000	12.061845
1611.000000	12.020644
1610.000000	11.991498
1609.000000	11.970472
1608.000000	11.949039
1607.000000	11.930223
1606.000000	11.916726
1605.000000	11.900093
1604.000000	11.877774
1603.000000	11.861667
1602.000000	11.858571
1601.000000	11.859036
1600.000000	11.855018
1599.000000	11.852499
1598.000000	11.857013
1597.000000	11.863724
1596.000000	11.869909
1595.000000	11.881971
1594.000000	11.901316
1593.000000	11.917436
1592.000000	11.924280
1591.000000	11.929907
1590.000000	11.941418
1589.000000	11.953346
1588.000000	11.960529
1587.000000	11.968815
1586.000000	11.983373
1585.000000	11.997566
1584.000000	12.005527
1583.000000	12.011985
1582.000000	12.017876
1581.000000	12.014029
1580.000000	12.000505
1579.000000	11.994046
1578.000000	12.007911
1577.000000	12.027627
1576.000000	12.018002
1575.000000	11.979971
1574.000000	11.947344
1573.000000	11.933986
1572.000000	11.931693
1571.000000	11.932268
1570.000000	11.933610
1569.000000	11.925507
1568.000000	11.906709
1567.000000	11.895701
1566.000000	11.902103
1565.000000	11.913793
1564.000000	11.928424
1563.000000	11.962181
1562.000000	12.029730
1561.000000	12.083856
1560.000000	12.129285
1559.000000	12.212892
1558.000000	12.287677
1557.000000	12.336634
1556.000000	12.395231
1555.000000	12.482875
1554.000000	12.584206
1553.000000	12.671549
1552.000000	12.750441
1551.000000	12.848999
1550.000000	12.980002
1549.000000	13.120590
1548.000000	13.244907
1547.000000	13.352330
1546.000000	13.458529
1545.000000	13.578095
1544.000000	13.711266
1543.000000	13.851423
1542.000000	14.012455
1541.000000	14.246045
1540.000000	14.532044
1539.000000	14.767711
1538.000000	14.926283
1537.000000	15.052828
1536.000000	15.189733
1535.000000	15.368855
1534.000000	15.607028
1533.000000	15.873564
1532.000000	16.117457
1531.000000	16.336893
1530.000000	16.560015
1529.000000	16.803122
1528.000000	17.070407
1527.000000	17.363187
1526.000000	17.668126
1525.000000	17.960147
1524.000000	18.241041
1523.000000	18.564559
1522.000000	18.978730
1521.000000	19.417516
1520.000000	19.776436
1519.000000	20.075283
1518.000000	20.419117
1517.000000	20.855514
1516.000000	21.323089
1515.000000	21.757116
1514.000000	22.157544
1513.000000	22.529477
1512.000000	22.861545
1511.000000	23.148548
1510.000000	23.418360
1509.000000	23.728837
1508.000000	24.245058
1507.000000	25.022654
1506.000000	25.770469
1505.000000	26.268601
1504.000000	26.598365
1503.000000	26.913714
1502.000000	27.292017
1501.000000	27.716546
1500.000000	28.146559
1499.000000	28.585240
1498.000000	29.069328
1497.000000	29.590007
1496.000000	30.073357
1495.000000	30.476763
1494.000000	30.823911
1493.000000	31.139440
1492.000000	31.431759
1491.000000	31.751065
1490.000000	32.161133
1489.000000	32.637499
1488.000000	33.107720
1487.000000	33.539351
1486.000000	33.926710
1485.000000	34.254041
1484.000000	34.521814
1483.000000	34.769419
1482.000000	35.026806
1481.000000	35.277446
1480.000000	35.494583
1479.000000	35.678914
1478.000000	35.831727
1477.000000	35.941604
1476.000000	36.016714
1475.000000	36.090359
1474.000000	36.177995
1473.000000	36.226157
1472.000000	36.162351
1471.000000	36.001358
1470.000000	35.795421
1469.000000	35.552143
1468.000000	35.260657
1467.000000	34.906289
1466.000000	34.443755
1465.000000	33.816743
1464.000000	33.068952
1463.000000	32.337194
1462.000000	31.680196
1461.000000	31.060000
1460.000000	30.439141
1459.000000	29.800660
1458.000000	29.041028
1457.000000	27.982738
1456.000000	26.757200
1455.000000	25.663840
1454.000000	24.689474
1453.000000	23.654951
1452.000000	22.496352
1451.000000	21.271481
1450.000000	19.997134
1449.000000	18.601125
1448.000000	17.088852
1447.000000	15.591793
1446.000000	14.188922
1445.000000	12.842406
1444.000000	11.524602
1443.000000	10.255007
1442.000000	9.039544
1441.000000	7.889600
1440.000000	6.861355
1439.000000	5.972572
1438.000000	5.117436
1437.000000	4.195235
1436.000000	3.331219
1435.000000	2.714566
1434.000000	2.306029
1433.000000	1.970875
1432.000000	1.680783
1431.000000	1.470593
1430.000000	1.323156
1429.000000	1.193466
1428.000000	1.104162
1427.000000	1.094281
1426.000000	1.136658
1425.000000	1.191816
1424.000000	1.284586
1423.000000	1.446783
1422.000000	1.645773
1421.000000	1.851242
1420.000000	2.116008
1419.000000	2.494412
1418.000000	2.917502
1417.000000	3.306708
1416.000000	3.702992
1415.000000	4.164439
1414.000000	4.674592
1413.000000	5.204462
1412.000000	5.781634
1411.000000	6.436998
1410.000000	7.136985
1409.000000	7.839898
1408.000000	8.565865
1407.000000	9.357685
1406.000000	10.222408
1405.000000	11.143407
1404.000000	12.100990
1403.000000	13.057229
1402.000000	13.982107
1401.000000	14.909517
1400.000000	15.912952
1399.000000	16.993112
1398.000000	18.064446
1397.000000	19.106774
1396.000000	20.213422
1395.000000	21.439576
1394.000000	22.699399
1393.000000	23.886589
1392.000000	25.001314
1391.000000	26.092231
1390.000000	27.186119
1389.000000	28.307636
1388.000000	29.479812
1387.000000	30.657724
1386.000000	31.739785
1385.000000	32.683875
1384.000000	33.518812
1383.000000	34.254660
1382.000000	34.861260
1381.000000	35.309493
1380.000000	35.576734
1379.000000	35.620824
1378.000000	35.394856
1377.000000	34.870347
1376.000000	34.010018
1375.000000	32.761716
1374.000000	31.128700
1373.000000	29.235334
1372.000000	27.267067
1371.000000	25.371814
1370.000000	23.678192
1369.000000	22.349183
1368.000000	21.544913
1367.000000	21.327745
1366.000000	21.650242
1365.000000	22.437608
1364.000000	23.643553
1363.000000	25.204923
1362.000000	26.962060
1361.000000	28.706314
1360.000000	30.295946
1359.000000	31.668951
1358.000000	32.789755
1357.000000	33.623215
1356.000000	34.132728
1355.000000	34.285987
1354.000000	34.065810
1353.000000	33.473730
1352.000000	32.525275
1351.000000	31.241130
1350.000000	29.652041
1349.000000	27.806521
1348.000000	25.761617
1347.000000	23.574962
1346.000000	21.304176
1345.000000	19.012250
1344.000000	16.772875
1343.000000	14.654229
1342.000000	12.694095
1341.000000	10.909606
1340.000000	9.335878
1339.000000	8.032218
1338.000000	7.036351
1337.000000	6.324163
1336.000000	5.831085
1335.000000	5.489294
1334.000000	5.229944
1333.000000	4.984483
1332.000000	4.700287
1331.000000	4.351342
1330.000000	3.934155
1329.000000	3.460418
1328.000000	2.959076
1327.000000	2.470647
1326.000000	2.027644
1325.000000	1.645385
1324.000000	1.332151
1323.000000	1.094464
1322.000000	0.926229
1321.000000	0.807935
1320.000000	0.724008
1319.000000	0.668012
1318.000000	0.630651
1317.000000	0.598018
1316.000000	0.564902
1315.000000	0.536965
1314.000000	0.515623
1313.000000	0.494689
1312.000000	0.473459
1311.000000	0.458567
1310.000000	0.451081
1309.000000	0.445037
1308.000000	0.441052
1307.000000	0.447825
1306.000000	0.468414
1305.000000	0.498392
1304.000000	0.538602
1303.000000	0.596100
1302.000000	0.671074
1301.000000	0.755715
1300.000000	0.847969
1299.000000	0.952601
1298.000000	1.068481
1297.000000	1.188630
1296.000000	1.312804
1295.000000	1.447381
1294.000000	1.591913
1293.000000	1.738855
1292.000000	1.886332
1291.000000	2.038117
1290.000000	2.190879
1289.000000	2.333845
1288.000000	2.460427
1287.000000	2.568374
1286.000000	2.650628
1285.000000	2.699295
1284.000000	2.720180
1283.000000	2.733047
1282.000000	2.757475
1281.000000	2.807374
1280.000000	2.896318
1279.000000	3.033524
1278.000000	3.213217
1277.000000	3.419965
1276.000000	3.643816
1275.000000	3.881557
1274.000000	4.126945
1273.000000	4.371756
1272.000000	4.615818
1271.000000	4.863997
1270.000000	5.114650
1269.000000	5.361387
1268.000000	5.603904
1267.000000	5.846702
1266.000000	6.088776
1265.000000	6.324786
1264.000000	6.554962
1263.000000	6.784543
1262.000000	7.014709
1261.000000	7.243442
1260.000000	7.473191
1259.000000	7.708299
1258.000000	7.946931
1257.000000	8.184171
1256.000000	8.420543
1255.000000	8.659293
1254.000000	8.898319
1253.000000	9.132619
1252.000000	9.362279
1251.000000	9.590797
1250.000000	9.818148
1249.000000	10.042415
1248.000000	10.265841
1247.000000	10.492832
1246.000000	10.723896
1245.000000	10.957220
1244.000000	11.193553
1243.000000	11.433701
1242.000000	11.673751
1241.000000	11.908496
1240.000000	12.137223
1239.000000	12.361305
1238.000000	12.579303
1237.000000	12.789664
1236.000000	12.995661
1235.000000	13.202770
1234.000000	13.413144
1233.000000	13.626815
1232.000000	13.845538
1231.000000	14.070831
1230.000000	14.300338
1229.000000	14.530147
1228.000000	14.758778
1227.000000	14.985670
1226.000000	15.208497
1225.000000	15.425461
1224.000000	15.638072
1223.000000	15.849038
1222.000000	16.059915
1221.000000	16.273037
1220.000000	16.492740
1219.000000	16.721849
1218.000000	16.959011
1217.000000	17.201243
1216.000000	17.446365
1215.000000	17.691362
1214.000000	17.931584
1213.000000	18.163828
1212.000000	18.388071
1211.000000	18.605155
1210.000000	18.815860
1209.000000	19.023098
1208.000000	19.232061
1207.000000	19.446944
1206.000000	19.669457
1205.000000	19.900635
1204.000000	20.140676
1203.000000	20.386297
1202.000000	20.631223
1201.000000	20.869740
1200.000000	21.097799
1199.000000	21.311260
1198.000000	21.506540
1197.000000	21.683402
1196.000000	21.843061
1195.000000	21.984792
1194.000000	22.105295
1193.000000	22.199410
1192.000000	22.259939
1191.000000	22.276641
1190.000000	22.242239
1189.000000	22.160446
1188.000000	22.048154
1187.000000	21.932281
1186.000000	21.843522
1185.000000	21.808636
1184.000000	21.842948
1183.000000	21.948043
1182.000000	22.115196
1181.000000	22.333626
1180.000000	22.593284
1179.000000	22.882976
1178.000000	23.192157
1177.000000	23.512078
1176.000000	23.834619
1175.000000	24.150081
1174.000000	24.449442
1173.000000	24.728026
1172.000000	24.984733
1171.000000	25.220245
1170.000000	25.438917
1169.000000	25.649809
1168.000000	25.861889
1167.000000	26.080477
1166.000000	26.309164
1165.000000	26.551263
1164.000000	26.806301
1163.000000	27.067779
1162.000000	27.327653
1161.000000	27.580291
1160.000000	27.820461
1159.000000	28.042709
1158.000000	28.246030
1157.000000	28.435934
1156.000000	28.619224
1155.000000	28.800661
1154.000000	28.986489
1153.000000	29.184797
1152.000000	29.399149
1151.000000	29.625538
1150.000000	29.857572
1149.000000	30.090096
1148.000000	30.315661
1147.000000	30.524265
1146.000000	30.710538
1145.000000	30.876573
1144.000000	31.026503
1143.000000	31.163871
1142.000000	31.296378
1141.000000	31.435903
1140.000000	31.590193
1139.000000	31.759848
1138.000000	31.944190
1137.000000	32.143047
1136.000000	32.350450
1135.000000	32.553902
1134.000000	32.743635
1133.000000	32.917015
1132.000000	33.072760
1131.000000	33.209160
1130.000000	33.330721
1129.000000	33.449310
1128.000000	33.575496
1127.000000	33.714756
1126.000000	33.872719
1125.000000	34.055178
1124.000000	34.259727
1123.000000	34.474633
1122.000000	34.688512
1121.000000	34.894376
1120.000000	35.083575
1119.000000	35.246243
1118.000000	35.381529
1117.000000	35.499598
1116.000000	35.611653
1115.000000	35.725566
1114.000000	35.851749
1113.000000	36.002265
1112.000000	36.180261
1111.000000	36.378168
1110.000000	36.587784
1109.000000	36.802736
1108.000000	37.010773
1107.000000	37.195040
1106.000000	37.347600
1105.000000	37.472504
1104.000000	37.574756
1103.000000	37.657607
1102.000000	37.731714
1101.000000	37.815380
1100.000000	37.920424
1099.000000	38.048504
1098.000000	38.200443
1097.000000	38.377906
1096.000000	38.573045
1095.000000	38.767757
1094.000000	38.947881
1093.000000	39.109118
1092.000000	39.248408
1091.000000	39.362665
1090.000000	39.459107
1089.000000	39.554997
1088.000000	39.663683
1087.000000	39.790675
1086.000000	39.942968
1085.000000	40.128687
1084.000000	40.343887
1083.000000	40.570851
1082.000000	40.792544
1081.000000	40.998457
1080.000000	41.176312
1079.000000	41.312923
1078.000000	41.408498
1077.000000	41.476744
1076.000000	41.529728
1075.000000	41.573974
1074.000000	41.620013
1073.000000	41.681010
1072.000000	41.756332
1071.000000	41.828890
1070.000000	41.879378
1069.000000	41.889078
1068.000000	41.832257
1067.000000	41.680634
1066.000000	41.424730
1065.000000	41.082518
1064.000000	40.687756
1063.000000	40.285967
1062.000000	39.938038
1061.000000	39.707517
1060.000000	39.632650
1059.000000	39.717755
1058.000000	39.943624
1057.000000	40.278722
1056.000000	40.680129
1055.000000	41.098835
1054.000000	41.499380
1053.000000	41.863870
1052.000000	42.179950
1051.000000	42.438264
1050.000000	42.645539
1049.000000	42.824321
1048.000000	42.995017
1047.000000	43.169004
1046.000000	43.358454
1045.000000	43.576571
1044.000000	43.823147
1043.000000	44.083414
1042.000000	44.343633
1041.000000	44.596261
1040.000000	44.829669
1039.000000	45.029092
1038.000000	45.192509
1037.000000	45.332825
1036.000000	45.462096
1035.000000	45.587927
1034.000000	45.724672
1033.000000	45.891260
1032.000000	46.093442
1031.000000	46.321015
1030.000000	46.563627
1029.000000	46.814787
1028.000000	47.059423
1027.000000	47.275029
1026.000000	47.450442
1025.000000	47.590563
1024.000000	47.701526
1023.000000	47.787648
1022.000000	47.864640
1021.000000	47.957056
1020.000000	48.079024
1019.000000	48.230012
1018.000000	48.409163
1017.000000	48.616667
1016.000000	48.839148
1015.000000	49.051150
1014.000000	49.235714
1013.000000	49.390182
1012.000000	49.511954
1011.000000	49.597224
1010.000000	49.656615
1009.000000	49.714381
1008.000000	49.788239
1007.000000	49.884048
1006.000000	50.009011
1005.000000	50.171516
1004.000000	50.364983
1003.000000	50.567598
1002.000000	50.761266
1001.000000	50.937143
1000.000000	51.083549
999.000000	51.187348
998.000000	51.251458
997.000000	51.295397
996.000000	51.336123
995.000000	51.383332
994.000000	51.452377
993.000000	51.562087
992.000000	51.715249
991.000000	51.895992
990.000000	52.087825
989.000000	52.279577
988.000000	52.453060
987.000000	52.585069
986.000000	52.667355
985.000000	52.710886
984.000000	52.728835
983.000000	52.731489
982.000000	52.738850
981.000000	52.778030
980.000000	52.862799
979.000000	52.988641
978.000000	53.148112
977.000000	53.333455
976.000000	53.523206
975.000000	53.684978
974.000000	53.798644
973.000000	53.863047
972.000000	53.881281
971.000000	53.857767
970.000000	53.812114
969.000000	53.776966
968.000000	53.776378
967.000000	53.819250
966.000000	53.911698
965.000000	54.057138
964.000000	54.240252
963.000000	54.428478
962.000000	54.593539
961.000000	54.719653
960.000000	54.791767
959.000000	54.797756
958.000000	54.746212
957.000000	54.666257
956.000000	54.586324
955.000000	54.527032
954.000000	54.512142
953.000000	54.563991
952.000000	54.682827
951.000000	54.844988
950.000000	55.023915
949.000000	55.196990
948.000000	55.334623
947.000000	55.405175
946.000000	55.398752
945.000000	55.329982
944.000000	55.218492
943.000000	55.083494
942.000000	54.956326
941.000000	54.875351
940.000000	54.861633
939.000000	54.912828
938.000000	55.018712
937.000000	55.164815
936.000000	55.319790
935.000000	55.440979
934.000000	55.499114
933.000000	55.485599
932.000000	55.397435
931.000000	55.238156
930.000000	55.033863
929.000000	54.828262
928.000000	54.655738
927.000000	54.532428
926.000000	54.470081
925.000000	54.475231
924.000000	54.530885
923.000000	54.597228
922.000000	54.636172
921.000000	54.622137
920.000000	54.531451
919.000000	54.345299
918.000000	54.069935
917.000000	53.735211
916.000000	53.372814
915.000000	53.008375
914.000000	52.671224
913.000000	52.388739
912.000000	52.164517
911.000000	51.977322
910.000000	51.800696
909.000000	51.609202
908.000000	51.368660
907.000000	51.041652
906.000000	50.611450
905.000000	50.086148
904.000000	49.480364
903.000000	48.811942
902.000000	48.111238
901.000000	47.415084
900.000000	46.744220
899.000000	46.098071
898.000000	45.469798
897.000000	44.848056
896.000000	44.206271
895.000000	43.507221
894.000000	42.723581
893.000000	41.846597
892.000000	40.874752
891.000000	39.812574
890.000000	38.679992
889.000000	37.506824
888.000000	36.317511
887.000000	35.125531
886.000000	33.940267
885.000000	32.766491
884.000000	31.596344
883.000000	30.412250
882.000000	29.198545
881.000000	27.946865
880.000000	26.653630
879.000000	25.321240
878.000000	23.962559
877.000000	22.599488
876.000000	21.256647
875.000000	19.955894
874.000000	18.715039
873.000000	17.545460
872.000000	16.452926
871.000000	15.439511
870.000000	14.501654
869.000000	13.633182
868.000000	12.827482
867.000000	12.079558
866.000000	11.385818
865.000000	10.742703
864.000000	10.150991
863.000000	9.613044
862.000000	9.128178
861.000000	8.694002
860.000000	8.308774
859.000000	7.971390
858.000000	7.675840
857.000000	7.412575
856.000000	7.176105
855.000000	6.964343
854.000000	6.774413
853.000000	6.602578
852.000000	6.449154
851.000000	6.318657
850.000000	6.213176
849.000000	6.132946
848.000000	6.081235
847.000000	6.062992
846.000000	6.079712
845.000000	6.129050
844.000000	6.211604
843.000000	6.331222
842.000000	6.488190
841.000000	6.679517
840.000000	6.904285
839.000000	7.166136
838.000000	7.468615
837.000000	7.813010
836.000000	8.203488
835.000000	8.646611
834.000000	9.144500
833.000000	9.686359
832.000000	10.238742
831.000000	10.711345
830.000000	10.921170
829.000000	10.614108
828.000000	9.607749
827.000000	7.990184
826.000000	6.170026
825.000000	4.675562
824.000000	3.852487
823.000000	3.728732
822.000000	4.126264
821.000000	4.850229
820.000000	5.762766
819.000000	6.757899
818.000000	7.751868
817.000000	8.699377
816.000000	9.596276
815.000000	10.447151
814.000000	11.250208
813.000000	12.006906
812.000000	12.724041
811.000000	13.402818
810.000000	14.041333
809.000000	14.647530
808.000000	15.235178
807.000000	15.811487
806.000000	16.379709
805.000000	16.950145
804.000000	17.532978
803.000000	18.122115
802.000000	18.700644
801.000000	19.258728
800.000000	19.794948
799.000000	20.305961
798.000000	20.789543
797.000000	21.255218
796.000000	21.719040
795.000000	22.191699
794.000000	22.680591
793.000000	23.195820
792.000000	23.741944
791.000000	24.309160
790.000000	24.882581
789.000000	25.453645
788.000000	26.013952
787.000000	26.547768
786.000000	27.043100
785.000000	27.503044
784.000000	27.937569
783.000000	28.353525
782.000000	28.762005
781.000000	29.183671
780.000000	29.634877
779.000000	30.115794
778.000000	30.619452
777.000000	31.141312
776.000000	31.670424
775.000000	32.182995
774.000000	32.657467
773.000000	33.087805
772.000000	33.474636
771.000000	33.817032
770.000000	34.123127
769.000000	34.416701
768.000000	34.720949
767.000000	35.045274
766.000000	35.394023
765.000000	35.773741
764.000000	36.181104
763.000000	36.595597
762.000000	36.995208
761.000000	37.369378
760.000000	37.709583
759.000000	38.003546
758.000000	38.250395
757.000000	38.468683
756.000000	38.679878
755.000000	38.895920
754.000000	39.129506
753.000000	39.398802
752.000000	39.710816
751.000000	40.052933
750.000000	40.409452
749.000000	40.772254
748.000000	41.127724
747.000000	41.451674
746.000000	41.729905
745.000000	41.969874
744.000000	42.183667
743.000000	42.376371
742.000000	42.559308
741.000000	42.755314
740.000000	42.978108
739.000000	43.221161
738.000000	43.475245
737.000000	43.738982
736.000000	44.002440
735.000000	44.239204
734.000000	44.428376
733.000000	44.569269
732.000000	44.665736
731.000000	44.715877
730.000000	44.728123
729.000000	44.728353
728.000000	44.738516
727.000000	44.764023
726.000000	44.810088
725.000000	44.890876
724.000000	45.011102
723.000000	45.156464
722.000000	45.313868
721.000000	45.484431
720.000000	45.667123
719.000000	45.850914
718.000000	46.035603
717.000000	46.240847
716.000000	46.482610
715.000000	46.759563
714.000000	47.071208
713.000000	47.426250
712.000000	47.820229
711.000000	48.225530
710.000000	48.617080
709.000000	48.987946
708.000000	49.331102
707.000000	49.630968
706.000000	49.887050
705.000000	50.123182
704.000000	50.360211
703.000000	50.600382
702.000000	50.848521
701.000000	51.122719
700.000000	51.429738
699.000000	51.752877
698.000000	52.075521
697.000000	52.393655
696.000000	52.694008
695.000000	52.948375
694.000000	53.144986
693.000000	53.301797
692.000000	53.437347
691.000000	53.556768
690.000000	53.678180
689.000000	53.841021
688.000000	54.067648
687.000000	54.341719
686.000000	54.641501
685.000000	54.962684
684.000000	55.291908
683.000000	55.592537
682.000000	55.838927
681.000000	56.036266
680.000000	56.193280
679.000000	56.307238
678.000000	56.393395
677.000000	56.492696
676.000000	56.636697
675.000000	56.826287
674.000000	57.061318
673.000000	57.354973
672.000000	57.699511
671.000000	58.061218
670.000000	58.428717
669.000000	58.816037
668.000000	59.154350
667.000000	59.311567
666.000000	59.314708
665.000000	59.287107
664.000000	59.293682
663.000000	59.352684
662.000000	59.474192
661.000000	59.670271
660.000000	59.942293
659.000000	60.270523
658.000000	60.627961
657.000000	60.989066
656.000000	61.321815
655.000000	61.586896
654.000000	61.767012
653.000000	61.879576
652.000000	61.948183
651.000000	61.987544
650.000000	62.024293
649.000000	62.100444
648.000000	62.240508
647.000000	62.440208
646.000000	62.694750
645.000000	63.009280
644.000000	63.366140
643.000000	63.712774
642.000000	64.002969
641.000000	64.225935
640.000000	64.380688
639.000000	64.459058
638.000000	64.474318
637.000000	64.473537
636.000000	64.502249
635.000000	64.581755
634.000000	64.729563
633.000000	64.965345
632.000000	65.281283
631.000000	65.634650
630.000000	65.985218
629.000000	66.313053
628.000000	66.592322
627.000000	66.787503
626.000000	66.895194
625.000000	66.952965
624.000000	66.989621
623.000000	67.006974
622.000000	67.023366
621.000000	67.088562
620.000000	67.234491
619.000000	67.450896
618.000000	67.721590
617.000000	68.043348
616.000000	68.387723
615.000000	68.688912
614.000000	68.895596
613.000000	69.000649
612.000000	69.002960
611.000000	68.888386
610.000000	68.663965
609.000000	68.362535
608.000000	67.993522
607.000000	67.510480
606.000000	66.837461
605.000000	65.861112
604.000000	64.366641
603.000000	62.036856
602.000000	58.523292
601.000000	53.591681
600.000000	47.315550
599.000000	40.261762
598.000000	33.430949
597.000000	27.870826
596.000000	24.283532
595.000000	22.871576
594.000000	23.396233
593.000000	25.353739
592.000000	28.212185
591.000000	31.508045
590.000000	34.867059
589.000000	38.073166
588.000000	41.054573
587.000000	43.804637
586.000000	46.321225
585.000000	48.603076
584.000000	50.641768
583.000000	52.427684
582.000000	53.984507
581.000000	55.376115
580.000000	56.648297
579.000000	57.787240
578.000000	58.787330
577.000000	59.698241
576.000000	60.565835
575.000000	61.374413
574.000000	62.090035
573.000000	62.724376
572.000000	63.298871
571.000000	63.801430
570.000000	64.229153
569.000000	64.621651
568.000000	65.008103
567.000000	65.367205
566.000000	65.679020
565.000000	65.971479
564.000000	66.272135
563.000000	66.569228
562.000000	66.855644
561.000000	67.158507
560.000000	67.487834
559.000000	67.805865
558.000000	68.086172
557.000000	68.349128
556.000000	68.605707
555.000000	68.822778
554.000000	68.982878
553.000000	69.120122
552.000000	69.261281
551.000000	69.388358
550.000000	69.495813
549.000000	69.622933
548.000000	69.794318
547.000000	69.989831
546.000000	70.202989
545.000000	70.462046
544.000000	70.758081
543.000000	71.025193
542.000000	71.225975
541.000000	71.392170
540.000000	71.545852
539.000000	71.655262
538.000000	71.707761
537.000000	71.754401
536.000000	71.837098
535.000000	71.938843
534.000000	72.047954
533.000000	72.201619
532.000000	72.417000
531.000000	72.643771
530.000000	72.833366
529.000000	72.990733
528.000000	73.118064
527.000000	73.180942
526.000000	73.174532
525.000000	73.140401
524.000000	73.075390
523.000000	72.904980
522.000000	72.581420
521.000000	72.125342
520.000000	71.546994
519.000000	70.807027
518.000000	69.908714
517.000000	68.964775
516.000000	68.113515
515.000000	67.439450
514.000000	67.001003
513.000000	66.845179
512.000000	66.930974
511.000000	67.101169
510.000000	67.183173
509.000000	67.076566
508.000000	66.699837
507.000000	65.945225
506.000000	64.745271
505.000000	63.104937
504.000000	61.045588
503.000000	58.657710
502.000000	56.275125
501.000000	54.399826
500.000000	53.359703
499.000000	53.160560
498.000000	53.643495
497.000000	54.596275
496.000000	55.749474
495.000000	56.827604
494.000000	57.670811
493.000000	58.299100
492.000000	58.823490
491.000000	59.355964
490.000000	60.005195
489.000000	60.859324
488.000000	61.907923
487.000000	63.038277
486.000000	64.147517
485.000000	65.212267
484.000000	66.219952
483.000000	67.110268
482.000000	67.853417
481.000000	68.503391
480.000000	69.108250
479.000000	69.655385
478.000000	70.147416
477.000000	70.641594
476.000000	71.156266
475.000000	71.627852
474.000000	72.033492
473.000000	72.466639
472.000000	72.975480
471.000000	73.424409
470.000000	73.681422
469.000000	73.786741
468.000000	73.827930
467.000000	73.808632
466.000000	73.712602
465.000000	73.599919
464.000000	73.533689
463.000000	73.508871
462.000000	73.529933
461.000000	73.652611
460.000000	73.872134
459.000000	74.070209
458.000000	74.172765
457.000000	74.226181
456.000000	74.221115
455.000000	74.050406
454.000000	73.680990
453.000000	73.222191
452.000000	72.794331
451.000000	72.383726
450.000000	71.924954
449.000000	71.431382
448.000000	70.927612
447.000000	70.330927
446.000000	69.506330
445.000000	68.350264
444.000000	66.723683
443.000000	64.445976
442.000000	61.472691
441.000000	57.991470
440.000000	54.247366
439.000000	50.423994
438.000000	46.733961
437.000000	43.542190
436.000000	41.274288
435.000000	40.169595
434.000000	40.167072
433.000000	41.074071
432.000000	42.753863
431.000000	45.018776
430.000000	47.585274
429.000000	50.242621
428.000000	52.878966
427.000000	55.344930
426.000000	57.508876
425.000000	59.431648
424.000000	61.228732
423.000000	62.838951
422.000000	64.166073
421.000000	65.354855
420.000000	66.663971
419.000000	68.213614
418.000000	69.771331
417.000000	71.040584
416.000000	72.028699
415.000000	72.719828
414.000000	73.034271
413.000000	73.117378
412.000000	73.162943
411.000000	73.121235
410.000000	72.950473
409.000000	72.912824
408.000000	73.230409
407.000000	73.762161
406.000000	74.265966
405.000000	74.842600
404.000000	75.554952
403.000000	76.065642
402.000000	76.054391
401.000000	75.692912
400.000000	75.260019
