PE IR       SUBTECH     SPECTRUM    ASCII       PEDS        4.00        
   -1
23ms148_nitro.asc
24/09/06
16:19:45.00
24/09/06
16:19:45.00
Administrator
Sample 1127 By Administrator Date Friday, September 06 2024
400.000000
#HDR
-1
-1
#GR
cm-1
%T
1.0
0.0
4000.000000
-1.000000
3601
8
98.399435
55.697018
#DATA
4000.000000	93.142879
3999.000000	93.143124
3998.000000	93.146479
3997.000000	93.153107
3996.000000	93.162698
3995.000000	93.174126
3994.000000	93.185277
3993.000000	93.194586
3992.000000	93.202942
3991.000000	93.212778
3990.000000	93.224236
3989.000000	93.233882
3988.000000	93.238669
3987.000000	93.239745
3986.000000	93.241170
3985.000000	93.245602
3984.000000	93.252815
3983.000000	93.261292
3982.000000	93.269599
3981.000000	93.276549
3980.000000	93.281218
3979.000000	93.283951
3978.000000	93.287408
3977.000000	93.294809
3976.000000	93.306753
3975.000000	93.320188
3974.000000	93.331381
3973.000000	93.338984
3972.000000	93.343743
3971.000000	93.347650
3970.000000	93.352693
3969.000000	93.359279
3968.000000	93.365619
3967.000000	93.369194
3966.000000	93.368516
3965.000000	93.364889
3964.000000	93.362315
3963.000000	93.364607
3962.000000	93.372858
3961.000000	93.384193
3960.000000	93.393614
3959.000000	93.400127
3958.000000	93.407548
3957.000000	93.418785
3956.000000	93.431420
3955.000000	93.440539
3954.000000	93.443329
3953.000000	93.439549
3952.000000	93.430078
3951.000000	93.417015
3950.000000	93.403511
3949.000000	93.391694
3948.000000	93.382905
3947.000000	93.376857
3946.000000	93.371854
3945.000000	93.371022
3944.000000	93.385048
3943.000000	93.419236
3942.000000	93.461084
3941.000000	93.490340
3940.000000	93.499296
3939.000000	93.500004
3938.000000	93.507032
3937.000000	93.517912
3936.000000	93.515704
3935.000000	93.491610
3934.000000	93.460956
3933.000000	93.448022
3932.000000	93.459747
3931.000000	93.481070
3930.000000	93.494359
3929.000000	93.497724
3928.000000	93.498618
3927.000000	93.503722
3926.000000	93.519903
3925.000000	93.549808
3924.000000	93.578645
3923.000000	93.581742
3922.000000	93.552379
3921.000000	93.511630
3920.000000	93.484836
3919.000000	93.477547
3918.000000	93.482498
3917.000000	93.499009
3916.000000	93.528138
3915.000000	93.559568
3914.000000	93.581775
3913.000000	93.600050
3912.000000	93.625005
3911.000000	93.656747
3910.000000	93.682336
3909.000000	93.692277
3908.000000	93.686067
3907.000000	93.664530
3906.000000	93.625814
3905.000000	93.572969
3904.000000	93.514286
3903.000000	93.456601
3902.000000	93.406473
3901.000000	93.378600
3900.000000	93.393262
3899.000000	93.449566
3898.000000	93.515292
3897.000000	93.561297
3896.000000	93.585569
3895.000000	93.605371
3894.000000	93.629786
3893.000000	93.654699
3892.000000	93.673163
3891.000000	93.690337
3890.000000	93.702362
3889.000000	93.683065
3888.000000	93.618260
3887.000000	93.549518
3886.000000	93.541988
3885.000000	93.596539
3884.000000	93.637333
3883.000000	93.613995
3882.000000	93.563171
3881.000000	93.555452
3880.000000	93.606312
3879.000000	93.665766
3878.000000	93.681421
3877.000000	93.649030
3876.000000	93.614253
3875.000000	93.633899
3874.000000	93.708717
3873.000000	93.763871
3872.000000	93.730299
3871.000000	93.640751
3870.000000	93.597288
3869.000000	93.631197
3868.000000	93.662138
3867.000000	93.623835
3866.000000	93.560603
3865.000000	93.560252
3864.000000	93.624655
3863.000000	93.680183
3862.000000	93.687430
3861.000000	93.675926
3860.000000	93.687874
3859.000000	93.749399
3858.000000	93.860488
3857.000000	93.985242
3856.000000	94.049279
3855.000000	94.001438
3854.000000	93.890797
3853.000000	93.803930
3852.000000	93.753271
3851.000000	93.710425
3850.000000	93.675626
3849.000000	93.675097
3848.000000	93.712867
3847.000000	93.763315
3846.000000	93.802247
3845.000000	93.823604
3844.000000	93.831003
3843.000000	93.834294
3842.000000	93.833546
3841.000000	93.823213
3840.000000	93.805104
3839.000000	93.788772
3838.000000	93.777820
3837.000000	93.773929
3836.000000	93.777615
3835.000000	93.785335
3834.000000	93.791632
3833.000000	93.801836
3832.000000	93.829252
3831.000000	93.871977
3830.000000	93.908320
3829.000000	93.921879
3828.000000	93.920171
3827.000000	93.933933
3826.000000	93.976366
3825.000000	94.012086
3824.000000	93.985860
3823.000000	93.901218
3822.000000	93.842923
3821.000000	93.879686
3820.000000	93.963045
3819.000000	93.993287
3818.000000	93.942172
3817.000000	93.879649
3816.000000	93.895160
3815.000000	93.979357
3814.000000	94.042917
3813.000000	94.046143
3812.000000	94.036074
3811.000000	94.061856
3810.000000	94.109906
3809.000000	94.129494
3808.000000	94.111111
3807.000000	94.103163
3806.000000	94.129806
3805.000000	94.147704
3804.000000	94.109940
3803.000000	94.044435
3802.000000	94.027392
3801.000000	94.074837
3800.000000	94.110376
3799.000000	94.078073
3798.000000	94.015786
3797.000000	93.999281
3796.000000	94.054680
3795.000000	94.136393
3794.000000	94.192547
3793.000000	94.220333
3792.000000	94.249752
3791.000000	94.294081
3790.000000	94.338352
3789.000000	94.364134
3788.000000	94.369987
3787.000000	94.365112
3786.000000	94.358850
3785.000000	94.356601
3784.000000	94.354974
3783.000000	94.339172
3782.000000	94.300780
3781.000000	94.260439
3780.000000	94.252025
3779.000000	94.281232
3778.000000	94.315675
3777.000000	94.325648
3776.000000	94.315647
3775.000000	94.315361
3774.000000	94.337270
3773.000000	94.357147
3772.000000	94.348307
3771.000000	94.326300
3770.000000	94.323196
3769.000000	94.334023
3768.000000	94.327285
3767.000000	94.298362
3766.000000	94.281348
3765.000000	94.302641
3764.000000	94.337811
3763.000000	94.336392
3762.000000	94.287048
3761.000000	94.238850
3760.000000	94.233770
3759.000000	94.252179
3758.000000	94.259182
3757.000000	94.261410
3756.000000	94.274155
3755.000000	94.285042
3754.000000	94.277337
3753.000000	94.261142
3752.000000	94.247646
3751.000000	94.212317
3750.000000	94.147792
3749.000000	94.107567
3748.000000	94.113296
3747.000000	94.109251
3746.000000	94.057849
3745.000000	94.016535
3744.000000	94.051844
3743.000000	94.115602
3742.000000	94.122634
3741.000000	94.084516
3740.000000	94.064698
3739.000000	94.074892
3738.000000	94.077169
3737.000000	94.068404
3736.000000	94.094001
3735.000000	94.153873
3734.000000	94.187950
3733.000000	94.180861
3732.000000	94.183357
3731.000000	94.225853
3730.000000	94.278997
3729.000000	94.300607
3728.000000	94.296137
3727.000000	94.309194
3726.000000	94.354781
3725.000000	94.394268
3724.000000	94.400409
3723.000000	94.396839
3722.000000	94.413147
3721.000000	94.449361
3720.000000	94.486347
3719.000000	94.511963
3718.000000	94.532515
3717.000000	94.558331
3716.000000	94.577931
3715.000000	94.567890
3714.000000	94.526379
3713.000000	94.483014
3712.000000	94.463271
3711.000000	94.456888
3710.000000	94.446598
3709.000000	94.438342
3708.000000	94.446992
3707.000000	94.479164
3706.000000	94.525337
3705.000000	94.568461
3704.000000	94.602010
3703.000000	94.636280
3702.000000	94.680122
3701.000000	94.724325
3700.000000	94.751083
3699.000000	94.750430
3698.000000	94.734201
3697.000000	94.729612
3696.000000	94.742165
3695.000000	94.743026
3694.000000	94.710661
3693.000000	94.665046
3692.000000	94.639758
3691.000000	94.637570
3690.000000	94.631571
3689.000000	94.611268
3688.000000	94.600973
3687.000000	94.616220
3686.000000	94.638301
3685.000000	94.653599
3684.000000	94.671188
3683.000000	94.693527
3682.000000	94.705199
3681.000000	94.698490
3680.000000	94.692283
3679.000000	94.684694
3678.000000	94.630247
3677.000000	94.519793
3676.000000	94.438428
3675.000000	94.445217
3674.000000	94.476188
3673.000000	94.444483
3672.000000	94.353493
3671.000000	94.304209
3670.000000	94.368866
3669.000000	94.483088
3668.000000	94.552403
3667.000000	94.572112
3666.000000	94.585508
3665.000000	94.621883
3664.000000	94.675721
3663.000000	94.723796
3662.000000	94.754974
3661.000000	94.773302
3660.000000	94.780034
3659.000000	94.762069
3658.000000	94.713904
3657.000000	94.658126
3656.000000	94.623309
3655.000000	94.599855
3654.000000	94.546446
3653.000000	94.441843
3652.000000	94.320572
3651.000000	94.243730
3650.000000	94.224593
3649.000000	94.212246
3648.000000	94.190933
3647.000000	94.199424
3646.000000	94.246636
3645.000000	94.304399
3644.000000	94.355556
3643.000000	94.407429
3642.000000	94.465851
3641.000000	94.515200
3640.000000	94.535189
3639.000000	94.530018
3638.000000	94.518902
3637.000000	94.505095
3636.000000	94.478748
3635.000000	94.448661
3634.000000	94.439693
3633.000000	94.445655
3632.000000	94.417363
3631.000000	94.323080
3630.000000	94.212364
3629.000000	94.164624
3628.000000	94.168566
3627.000000	94.164008
3626.000000	94.138960
3625.000000	94.124168
3624.000000	94.143249
3623.000000	94.183464
3622.000000	94.209560
3621.000000	94.207466
3620.000000	94.192470
3619.000000	94.172280
3618.000000	94.135703
3617.000000	94.077890
3616.000000	94.009014
3615.000000	93.953447
3614.000000	93.934023
3613.000000	93.942452
3612.000000	93.941981
3611.000000	93.909160
3610.000000	93.865688
3609.000000	93.861440
3608.000000	93.913871
3607.000000	93.986022
3606.000000	94.035459
3605.000000	94.053439
3604.000000	94.056814
3603.000000	94.060563
3602.000000	94.064756
3601.000000	94.063004
3600.000000	94.049526
3599.000000	94.017981
3598.000000	93.973374
3597.000000	93.932341
3596.000000	93.910560
3595.000000	93.911449
3594.000000	93.923703
3593.000000	93.927685
3592.000000	93.908368
3591.000000	93.859943
3590.000000	93.794639
3589.000000	93.747337
3588.000000	93.745558
3587.000000	93.771530
3586.000000	93.787664
3585.000000	93.784888
3584.000000	93.780487
3583.000000	93.790812
3582.000000	93.817587
3581.000000	93.850189
3580.000000	93.876355
3579.000000	93.889365
3578.000000	93.890319
3577.000000	93.884642
3576.000000	93.876395
3575.000000	93.865818
3574.000000	93.850660
3573.000000	93.826569
3572.000000	93.787818
3571.000000	93.727788
3570.000000	93.645466
3569.000000	93.562870
3568.000000	93.517538
3567.000000	93.519293
3566.000000	93.535591
3565.000000	93.538204
3564.000000	93.529852
3563.000000	93.529801
3562.000000	93.550165
3561.000000	93.585424
3560.000000	93.619903
3559.000000	93.642055
3558.000000	93.650866
3557.000000	93.651773
3556.000000	93.649996
3555.000000	93.648522
3554.000000	93.649826
3553.000000	93.653740
3552.000000	93.651804
3551.000000	93.630028
3550.000000	93.580284
3549.000000	93.512512
3548.000000	93.451995
3547.000000	93.420259
3546.000000	93.417271
3545.000000	93.427141
3544.000000	93.437592
3543.000000	93.448244
3542.000000	93.463254
3541.000000	93.483079
3540.000000	93.504186
3539.000000	93.522472
3538.000000	93.536692
3537.000000	93.546509
3536.000000	93.547637
3535.000000	93.533192
3534.000000	93.500887
3533.000000	93.458242
3532.000000	93.417321
3531.000000	93.385131
3530.000000	93.360011
3529.000000	93.337791
3528.000000	93.317742
3527.000000	93.301407
3526.000000	93.291485
3525.000000	93.293625
3524.000000	93.312284
3523.000000	93.340859
3522.000000	93.363132
3521.000000	93.368511
3520.000000	93.361833
3519.000000	93.354449
3518.000000	93.350457
3517.000000	93.345046
3516.000000	93.333837
3515.000000	93.318881
3514.000000	93.303388
3513.000000	93.286228
3512.000000	93.266258
3511.000000	93.247325
3510.000000	93.233354
3509.000000	93.221679
3508.000000	93.205096
3507.000000	93.180607
3506.000000	93.154740
3505.000000	93.140218
3504.000000	93.144588
3503.000000	93.161428
3502.000000	93.175617
3501.000000	93.177371
3500.000000	93.169053
3499.000000	93.158502
3498.000000	93.150102
3497.000000	93.141646
3496.000000	93.127716
3495.000000	93.105263
3494.000000	93.076599
3493.000000	93.047604
3492.000000	93.024159
3491.000000	93.009773
3490.000000	93.005125
3489.000000	93.009442
3488.000000	93.020646
3487.000000	93.033175
3486.000000	93.038964
3485.000000	93.032875
3484.000000	93.016370
3483.000000	92.994944
3482.000000	92.971625
3481.000000	92.945259
3480.000000	92.914304
3479.000000	92.880511
3478.000000	92.849044
3477.000000	92.826362
3476.000000	92.816815
3475.000000	92.818865
3474.000000	92.826014
3473.000000	92.832272
3472.000000	92.835925
3471.000000	92.837902
3470.000000	92.837450
3469.000000	92.831219
3468.000000	92.816174
3467.000000	92.791295
3466.000000	92.757427
3465.000000	92.717824
3464.000000	92.678854
3463.000000	92.647466
3462.000000	92.626342
3461.000000	92.612969
3460.000000	92.603230
3459.000000	92.594616
3458.000000	92.586106
3457.000000	92.576328
3456.000000	92.563901
3455.000000	92.548163
3454.000000	92.528662
3453.000000	92.505554
3452.000000	92.479845
3451.000000	92.452903
3450.000000	92.426610
3449.000000	92.404371
3448.000000	92.389591
3447.000000	92.380081
3446.000000	92.367217
3445.000000	92.344614
3444.000000	92.315105
3443.000000	92.286113
3442.000000	92.259815
3441.000000	92.231904
3440.000000	92.200473
3439.000000	92.171213
3438.000000	92.151234
3437.000000	92.141024
3436.000000	92.135740
3435.000000	92.131032
3434.000000	92.124343
3433.000000	92.113628
3432.000000	92.096839
3431.000000	92.072539
3430.000000	92.039499
3429.000000	91.996637
3428.000000	91.945040
3427.000000	91.888650
3426.000000	91.832429
3425.000000	91.780246
3424.000000	91.735144
3423.000000	91.700338
3422.000000	91.677812
3421.000000	91.665520
3420.000000	91.657266
3419.000000	91.646062
3418.000000	91.627177
3417.000000	91.599004
3416.000000	91.562196
3415.000000	91.518049
3414.000000	91.467282
3413.000000	91.410576
3412.000000	91.350295
3411.000000	91.290958
3410.000000	91.237154
3409.000000	91.190896
3408.000000	91.150871
3407.000000	91.113673
3406.000000	91.076055
3405.000000	91.036343
3404.000000	90.994168
3403.000000	90.949029
3402.000000	90.898792
3401.000000	90.840301
3400.000000	90.771809
3399.000000	90.695191
3398.000000	90.615237
3397.000000	90.536460
3396.000000	90.461182
3395.000000	90.390669
3394.000000	90.326029
3393.000000	90.266184
3392.000000	90.205391
3391.000000	90.135114
3390.000000	90.050185
3389.000000	89.952454
3388.000000	89.848028
3387.000000	89.741871
3386.000000	89.635739
3385.000000	89.530105
3384.000000	89.425694
3383.000000	89.323367
3382.000000	89.223528
3381.000000	89.125840
3380.000000	89.028279
3379.000000	88.926707
3378.000000	88.816625
3377.000000	88.695635
3376.000000	88.563660
3375.000000	88.421587
3374.000000	88.271254
3373.000000	88.116634
3372.000000	87.963229
3371.000000	87.814625
3370.000000	87.670667
3369.000000	87.528788
3368.000000	87.386234
3367.000000	87.240423
3366.000000	87.088218
3365.000000	86.926581
3364.000000	86.753751
3363.000000	86.569566
3362.000000	86.375222
3361.000000	86.172678
3360.000000	85.963965
3359.000000	85.750886
3358.000000	85.535494
3357.000000	85.320597
3356.000000	85.107978
3355.000000	84.896738
3354.000000	84.684531
3353.000000	84.469955
3352.000000	84.252158
3351.000000	84.028084
3350.000000	83.792557
3349.000000	83.542170
3348.000000	83.278146
3347.000000	83.005118
3346.000000	82.727943
3345.000000	82.450351
3344.000000	82.174395
3343.000000	81.899935
3342.000000	81.625466
3341.000000	81.349686
3340.000000	81.071796
3339.000000	80.790278
3338.000000	80.502291
3337.000000	80.205113
3336.000000	79.897336
3335.000000	79.578990
3334.000000	79.251711
3333.000000	78.918571
3332.000000	78.582760
3331.000000	78.245851
3330.000000	77.908018
3329.000000	77.569829
3328.000000	77.232237
3327.000000	76.895048
3326.000000	76.556412
3325.000000	76.213902
3324.000000	75.865106
3323.000000	75.507945
3322.000000	75.142034
3321.000000	74.769511
3320.000000	74.393332
3319.000000	74.015392
3318.000000	73.636956
3317.000000	73.260188
3316.000000	72.887167
3315.000000	72.517963
3314.000000	72.151093
3313.000000	71.785220
3312.000000	71.419288
3311.000000	71.052148
3310.000000	70.683931
3309.000000	70.316929
3308.000000	69.953904
3307.000000	69.596502
3306.000000	69.246594
3305.000000	68.907451
3304.000000	68.580837
3303.000000	68.265010
3302.000000	67.957368
3301.000000	67.657644
3300.000000	67.366757
3299.000000	67.084123
3298.000000	66.809069
3297.000000	66.543299
3296.000000	66.288732
3295.000000	66.045327
3294.000000	65.813227
3293.000000	65.595827
3292.000000	65.397658
3291.000000	65.219327
3290.000000	65.058581
3289.000000	64.913601
3288.000000	64.783350
3287.000000	64.665838
3286.000000	64.558652
3285.000000	64.461502
3284.000000	64.374366
3283.000000	64.295164
3282.000000	64.221793
3281.000000	64.154617
3280.000000	64.095249
3279.000000	64.043831
3278.000000	64.000441
3277.000000	63.967675
3276.000000	63.947984
3275.000000	63.939937
3274.000000	63.939783
3273.000000	63.945915
3272.000000	63.959294
3271.000000	63.979704
3270.000000	64.004725
3269.000000	64.031762
3268.000000	64.058841
3267.000000	64.084568
3266.000000	64.109251
3265.000000	64.135650
3264.000000	64.166370
3263.000000	64.201426
3262.000000	64.240161
3261.000000	64.283044
3260.000000	64.330068
3259.000000	64.379090
3258.000000	64.428174
3257.000000	64.478573
3256.000000	64.532532
3255.000000	64.589437
3254.000000	64.646478
3253.000000	64.702150
3252.000000	64.756734
3251.000000	64.810568
3250.000000	64.864245
3249.000000	64.919815
3248.000000	64.979504
3247.000000	65.043429
3246.000000	65.109855
3245.000000	65.176778
3244.000000	65.242107
3243.000000	65.304089
3242.000000	65.363298
3241.000000	65.422609
3240.000000	65.483880
3239.000000	65.545876
3238.000000	65.606869
3237.000000	65.667539
3236.000000	65.729867
3235.000000	65.794712
3234.000000	65.862141
3233.000000	65.932179
3232.000000	66.002915
3231.000000	66.070008
3230.000000	66.130279
3229.000000	66.184423
3228.000000	66.234830
3227.000000	66.282342
3226.000000	66.327130
3225.000000	66.370959
3224.000000	66.415655
3223.000000	66.461042
3222.000000	66.506545
3221.000000	66.553188
3220.000000	66.601628
3219.000000	66.649415
3218.000000	66.692909
3217.000000	66.730943
3216.000000	66.764613
3215.000000	66.794447
3214.000000	66.819673
3213.000000	66.840144
3212.000000	66.856960
3211.000000	66.871514
3210.000000	66.885258
3209.000000	66.899399
3208.000000	66.913960
3207.000000	66.927692
3206.000000	66.939831
3205.000000	66.950771
3204.000000	66.960053
3203.000000	66.965507
3202.000000	66.965669
3201.000000	66.961271
3200.000000	66.953539
3199.000000	66.942295
3198.000000	66.927249
3197.000000	66.909377
3196.000000	66.889559
3195.000000	66.867513
3194.000000	66.843053
3193.000000	66.816994
3192.000000	66.789568
3191.000000	66.759571
3190.000000	66.726516
3189.000000	66.691767
3188.000000	66.656411
3187.000000	66.620048
3186.000000	66.582933
3185.000000	66.546980
3184.000000	66.513436
3183.000000	66.481435
3182.000000	66.450303
3181.000000	66.421353
3180.000000	66.395575
3179.000000	66.371624
3178.000000	66.347698
3177.000000	66.323685
3176.000000	66.300246
3175.000000	66.277536
3174.000000	66.256473
3173.000000	66.239250
3172.000000	66.226996
3171.000000	66.219117
3170.000000	66.215897
3169.000000	66.219523
3168.000000	66.231073
3167.000000	66.248574
3166.000000	66.269862
3165.000000	66.294676
3164.000000	66.322773
3163.000000	66.352427
3162.000000	66.382472
3161.000000	66.413948
3160.000000	66.447840
3159.000000	66.483367
3158.000000	66.520235
3157.000000	66.560245
3156.000000	66.605400
3155.000000	66.656478
3154.000000	66.714709
3153.000000	66.782165
3152.000000	66.858204
3151.000000	66.938277
3150.000000	67.018158
3149.000000	67.097374
3148.000000	67.177117
3147.000000	67.257222
3146.000000	67.337435
3145.000000	67.419242
3144.000000	67.504064
3143.000000	67.591628
3142.000000	67.681997
3141.000000	67.777374
3140.000000	67.879440
3139.000000	67.986516
3138.000000	68.095315
3137.000000	68.203918
3136.000000	68.311758
3135.000000	68.418640
3134.000000	68.525238
3133.000000	68.633299
3132.000000	68.743732
3131.000000	68.856387
3130.000000	68.972281
3129.000000	69.093680
3128.000000	69.220657
3127.000000	69.349719
3126.000000	69.477287
3125.000000	69.602763
3124.000000	69.726928
3123.000000	69.849558
3122.000000	69.970569
3121.000000	70.091383
3120.000000	70.213219
3119.000000	70.336057
3118.000000	70.460754
3117.000000	70.590006
3116.000000	70.725273
3115.000000	70.864575
3114.000000	71.004708
3113.000000	71.144390
3112.000000	71.283841
3111.000000	71.423340
3110.000000	71.563295
3109.000000	71.704033
3108.000000	71.844135
3107.000000	71.980765
3106.000000	72.112844
3105.000000	72.242495
3104.000000	72.372758
3103.000000	72.505220
3102.000000	72.641079
3101.000000	72.781574
3100.000000	72.926097
3099.000000	73.071766
3098.000000	73.216587
3097.000000	73.360886
3096.000000	73.504463
3095.000000	73.644686
3094.000000	73.779434
3093.000000	73.910318
3092.000000	74.041000
3091.000000	74.173690
3090.000000	74.308489
3089.000000	74.444868
3088.000000	74.582081
3087.000000	74.719169
3086.000000	74.855798
3085.000000	74.992019
3084.000000	75.126675
3083.000000	75.257340
3082.000000	75.383061
3081.000000	75.505589
3080.000000	75.627037
3079.000000	75.747874
3078.000000	75.868224
3077.000000	75.989253
3076.000000	76.112178
3075.000000	76.237323
3074.000000	76.364883
3073.000000	76.495200
3072.000000	76.626924
3071.000000	76.756617
3070.000000	76.881689
3069.000000	77.002292
3068.000000	77.119559
3067.000000	77.233315
3066.000000	77.343070
3065.000000	77.449848
3064.000000	77.555566
3063.000000	77.661574
3062.000000	77.768883
3061.000000	77.878659
3060.000000	77.991239
3059.000000	78.105668
3058.000000	78.220951
3057.000000	78.336656
3056.000000	78.451242
3055.000000	78.561687
3054.000000	78.665874
3053.000000	78.764838
3052.000000	78.861185
3051.000000	78.956386
3050.000000	79.050700
3049.000000	79.144561
3048.000000	79.238858
3047.000000	79.334351
3046.000000	79.431711
3045.000000	79.531351
3044.000000	79.632308
3043.000000	79.732136
3042.000000	79.828925
3041.000000	79.922302
3040.000000	80.012355
3039.000000	80.098636
3038.000000	80.181706
3037.000000	80.264397
3036.000000	80.349832
3035.000000	80.438761
3034.000000	80.529858
3033.000000	80.621856
3032.000000	80.714026
3031.000000	80.805123
3030.000000	80.893247
3029.000000	80.976845
3028.000000	81.055415
3027.000000	81.129632
3026.000000	81.201406
3025.000000	81.273184
3024.000000	81.346573
3023.000000	81.421942
3022.000000	81.499575
3021.000000	81.580235
3020.000000	81.664073
3019.000000	81.749551
3018.000000	81.834387
3017.000000	81.916740
3016.000000	81.995169
3015.000000	82.068371
3014.000000	82.135971
3013.000000	82.199000
3012.000000	82.258952
3011.000000	82.316946
3010.000000	82.374432
3009.000000	82.433791
3008.000000	82.497424
3007.000000	82.566419
3006.000000	82.640572
3005.000000	82.718810
3004.000000	82.799084
3003.000000	82.878391
3002.000000	82.953963
3001.000000	83.024412
3000.000000	83.089489
2999.000000	83.149384
2998.000000	83.204755
2997.000000	83.256868
2996.000000	83.307296
2995.000000	83.357875
2994.000000	83.410812
2993.000000	83.467979
2992.000000	83.529334
2991.000000	83.592829
2990.000000	83.656418
2989.000000	83.719435
2988.000000	83.781632
2987.000000	83.841888
2986.000000	83.898960
2985.000000	83.952858
2984.000000	84.004732
2983.000000	84.055778
2982.000000	84.106938
2981.000000	84.158995
2980.000000	84.211979
2979.000000	84.264683
2978.000000	84.315568
2977.000000	84.364076
2976.000000	84.410597
2975.000000	84.455520
2974.000000	84.499026
2973.000000	84.541589
2972.000000	84.584201
2971.000000	84.628115
2970.000000	84.674731
2969.000000	84.725244
2968.000000	84.779922
2967.000000	84.837848
2966.000000	84.897699
2965.000000	84.958256
2964.000000	85.017954
2963.000000	85.074507
2962.000000	85.125704
2961.000000	85.170635
2960.000000	85.209888
2959.000000	85.245150
2958.000000	85.278656
2957.000000	85.312583
2956.000000	85.348369
2955.000000	85.386936
2954.000000	85.429308
2953.000000	85.475959
2952.000000	85.525318
2951.000000	85.574084
2950.000000	85.619805
2949.000000	85.662326
2948.000000	85.702250
2947.000000	85.739150
2946.000000	85.772401
2945.000000	85.802850
2944.000000	85.832432
2943.000000	85.862459
2942.000000	85.893527
2941.000000	85.926617
2940.000000	85.963119
2939.000000	86.003624
2938.000000	86.047492
2937.000000	86.093572
2936.000000	86.140511
2935.000000	86.186463
2934.000000	86.229565
2933.000000	86.269166
2932.000000	86.306044
2931.000000	86.341274
2930.000000	86.375234
2929.000000	86.407849
2928.000000	86.439270
2927.000000	86.470076
2926.000000	86.500993
2925.000000	86.532439
2924.000000	86.564144
2923.000000	86.595267
2922.000000	86.625096
2921.000000	86.653524
2920.000000	86.680662
2919.000000	86.706329
2918.000000	86.730328
2917.000000	86.753205
2916.000000	86.776338
2915.000000	86.801097
2914.000000	86.827887
2913.000000	86.855905
2912.000000	86.883872
2911.000000	86.911137
2910.000000	86.937964
2909.000000	86.964892
2908.000000	86.991627
2907.000000	87.017383
2906.000000	87.041828
2905.000000	87.065475
2904.000000	87.089088
2903.000000	87.113241
2902.000000	87.138227
2901.000000	87.165610
2900.000000	87.195512
2899.000000	87.227969
2898.000000	87.262820
2897.000000	87.299433
2896.000000	87.336017
2895.000000	87.370015
2894.000000	87.399785
2893.000000	87.425676
2892.000000	87.449159
2891.000000	87.471453
2890.000000	87.493271
2889.000000	87.515346
2888.000000	87.538503
2887.000000	87.563420
2886.000000	87.590652
2885.000000	87.620582
2884.000000	87.652893
2883.000000	87.686282
2882.000000	87.719070
2881.000000	87.749956
2880.000000	87.778148
2879.000000	87.803415
2878.000000	87.826763
2877.000000	87.850753
2876.000000	87.878062
2875.000000	87.909076
2874.000000	87.941078
2873.000000	87.970253
2872.000000	87.994800
2871.000000	88.016344
2870.000000	88.038307
2869.000000	88.062891
2868.000000	88.089429
2867.000000	88.115340
2866.000000	88.138363
2865.000000	88.157964
2864.000000	88.175401
2863.000000	88.192928
2862.000000	88.212531
2861.000000	88.234585
2860.000000	88.257707
2859.000000	88.280498
2858.000000	88.303388
2857.000000	88.328241
2856.000000	88.356231
2855.000000	88.386676
2854.000000	88.417855
2853.000000	88.448264
2852.000000	88.477159
2851.000000	88.504631
2850.000000	88.531263
2849.000000	88.557059
2848.000000	88.580832
2847.000000	88.601598
2846.000000	88.620658
2845.000000	88.641307
2844.000000	88.666417
2843.000000	88.697052
2842.000000	88.733205
2841.000000	88.773924
2840.000000	88.815941
2839.000000	88.853852
2838.000000	88.883650
2837.000000	88.905894
2836.000000	88.924419
2835.000000	88.942399
2834.000000	88.960522
2833.000000	88.978329
2832.000000	88.995838
2831.000000	89.013591
2830.000000	89.032183
2829.000000	89.052218
2828.000000	89.074182
2827.000000	89.098070
2826.000000	89.123489
2825.000000	89.150154
2824.000000	89.177850
2823.000000	89.206017
2822.000000	89.233889
2821.000000	89.261048
2820.000000	89.287429
2819.000000	89.312836
2818.000000	89.336916
2817.000000	89.359672
2816.000000	89.381539
2815.000000	89.402910
2814.000000	89.423956
2813.000000	89.444816
2812.000000	89.465509
2811.000000	89.485615
2810.000000	89.504575
2809.000000	89.522460
2808.000000	89.540133
2807.000000	89.558557
2806.000000	89.578228
2805.000000	89.599261
2804.000000	89.621575
2803.000000	89.644844
2802.000000	89.668592
2801.000000	89.692432
2800.000000	89.715952
2799.000000	89.738359
2798.000000	89.758538
2797.000000	89.775642
2796.000000	89.789444
2795.000000	89.800098
2794.000000	89.807997
2793.000000	89.814113
2792.000000	89.820185
2791.000000	89.828222
2790.000000	89.839718
2789.000000	89.855198
2788.000000	89.874372
2787.000000	89.896636
2786.000000	89.921430
2785.000000	89.948022
2784.000000	89.974977
2783.000000	90.000100
2782.000000	90.021258
2781.000000	90.037242
2780.000000	90.047829
2779.000000	90.053536
2778.000000	90.055843
2777.000000	90.057292
2776.000000	90.060550
2775.000000	90.067107
2774.000000	90.077132
2773.000000	90.090522
2772.000000	90.107483
2771.000000	90.127806
2770.000000	90.150008
2769.000000	90.171538
2768.000000	90.189677
2767.000000	90.202316
2766.000000	90.208468
2765.000000	90.208441
2764.000000	90.203519
2763.000000	90.195317
2762.000000	90.185360
2761.000000	90.175169
2760.000000	90.166366
2759.000000	90.160321
2758.000000	90.157746
2757.000000	90.158389
2756.000000	90.160873
2755.000000	90.163007
2754.000000	90.162799
2753.000000	90.159499
2752.000000	90.153589
2751.000000	90.145905
2750.000000	90.137075
2749.000000	90.127678
2748.000000	90.118358
2747.000000	90.109447
2746.000000	90.100732
2745.000000	90.091744
2744.000000	90.081908
2743.000000	90.070343
2742.000000	90.055846
2741.000000	90.037426
2740.000000	90.014950
2739.000000	89.989318
2738.000000	89.962350
2737.000000	89.936620
2736.000000	89.915009
2735.000000	89.900134
2734.000000	89.894119
2733.000000	89.898291
2732.000000	89.912622
2731.000000	89.935333
2730.000000	89.963340
2729.000000	89.993626
2728.000000	90.023950
2727.000000	90.052468
2726.000000	90.077495
2725.000000	90.098130
2724.000000	90.115270
2723.000000	90.131655
2722.000000	90.150729
2721.000000	90.175261
2720.000000	90.206498
2719.000000	90.244154
2718.000000	90.286892
2717.000000	90.332685
2716.000000	90.378884
2715.000000	90.422281
2714.000000	90.459703
2713.000000	90.489064
2712.000000	90.509972
2711.000000	90.523355
2710.000000	90.530893
2709.000000	90.534758
2708.000000	90.537485
2707.000000	90.541611
2706.000000	90.548933
2705.000000	90.560080
2704.000000	90.574401
2703.000000	90.590126
2702.000000	90.604910
2701.000000	90.616624
2700.000000	90.623995
2699.000000	90.626734
2698.000000	90.625368
2697.000000	90.621134
2696.000000	90.615730
2695.000000	90.610894
2694.000000	90.607956
2693.000000	90.607605
2692.000000	90.609801
2691.000000	90.613715
2690.000000	90.617864
2689.000000	90.620444
2688.000000	90.619663
2687.000000	90.614089
2686.000000	90.603110
2685.000000	90.587443
2684.000000	90.569206
2683.000000	90.551312
2682.000000	90.536706
2681.000000	90.527782
2680.000000	90.525889
2679.000000	90.530871
2678.000000	90.541062
2677.000000	90.553707
2676.000000	90.565649
2675.000000	90.573929
2674.000000	90.576288
2673.000000	90.571663
2672.000000	90.560507
2671.000000	90.544733
2670.000000	90.527331
2669.000000	90.511820
2668.000000	90.501565
2667.000000	90.499157
2666.000000	90.506014
2665.000000	90.522074
2664.000000	90.545413
2663.000000	90.572560
2662.000000	90.599452
2661.000000	90.622497
2660.000000	90.639087
2659.000000	90.647653
2658.000000	90.647917
2657.000000	90.641306
2656.000000	90.630723
2655.000000	90.619481
2654.000000	90.610365
2653.000000	90.605217
2652.000000	90.604929
2651.000000	90.609498
2650.000000	90.618151
2649.000000	90.629555
2648.000000	90.642122
2647.000000	90.654389
2646.000000	90.665482
2645.000000	90.675457
2644.000000	90.685037
2643.000000	90.695293
2642.000000	90.707604
2641.000000	90.723529
2640.000000	90.744102
2639.000000	90.768859
2638.000000	90.795931
2637.000000	90.823130
2636.000000	90.848724
2635.000000	90.871244
2634.000000	90.889220
2633.000000	90.901732
2632.000000	90.909232
2631.000000	90.913598
2630.000000	90.917326
2629.000000	90.922878
2628.000000	90.932390
2627.000000	90.947321
2626.000000	90.967914
2625.000000	90.992886
2624.000000	91.019659
2623.000000	91.045000
2622.000000	91.065761
2621.000000	91.079509
2620.000000	91.084849
2619.000000	91.081597
2618.000000	91.070865
2617.000000	91.055007
2616.000000	91.037445
2615.000000	91.021961
2614.000000	91.011783
2613.000000	91.008773
2612.000000	91.012889
2611.000000	91.022278
2610.000000	91.034008
2609.000000	91.044914
2608.000000	91.052058
2607.000000	91.053026
2606.000000	91.046473
2605.000000	91.032659
2604.000000	91.013463
2603.000000	90.991835
2602.000000	90.971137
2601.000000	90.954715
2600.000000	90.945373
2599.000000	90.944803
2598.000000	90.953242
2597.000000	90.969590
2596.000000	90.991415
2595.000000	91.015299
2594.000000	91.037798
2593.000000	91.056472
2592.000000	91.070558
2591.000000	91.080795
2590.000000	91.089038
2589.000000	91.097836
2588.000000	91.109671
2587.000000	91.126206
2586.000000	91.148060
2585.000000	91.175142
2584.000000	91.206829
2583.000000	91.241565
2582.000000	91.276722
2581.000000	91.309204
2580.000000	91.336501
2579.000000	91.357480
2578.000000	91.372625
2577.000000	91.383753
2576.000000	91.393411
2575.000000	91.404213
2574.000000	91.418442
2573.000000	91.437849
2572.000000	91.463204
2571.000000	91.493743
2570.000000	91.527113
2569.000000	91.560007
2568.000000	91.588975
2567.000000	91.611059
2566.000000	91.624403
2565.000000	91.628819
2564.000000	91.625593
2563.000000	91.616929
2562.000000	91.605455
2561.000000	91.594101
2560.000000	91.585758
2559.000000	91.582355
2558.000000	91.584393
2557.000000	91.591297
2556.000000	91.601930
2555.000000	91.614628
2554.000000	91.627342
2553.000000	91.638219
2552.000000	91.646405
2551.000000	91.652446
2550.000000	91.658050
2549.000000	91.665565
2548.000000	91.677107
2547.000000	91.693846
2546.000000	91.715965
2545.000000	91.742898
2544.000000	91.773358
2543.000000	91.805120
2542.000000	91.835351
2541.000000	91.861474
2540.000000	91.881715
2539.000000	91.895077
2538.000000	91.901594
2537.000000	91.902903
2536.000000	91.902010
2535.000000	91.902230
2534.000000	91.906359
2533.000000	91.916664
2532.000000	91.934646
2531.000000	91.960118
2530.000000	91.990677
2529.000000	92.022504
2528.000000	92.051506
2527.000000	92.073878
2526.000000	92.086484
2525.000000	92.087886
2524.000000	92.079057
2523.000000	92.063003
2522.000000	92.044029
2521.000000	92.027145
2520.000000	92.017363
2519.000000	92.018270
2518.000000	92.031078
2517.000000	92.054747
2516.000000	92.086726
2515.000000	92.122985
2514.000000	92.158394
2513.000000	92.188091
2512.000000	92.208731
2511.000000	92.218502
2510.000000	92.216813
2509.000000	92.204903
2508.000000	92.186377
2507.000000	92.166480
2506.000000	92.150165
2505.000000	92.141105
2504.000000	92.141516
2503.000000	92.151986
2502.000000	92.171123
2501.000000	92.196105
2500.000000	92.223555
2499.000000	92.249963
2498.000000	92.272024
2497.000000	92.287464
2496.000000	92.295886
2495.000000	92.298439
2494.000000	92.296850
2493.000000	92.292944
2492.000000	92.288821
2491.000000	92.286300
2490.000000	92.286046
2489.000000	92.287585
2488.000000	92.290015
2487.000000	92.292410
2486.000000	92.293738
2485.000000	92.293247
2484.000000	92.291182
2483.000000	92.288937
2482.000000	92.288395
2481.000000	92.291482
2480.000000	92.299996
2479.000000	92.314959
2478.000000	92.335836
2477.000000	92.360280
2476.000000	92.384698
2475.000000	92.404952
2474.000000	92.417119
2473.000000	92.418351
2472.000000	92.407749
2471.000000	92.386530
2470.000000	92.357710
2469.000000	92.326111
2468.000000	92.297913
2467.000000	92.279262
2466.000000	92.274524
2465.000000	92.285590
2464.000000	92.311761
2463.000000	92.349924
2462.000000	92.394624
2461.000000	92.438811
2460.000000	92.475268
2459.000000	92.497932
2458.000000	92.502931
2457.000000	92.489559
2456.000000	92.460722
2455.000000	92.421833
2454.000000	92.379641
2453.000000	92.341256
2452.000000	92.313444
2451.000000	92.301229
2450.000000	92.306768
2449.000000	92.329044
2448.000000	92.364370
2447.000000	92.406957
2446.000000	92.449617
2445.000000	92.485599
2444.000000	92.510075
2443.000000	92.520657
2442.000000	92.517046
2441.000000	92.501244
2440.000000	92.477494
2439.000000	92.451313
2438.000000	92.427772
2437.000000	92.410451
2436.000000	92.401304
2435.000000	92.400570
2434.000000	92.406905
2433.000000	92.418103
2432.000000	92.432023
2431.000000	92.446607
2430.000000	92.459960
2429.000000	92.470952
2428.000000	92.479865
2427.000000	92.487889
2426.000000	92.495931
2425.000000	92.504298
2424.000000	92.513044
2423.000000	92.521876
2422.000000	92.529497
2421.000000	92.533787
2420.000000	92.532704
2419.000000	92.525036
2418.000000	92.510785
2417.000000	92.491553
2416.000000	92.470863
2415.000000	92.453438
2414.000000	92.443836
2413.000000	92.445291
2412.000000	92.459412
2411.000000	92.485765
2410.000000	92.521584
2409.000000	92.561965
2408.000000	92.600671
2407.000000	92.631395
2406.000000	92.649024
2405.000000	92.650774
2404.000000	92.636442
2403.000000	92.608317
2402.000000	92.570803
2401.000000	92.530493
2400.000000	92.495119
2399.000000	92.471561
2398.000000	92.464263
2397.000000	92.475029
2396.000000	92.503030
2395.000000	92.544353
2394.000000	92.592392
2393.000000	92.639315
2392.000000	92.678029
2391.000000	92.703049
2390.000000	92.711370
2389.000000	92.703181
2388.000000	92.682345
2387.000000	92.654787
2386.000000	92.626801
2385.000000	92.604631
2384.000000	92.593268
2383.000000	92.595819
2382.000000	92.612539
2381.000000	92.641484
2380.000000	92.679561
2379.000000	92.721828
2378.000000	92.762401
2377.000000	92.796161
2376.000000	92.820146
2375.000000	92.833198
2374.000000	92.836209
2373.000000	92.832647
2372.000000	92.827746
2371.000000	92.825694
2370.000000	92.827682
2369.000000	92.833920
2368.000000	92.844562
2367.000000	92.858154
2366.000000	92.871686
2365.000000	92.882572
2364.000000	92.892145
2363.000000	92.898997
2362.000000	92.901131
2361.000000	92.902520
2360.000000	92.905723
2359.000000	92.913406
2358.000000	92.925525
2357.000000	92.939749
2356.000000	92.958504
2355.000000	92.977547
2354.000000	92.996610
2353.000000	93.014658
2352.000000	93.034887
2351.000000	93.056921
2350.000000	93.068508
2349.000000	93.063827
2348.000000	93.047131
2347.000000	93.035636
2346.000000	93.041027
2345.000000	93.053495
2344.000000	93.064777
2343.000000	93.068692
2342.000000	93.077056
2341.000000	93.094743
2340.000000	93.117736
2339.000000	93.140055
2338.000000	93.155661
2337.000000	93.164211
2336.000000	93.163504
2335.000000	93.157923
2334.000000	93.148796
2333.000000	93.141785
2332.000000	93.133464
2331.000000	93.130374
2330.000000	93.127535
2329.000000	93.133592
2328.000000	93.142786
2327.000000	93.157763
2326.000000	93.174666
2325.000000	93.191211
2324.000000	93.206456
2323.000000	93.217283
2322.000000	93.224298
2321.000000	93.226681
2320.000000	93.224953
2319.000000	93.223946
2318.000000	93.225359
2317.000000	93.234849
2316.000000	93.248610
2315.000000	93.269253
2314.000000	93.290083
2313.000000	93.311875
2312.000000	93.326923
2311.000000	93.337240
2310.000000	93.339206
2309.000000	93.337110
2308.000000	93.330012
2307.000000	93.323328
2306.000000	93.317757
2305.000000	93.317024
2304.000000	93.320426
2303.000000	93.330890
2302.000000	93.347199
2301.000000	93.370026
2300.000000	93.394894
2299.000000	93.420657
2298.000000	93.442884
2297.000000	93.460466
2296.000000	93.470206
2295.000000	93.472874
2294.000000	93.468792
2293.000000	93.460189
2292.000000	93.448676
2291.000000	93.436708
2290.000000	93.426515
2289.000000	93.419898
2288.000000	93.418583
2287.000000	93.423558
2286.000000	93.435264
2285.000000	93.452522
2284.000000	93.474110
2283.000000	93.498327
2282.000000	93.523396
2281.000000	93.546652
2280.000000	93.565822
2279.000000	93.579358
2278.000000	93.586388
2277.000000	93.586488
2276.000000	93.579902
2275.000000	93.568091
2274.000000	93.552848
2273.000000	93.536487
2272.000000	93.521824
2271.000000	93.512151
2270.000000	93.509836
2269.000000	93.515748
2268.000000	93.529769
2267.000000	93.551433
2266.000000	93.579062
2265.000000	93.609485
2264.000000	93.638648
2263.000000	93.663137
2262.000000	93.680535
2261.000000	93.688998
2260.000000	93.687722
2259.000000	93.676909
2258.000000	93.658101
2257.000000	93.633669
2256.000000	93.606947
2255.000000	93.581815
2254.000000	93.561879
2253.000000	93.550081
2252.000000	93.548160
2251.000000	93.556544
2250.000000	93.573667
2249.000000	93.596963
2248.000000	93.622429
2247.000000	93.646996
2246.000000	93.667199
2245.000000	93.679589
2244.000000	93.681354
2243.000000	93.671062
2242.000000	93.648759
2241.000000	93.616150
2240.000000	93.576277
2239.000000	93.532620
2238.000000	93.488430
2237.000000	93.447251
2236.000000	93.413558
2235.000000	93.391570
2234.000000	93.383428
2233.000000	93.388594
2232.000000	93.405080
2231.000000	93.430177
2230.000000	93.460352
2229.000000	93.491247
2228.000000	93.518519
2227.000000	93.538315
2226.000000	93.547146
2225.000000	93.542599
2224.000000	93.524488
2223.000000	93.495112
2222.000000	93.458045
2221.000000	93.417614
2220.000000	93.379033
2219.000000	93.348014
2218.000000	93.329131
2217.000000	93.324771
2216.000000	93.335365
2215.000000	93.359704
2214.000000	93.394611
2213.000000	93.434859
2212.000000	93.474357
2211.000000	93.507341
2210.000000	93.529093
2209.000000	93.536319
2208.000000	93.527864
2207.000000	93.504758
2206.000000	93.469747
2205.000000	93.427180
2204.000000	93.383020
2203.000000	93.343843
2202.000000	93.314951
2201.000000	93.299578
2200.000000	93.299078
2199.000000	93.313222
2198.000000	93.339793
2197.000000	93.374795
2196.000000	93.413401
2195.000000	93.450763
2194.000000	93.482108
2193.000000	93.503154
2192.000000	93.511249
2191.000000	93.505734
2190.000000	93.487509
2189.000000	93.458689
2188.000000	93.422836
2187.000000	93.384458
2186.000000	93.347992
2185.000000	93.317233
2184.000000	93.295404
2183.000000	93.284926
2182.000000	93.286733
2181.000000	93.300317
2180.000000	93.324146
2179.000000	93.355642
2178.000000	93.390746
2177.000000	93.424610
2176.000000	93.452973
2175.000000	93.472768
2174.000000	93.481630
2173.000000	93.477896
2172.000000	93.461581
2171.000000	93.434655
2170.000000	93.400495
2169.000000	93.363546
2168.000000	93.329409
2167.000000	93.303776
2166.000000	93.290806
2165.000000	93.292368
2164.000000	93.308461
2163.000000	93.337536
2162.000000	93.376257
2161.000000	93.419866
2160.000000	93.463163
2159.000000	93.501089
2158.000000	93.528651
2157.000000	93.541975
2156.000000	93.539922
2155.000000	93.524308
2154.000000	93.498562
2153.000000	93.466915
2152.000000	93.434500
2151.000000	93.406749
2150.000000	93.387941
2149.000000	93.380361
2148.000000	93.384862
2147.000000	93.401024
2146.000000	93.426783
2145.000000	93.458648
2144.000000	93.492937
2143.000000	93.526208
2142.000000	93.554869
2141.000000	93.575594
2140.000000	93.586871
2139.000000	93.589400
2138.000000	93.584573
2137.000000	93.573572
2136.000000	93.558147
2135.000000	93.541062
2134.000000	93.524982
2133.000000	93.511673
2132.000000	93.502464
2131.000000	93.498714
2130.000000	93.501354
2129.000000	93.510522
2128.000000	93.525993
2127.000000	93.547322
2126.000000	93.573283
2125.000000	93.601726
2124.000000	93.630307
2123.000000	93.656669
2122.000000	93.677950
2121.000000	93.691293
2120.000000	93.695242
2119.000000	93.690149
2118.000000	93.677061
2117.000000	93.657300
2116.000000	93.633432
2115.000000	93.609607
2114.000000	93.590347
2113.000000	93.579464
2112.000000	93.579876
2111.000000	93.593031
2110.000000	93.617919
2109.000000	93.651249
2108.000000	93.688786
2107.000000	93.725817
2106.000000	93.756812
2105.000000	93.776485
2104.000000	93.782275
2103.000000	93.775064
2102.000000	93.757221
2101.000000	93.731507
2100.000000	93.701925
2099.000000	93.673758
2098.000000	93.651872
2097.000000	93.639160
2096.000000	93.636892
2095.000000	93.645080
2094.000000	93.662058
2093.000000	93.684240
2092.000000	93.707265
2091.000000	93.727084
2090.000000	93.740233
2089.000000	93.744687
2088.000000	93.741266
2087.000000	93.733426
2086.000000	93.724864
2085.000000	93.717840
2084.000000	93.713709
2083.000000	93.713679
2082.000000	93.718050
2081.000000	93.725559
2080.000000	93.734260
2079.000000	93.742422
2078.000000	93.748440
2077.000000	93.750635
2076.000000	93.748591
2075.000000	93.743871
2074.000000	93.738974
2073.000000	93.736353
2072.000000	93.738502
2071.000000	93.748205
2070.000000	93.767000
2069.000000	93.794260
2068.000000	93.827527
2067.000000	93.862570
2066.000000	93.892911
2065.000000	93.911723
2064.000000	93.915863
2063.000000	93.907554
2062.000000	93.891266
2061.000000	93.870365
2060.000000	93.847889
2059.000000	93.828553
2058.000000	93.818110
2057.000000	93.820758
2056.000000	93.837865
2055.000000	93.868253
2054.000000	93.908442
2053.000000	93.953276
2052.000000	93.997180
2051.000000	94.035016
2050.000000	94.061984
2049.000000	94.074790
2048.000000	94.073423
2047.000000	94.061055
2046.000000	94.042193
2045.000000	94.022088
2044.000000	94.006463
2043.000000	93.999563
2042.000000	94.002456
2041.000000	94.014228
2040.000000	94.034201
2039.000000	94.061867
2038.000000	94.094823
2037.000000	94.128150
2036.000000	94.156742
2035.000000	94.177792
2034.000000	94.191363
2033.000000	94.199719
2032.000000	94.206343
2031.000000	94.214437
2030.000000	94.225810
2029.000000	94.240973
2028.000000	94.259556
2027.000000	94.280332
2026.000000	94.300361
2025.000000	94.316483
2024.000000	94.326299
2023.000000	94.328933
2022.000000	94.325310
2021.000000	94.319186
2020.000000	94.315777
2019.000000	94.318053
2018.000000	94.325616
2017.000000	94.338171
2016.000000	94.358923
2015.000000	94.392576
2014.000000	94.439809
2013.000000	94.495008
2012.000000	94.548288
2011.000000	94.589302
2010.000000	94.611129
2009.000000	94.612137
2008.000000	94.594721
2007.000000	94.563728
2006.000000	94.525968
2005.000000	94.490903
2004.000000	94.468134
2003.000000	94.464617
2002.000000	94.483141
2001.000000	94.522925
2000.000000	94.580790
1999.000000	94.649326
1998.000000	94.718408
1997.000000	94.778630
1996.000000	94.824963
1995.000000	94.854364
1994.000000	94.862174
1993.000000	94.844127
1992.000000	94.803437
1991.000000	94.753147
1990.000000	94.708372
1989.000000	94.678367
1988.000000	94.667023
1987.000000	94.674421
1986.000000	94.697270
1985.000000	94.731958
1984.000000	94.775795
1983.000000	94.824171
1982.000000	94.868364
1981.000000	94.900202
1980.000000	94.919058
1979.000000	94.928747
1978.000000	94.931330
1977.000000	94.926835
1976.000000	94.919600
1975.000000	94.915943
1974.000000	94.916753
1973.000000	94.918142
1972.000000	94.919496
1971.000000	94.923733
1970.000000	94.929426
1969.000000	94.930036
1968.000000	94.921268
1967.000000	94.904486
1966.000000	94.884714
1965.000000	94.870296
1964.000000	94.872068
1963.000000	94.896550
1962.000000	94.938436
1961.000000	94.985532
1960.000000	95.031089
1959.000000	95.074206
1958.000000	95.109676
1957.000000	95.126932
1956.000000	95.120410
1955.000000	95.092158
1954.000000	95.046003
1953.000000	94.987515
1952.000000	94.927626
1951.000000	94.880914
1950.000000	94.856528
1949.000000	94.857854
1948.000000	94.887583
1947.000000	94.945303
1946.000000	95.020869
1945.000000	95.098090
1944.000000	95.164425
1943.000000	95.210922
1942.000000	95.228551
1941.000000	95.214617
1940.000000	95.177669
1939.000000	95.130066
1938.000000	95.077900
1937.000000	95.021894
1936.000000	94.968221
1935.000000	94.930235
1934.000000	94.917441
1933.000000	94.929259
1932.000000	94.959872
1931.000000	95.005402
1930.000000	95.059823
1929.000000	95.113335
1928.000000	95.156943
1927.000000	95.187666
1926.000000	95.208691
1925.000000	95.218705
1924.000000	95.213265
1923.000000	95.188846
1922.000000	95.149744
1921.000000	95.105131
1920.000000	95.061977
1919.000000	95.027016
1918.000000	95.006005
1917.000000	94.997901
1916.000000	94.997294
1915.000000	95.000880
1914.000000	95.010726
1913.000000	95.027479
1912.000000	95.047596
1911.000000	95.069534
1910.000000	95.094866
1909.000000	95.123980
1908.000000	95.154150
1907.000000	95.184519
1906.000000	95.217807
1905.000000	95.247759
1904.000000	95.260767
1903.000000	95.247238
1902.000000	95.209047
1901.000000	95.153666
1900.000000	95.088609
1899.000000	95.023727
1898.000000	94.974062
1897.000000	94.949802
1896.000000	94.951280
1895.000000	94.975150
1894.000000	95.022505
1893.000000	95.092497
1892.000000	95.174368
1891.000000	95.252339
1890.000000	95.308876
1889.000000	95.329014
1888.000000	95.309975
1887.000000	95.260984
1886.000000	95.194357
1885.000000	95.118584
1884.000000	95.038117
1883.000000	94.963000
1882.000000	94.911050
1881.000000	94.895830
1880.000000	94.915870
1879.000000	94.960512
1878.000000	95.021822
1877.000000	95.091897
1876.000000	95.157303
1875.000000	95.207023
1874.000000	95.237968
1873.000000	95.249431
1872.000000	95.237212
1871.000000	95.199438
1870.000000	95.145566
1869.000000	95.088788
1868.000000	95.034737
1867.000000	94.988843
1866.000000	94.962783
1865.000000	94.962277
1864.000000	94.980613
1863.000000	95.004197
1862.000000	95.022995
1861.000000	95.035518
1860.000000	95.042128
1859.000000	95.042110
1858.000000	95.039519
1857.000000	95.042296
1856.000000	95.052837
1855.000000	95.069424
1854.000000	95.089269
1853.000000	95.107919
1852.000000	95.120660
1851.000000	95.120865
1850.000000	95.109402
1849.000000	95.087587
1848.000000	95.050579
1847.000000	94.990002
1846.000000	94.905490
1845.000000	94.814330
1844.000000	94.747852
1843.000000	94.729374
1842.000000	94.755859
1841.000000	94.813489
1840.000000	94.894517
1839.000000	94.988117
1838.000000	95.071705
1837.000000	95.118860
1836.000000	95.122726
1835.000000	95.094424
1834.000000	95.044629
1833.000000	94.974458
1832.000000	94.887665
1831.000000	94.793534
1830.000000	94.702938
1829.000000	94.629494
1828.000000	94.593510
1827.000000	94.601369
1826.000000	94.646518
1825.000000	94.718219
1824.000000	94.796194
1823.000000	94.861446
1822.000000	94.902465
1821.000000	94.916558
1820.000000	94.902409
1819.000000	94.856309
1818.000000	94.782643
1817.000000	94.700428
1816.000000	94.634045
1815.000000	94.591435
1814.000000	94.567966
1813.000000	94.563137
1812.000000	94.575358
1811.000000	94.592777
1810.000000	94.604780
1809.000000	94.617064
1808.000000	94.633649
1807.000000	94.642986
1806.000000	94.635877
1805.000000	94.615739
1804.000000	94.587466
1803.000000	94.546670
1802.000000	94.490952
1801.000000	94.439814
1800.000000	94.413684
1799.000000	94.415845
1798.000000	94.437107
1797.000000	94.466961
1796.000000	94.488298
1795.000000	94.478300
1794.000000	94.424982
1793.000000	94.346183
1792.000000	94.272872
1791.000000	94.221675
1790.000000	94.197898
1789.000000	94.203337
1788.000000	94.229186
1787.000000	94.259468
1786.000000	94.283807
1785.000000	94.305450
1784.000000	94.330583
1783.000000	94.350696
1782.000000	94.346583
1781.000000	94.312542
1780.000000	94.250119
1779.000000	94.174557
1778.000000	94.104328
1777.000000	94.056817
1776.000000	94.042308
1775.000000	94.047911
1774.000000	94.047482
1773.000000	94.029679
1772.000000	94.008027
1771.000000	93.992777
1770.000000	93.981246
1769.000000	93.965166
1768.000000	93.951124
1767.000000	93.943490
1766.000000	93.928228
1765.000000	93.894401
1764.000000	93.846278
1763.000000	93.795703
1762.000000	93.746092
1761.000000	93.706863
1760.000000	93.692776
1759.000000	93.702852
1758.000000	93.716482
1757.000000	93.721317
1756.000000	93.725130
1755.000000	93.734633
1754.000000	93.728715
1753.000000	93.678659
1752.000000	93.584952
1751.000000	93.483438
1750.000000	93.402360
1749.000000	93.336635
1748.000000	93.296467
1747.000000	93.299522
1746.000000	93.336646
1745.000000	93.381239
1744.000000	93.419020
1743.000000	93.444395
1742.000000	93.439142
1741.000000	93.389691
1740.000000	93.321050
1739.000000	93.275269
1738.000000	93.253357
1737.000000	93.226310
1736.000000	93.164663
1735.000000	93.064356
1734.000000	92.966005
1733.000000	92.906664
1732.000000	92.880228
1731.000000	92.872870
1730.000000	92.886368
1729.000000	92.904677
1728.000000	92.913121
1727.000000	92.910212
1726.000000	92.890375
1725.000000	92.841721
1724.000000	92.761671
1723.000000	92.675700
1722.000000	92.605902
1721.000000	92.556673
1720.000000	92.524029
1719.000000	92.493265
1718.000000	92.424397
1717.000000	92.306698
1716.000000	92.182951
1715.000000	92.081969
1714.000000	92.020104
1713.000000	91.995797
1712.000000	91.982238
1711.000000	91.958239
1710.000000	91.920132
1709.000000	91.873078
1708.000000	91.818555
1707.000000	91.753811
1706.000000	91.685116
1705.000000	91.631613
1704.000000	91.605676
1703.000000	91.575827
1702.000000	91.475803
1701.000000	91.300116
1700.000000	91.151870
1699.000000	91.073235
1698.000000	91.013952
1697.000000	90.936778
1696.000000	90.843828
1695.000000	90.758284
1694.000000	90.692657
1693.000000	90.643815
1692.000000	90.624039
1691.000000	90.627308
1690.000000	90.620003
1689.000000	90.591065
1688.000000	90.566517
1687.000000	90.541750
1686.000000	90.451404
1685.000000	90.222539
1684.000000	89.887749
1683.000000	89.602265
1682.000000	89.453370
1681.000000	89.382971
1680.000000	89.353297
1679.000000	89.346746
1678.000000	89.343160
1677.000000	89.317818
1676.000000	89.270673
1675.000000	89.230083
1674.000000	89.196151
1673.000000	89.133188
1672.000000	89.019836
1671.000000	88.863787
1670.000000	88.669433
1669.000000	88.458898
1668.000000	88.286424
1667.000000	88.182102
1666.000000	88.122280
1665.000000	88.072417
1664.000000	88.020010
1663.000000	87.977665
1662.000000	87.947250
1661.000000	87.918153
1660.000000	87.877725
1659.000000	87.833673
1658.000000	87.798899
1657.000000	87.785419
1656.000000	87.782170
1655.000000	87.750745
1654.000000	87.617322
1653.000000	87.371867
1652.000000	87.171157
1651.000000	87.046652
1650.000000	86.907113
1649.000000	86.795885
1648.000000	86.709215
1647.000000	86.598053
1646.000000	86.475586
1645.000000	86.396696
1644.000000	86.342729
1643.000000	86.289450
1642.000000	86.244265
1641.000000	86.213149
1640.000000	86.191508
1639.000000	86.176964
1638.000000	86.156519
1637.000000	86.086569
1636.000000	85.927728
1635.000000	85.741479
1634.000000	85.624307
1633.000000	85.547152
1632.000000	85.462412
1631.000000	85.368760
1630.000000	85.280811
1629.000000	85.211230
1628.000000	85.168806
1627.000000	85.162167
1626.000000	85.187606
1625.000000	85.226492
1624.000000	85.262316
1623.000000	85.292836
1622.000000	85.318253
1621.000000	85.329806
1620.000000	85.320730
1619.000000	85.292318
1618.000000	85.227094
1617.000000	85.095185
1616.000000	84.914792
1615.000000	84.760269
1614.000000	84.679305
1613.000000	84.668371
1612.000000	84.711063
1611.000000	84.794861
1610.000000	84.908644
1609.000000	85.024273
1608.000000	85.111205
1607.000000	85.163959
1606.000000	85.189563
1605.000000	85.184971
1604.000000	85.142956
1603.000000	85.075651
1602.000000	85.005625
1601.000000	84.942511
1600.000000	84.892193
1599.000000	84.873184
1598.000000	84.899609
1597.000000	84.960134
1596.000000	85.031065
1595.000000	85.103354
1594.000000	85.178391
1593.000000	85.246664
1592.000000	85.293261
1591.000000	85.319618
1590.000000	85.337086
1589.000000	85.344984
1588.000000	85.337264
1587.000000	85.324923
1586.000000	85.324426
1585.000000	85.331875
1584.000000	85.334706
1583.000000	85.335206
1582.000000	85.348579
1581.000000	85.375641
1580.000000	85.411302
1579.000000	85.463238
1578.000000	85.534093
1577.000000	85.585727
1576.000000	85.578206
1575.000000	85.544291
1574.000000	85.529072
1573.000000	85.534192
1572.000000	85.552572
1571.000000	85.577587
1570.000000	85.600621
1569.000000	85.599979
1568.000000	85.575127
1567.000000	85.542652
1566.000000	85.510825
1565.000000	85.483580
1564.000000	85.476826
1563.000000	85.513038
1562.000000	85.586390
1561.000000	85.626393
1560.000000	85.611221
1559.000000	85.591623
1558.000000	85.648904
1557.000000	85.809330
1556.000000	85.951630
1555.000000	86.057474
1554.000000	86.138873
1553.000000	86.186789
1552.000000	86.191326
1551.000000	86.166383
1550.000000	86.137547
1549.000000	86.116250
1548.000000	86.115428
1547.000000	86.144800
1546.000000	86.223232
1545.000000	86.359833
1544.000000	86.527916
1543.000000	86.692150
1542.000000	86.857242
1541.000000	87.036513
1540.000000	87.192546
1539.000000	87.304593
1538.000000	87.383023
1537.000000	87.393944
1536.000000	87.360284
1535.000000	87.328580
1534.000000	87.332846
1533.000000	87.388241
1532.000000	87.482924
1531.000000	87.597203
1530.000000	87.724420
1529.000000	87.873375
1528.000000	88.040684
1527.000000	88.206248
1526.000000	88.358981
1525.000000	88.508228
1524.000000	88.654679
1523.000000	88.790294
1522.000000	88.906652
1521.000000	89.002177
1520.000000	89.076215
1519.000000	89.127280
1518.000000	89.177720
1517.000000	89.252149
1516.000000	89.342166
1515.000000	89.437873
1514.000000	89.536361
1513.000000	89.647761
1512.000000	89.784378
1511.000000	89.940039
1510.000000	90.096421
1509.000000	90.245421
1508.000000	90.380430
1507.000000	90.450333
1506.000000	90.500992
1505.000000	90.647551
1504.000000	90.801926
1503.000000	90.908643
1502.000000	90.993333
1501.000000	91.064377
1500.000000	91.124387
1499.000000	91.182525
1498.000000	91.239260
1497.000000	91.296849
1496.000000	91.373918
1495.000000	91.468788
1494.000000	91.553666
1493.000000	91.626259
1492.000000	91.707054
1491.000000	91.812015
1490.000000	91.920459
1489.000000	92.004564
1488.000000	92.066106
1487.000000	92.112587
1486.000000	92.145988
1485.000000	92.163840
1484.000000	92.164038
1483.000000	92.150593
1482.000000	92.134943
1481.000000	92.127021
1480.000000	92.134065
1479.000000	92.155218
1478.000000	92.188266
1477.000000	92.234047
1476.000000	92.287207
1475.000000	92.320791
1474.000000	92.297749
1473.000000	92.201105
1472.000000	92.054008
1471.000000	91.887418
1470.000000	91.689250
1469.000000	91.436558
1468.000000	91.130291
1467.000000	90.773370
1466.000000	90.361150
1465.000000	89.924857
1464.000000	89.550983
1463.000000	89.299012
1462.000000	89.149600
1461.000000	89.074450
1460.000000	89.086800
1459.000000	89.199808
1458.000000	89.374244
1457.000000	89.542950
1456.000000	89.698476
1455.000000	89.817415
1454.000000	89.848523
1453.000000	89.801223
1452.000000	89.695866
1451.000000	89.537633
1450.000000	89.308422
1449.000000	88.989825
1448.000000	88.601948
1447.000000	88.188876
1446.000000	87.753158
1445.000000	87.262515
1444.000000	86.687288
1443.000000	86.011128
1442.000000	85.213112
1441.000000	84.295798
1440.000000	83.290940
1439.000000	82.152070
1438.000000	80.664402
1437.000000	78.641116
1436.000000	76.328934
1435.000000	74.188202
1434.000000	72.279962
1433.000000	70.414785
1432.000000	68.544662
1431.000000	66.788865
1430.000000	65.278937
1429.000000	64.128816
1428.000000	63.488449
1427.000000	63.425351
1426.000000	63.866435
1425.000000	64.742169
1424.000000	66.014603
1423.000000	67.527882
1422.000000	69.062222
1421.000000	70.580941
1420.000000	72.237168
1419.000000	74.047423
1418.000000	75.710786
1417.000000	77.042661
1416.000000	78.175257
1415.000000	79.253460
1414.000000	80.288378
1413.000000	81.254098
1412.000000	82.167902
1411.000000	83.045824
1410.000000	83.859706
1409.000000	84.588023
1408.000000	85.253614
1407.000000	85.881067
1406.000000	86.464033
1405.000000	86.993980
1404.000000	87.475671
1403.000000	87.904123
1402.000000	88.263387
1401.000000	88.565264
1400.000000	88.851419
1399.000000	89.144344
1398.000000	89.428386
1397.000000	89.696888
1396.000000	89.972387
1395.000000	90.271655
1394.000000	90.577196
1393.000000	90.865339
1392.000000	91.132501
1391.000000	91.379452
1390.000000	91.599051
1389.000000	91.782120
1388.000000	91.922357
1387.000000	92.016437
1386.000000	92.067177
1385.000000	92.090609
1384.000000	92.104679
1383.000000	92.116646
1382.000000	92.128506
1381.000000	92.143322
1380.000000	92.161401
1379.000000	92.175953
1378.000000	92.178779
1377.000000	92.159020
1376.000000	92.094151
1375.000000	91.949740
1374.000000	91.702438
1373.000000	91.368342
1372.000000	90.981897
1371.000000	90.562950
1370.000000	90.129005
1369.000000	89.714101
1368.000000	89.370866
1367.000000	89.149390
1366.000000	89.072593
1365.000000	89.139035
1364.000000	89.333312
1363.000000	89.627199
1362.000000	89.984411
1361.000000	90.371804
1360.000000	90.760040
1359.000000	91.119850
1358.000000	91.429415
1357.000000	91.675102
1356.000000	91.846598
1355.000000	91.938630
1354.000000	91.957905
1353.000000	91.920525
1352.000000	91.837127
1351.000000	91.707453
1350.000000	91.529656
1349.000000	91.302311
1348.000000	91.018389
1347.000000	90.667633
1346.000000	90.239523
1345.000000	89.723843
1344.000000	89.114974
1343.000000	88.409665
1342.000000	87.599316
1341.000000	86.669489
1340.000000	85.629204
1339.000000	84.550148
1338.000000	83.540646
1337.000000	82.671199
1336.000000	81.947470
1335.000000	81.337232
1334.000000	80.797222
1333.000000	80.286717
1332.000000	79.775071
1331.000000	79.233538
1330.000000	78.609234
1329.000000	77.813321
1328.000000	76.747351
1327.000000	75.350932
1326.000000	73.627899
1325.000000	71.644446
1324.000000	69.533521
1323.000000	67.471664
1322.000000	65.606662
1321.000000	63.994289
1320.000000	62.603609
1319.000000	61.362770
1318.000000	60.200738
1317.000000	59.085646
1316.000000	58.050887
1315.000000	57.177373
1314.000000	56.523076
1313.000000	56.084224
1312.000000	55.822588
1311.000000	55.700229
1310.000000	55.697018
1309.000000	55.819479
1308.000000	56.115348
1307.000000	56.655281
1306.000000	57.478264
1305.000000	58.574658
1304.000000	59.906421
1303.000000	61.417566
1302.000000	63.030612
1301.000000	64.659276
1300.000000	66.242325
1299.000000	67.749932
1298.000000	69.165979
1297.000000	70.480653
1296.000000	71.695326
1295.000000	72.816617
1294.000000	73.844703
1293.000000	74.773809
1292.000000	75.598121
1291.000000	76.315303
1290.000000	76.917790
1289.000000	77.393478
1288.000000	77.737884
1287.000000	77.960990
1286.000000	78.090620
1285.000000	78.169515
1284.000000	78.252006
1283.000000	78.394398
1282.000000	78.638025
1281.000000	78.997943
1280.000000	79.463585
1279.000000	80.004576
1278.000000	80.578683
1277.000000	81.147622
1276.000000	81.689147
1275.000000	82.197045
1274.000000	82.672771
1273.000000	83.118889
1272.000000	83.536629
1271.000000	83.925468
1270.000000	84.282692
1269.000000	84.603875
1268.000000	84.886077
1267.000000	85.128723
1266.000000	85.334526
1265.000000	85.510657
1264.000000	85.668730
1263.000000	85.823116
1262.000000	85.986893
1261.000000	86.169288
1260.000000	86.374802
1259.000000	86.603031
1258.000000	86.847553
1257.000000	87.096271
1256.000000	87.333330
1255.000000	87.542212
1254.000000	87.709461
1253.000000	87.828715
1252.000000	87.901724
1251.000000	87.938428
1250.000000	87.955469
1249.000000	87.971928
1248.000000	88.006039
1247.000000	88.073330
1246.000000	88.183768
1245.000000	88.338490
1244.000000	88.529055
1243.000000	88.738935
1242.000000	88.947412
1241.000000	89.133677
1240.000000	89.280326
1239.000000	89.377044
1238.000000	89.424359
1237.000000	89.433280
1236.000000	89.421219
1235.000000	89.408412
1234.000000	89.414097
1233.000000	89.452484
1232.000000	89.529942
1231.000000	89.644902
1230.000000	89.788769
1229.000000	89.947283
1228.000000	90.102130
1227.000000	90.234907
1226.000000	90.332778
1225.000000	90.391938
1224.000000	90.416903
1223.000000	90.419223
1222.000000	90.415996
1221.000000	90.425367
1220.000000	90.460857
1219.000000	90.528515
1218.000000	90.627188
1217.000000	90.748912
1216.000000	90.878871
1215.000000	90.998044
1214.000000	91.088975
1213.000000	91.140593
1212.000000	91.150148
1211.000000	91.123597
1210.000000	91.075898
1209.000000	91.027640
1208.000000	90.999176
1207.000000	91.006207
1206.000000	91.058201
1205.000000	91.156480
1204.000000	91.292208
1203.000000	91.447191
1202.000000	91.598485
1201.000000	91.723637
1200.000000	91.804168
1199.000000	91.829435
1198.000000	91.800408
1197.000000	91.730279
1196.000000	91.639399
1195.000000	91.550621
1194.000000	91.485466
1193.000000	91.458874
1192.000000	91.474689
1191.000000	91.525918
1190.000000	91.598867
1189.000000	91.676302
1188.000000	91.738845
1187.000000	91.769144
1186.000000	91.759389
1185.000000	91.714378
1184.000000	91.645775
1183.000000	91.564181
1182.000000	91.478462
1181.000000	91.400846
1180.000000	91.350363
1179.000000	91.348115
1178.000000	91.406473
1177.000000	91.519170
1176.000000	91.662008
1175.000000	91.802771
1174.000000	91.913474
1173.000000	91.976913
1172.000000	91.987480
1171.000000	91.951385
1170.000000	91.886515
1169.000000	91.817621
1168.000000	91.768320
1167.000000	91.756564
1166.000000	91.793393
1165.000000	91.880921
1164.000000	92.009375
1163.000000	92.158482
1162.000000	92.303022
1161.000000	92.418416
1160.000000	92.484250
1159.000000	92.489840
1158.000000	92.439148
1157.000000	92.349988
1156.000000	92.248047
1155.000000	92.162043
1154.000000	92.119477
1153.000000	92.139368
1152.000000	92.225609
1151.000000	92.367099
1150.000000	92.543698
1149.000000	92.729796
1148.000000	92.895943
1147.000000	93.013317
1146.000000	93.062378
1145.000000	93.037151
1144.000000	92.945221
1143.000000	92.806246
1142.000000	92.650404
1141.000000	92.511556
1140.000000	92.417805
1139.000000	92.386678
1138.000000	92.424086
1137.000000	92.522763
1136.000000	92.661199
1135.000000	92.808902
1134.000000	92.934566
1133.000000	93.011940
1132.000000	93.023228
1131.000000	92.965854
1130.000000	92.856719
1129.000000	92.725582
1128.000000	92.600886
1127.000000	92.502624
1126.000000	92.444474
1125.000000	92.434729
1124.000000	92.472355
1123.000000	92.545123
1122.000000	92.633747
1121.000000	92.716758
1120.000000	92.774270
1119.000000	92.792630
1118.000000	92.770156
1117.000000	92.717721
1116.000000	92.653628
1115.000000	92.598734
1114.000000	92.573239
1113.000000	92.591352
1112.000000	92.655480
1111.000000	92.755180
1110.000000	92.871455
1109.000000	92.980898
1108.000000	93.059905
1107.000000	93.089845
1106.000000	93.064188
1105.000000	92.990328
1104.000000	92.886123
1103.000000	92.776397
1102.000000	92.689547
1101.000000	92.649830
1100.000000	92.674304
1099.000000	92.765117
1098.000000	92.913311
1097.000000	93.098425
1096.000000	93.288502
1095.000000	93.446773
1094.000000	93.542453
1093.000000	93.557844
1092.000000	93.488135
1091.000000	93.344150
1090.000000	93.154066
1089.000000	92.956818
1088.000000	92.790545
1087.000000	92.685420
1086.000000	92.661309
1085.000000	92.723851
1084.000000	92.860224
1083.000000	93.039591
1082.000000	93.221977
1081.000000	93.367101
1080.000000	93.441263
1079.000000	93.423784
1078.000000	93.313497
1077.000000	93.124774
1076.000000	92.880117
1075.000000	92.606703
1074.000000	92.332619
1073.000000	92.080429
1072.000000	91.857534
1071.000000	91.654974
1070.000000	91.452758
1069.000000	91.223508
1068.000000	90.938161
1067.000000	90.574623
1066.000000	90.128936
1065.000000	89.620560
1064.000000	89.090714
1063.000000	88.595986
1062.000000	88.197600
1061.000000	87.947077
1060.000000	87.871358
1059.000000	87.969963
1058.000000	88.213901
1057.000000	88.554625
1056.000000	88.936102
1055.000000	89.303508
1054.000000	89.613384
1053.000000	89.837638
1052.000000	89.965088
1051.000000	90.001513
1050.000000	89.970683
1049.000000	89.907207
1048.000000	89.846769
1047.000000	89.817549
1046.000000	89.835979
1045.000000	89.905511
1044.000000	90.017030
1043.000000	90.152888
1042.000000	90.293438
1041.000000	90.421887
1040.000000	90.524702
1039.000000	90.593259
1038.000000	90.628241
1037.000000	90.642385
1036.000000	90.658855
1035.000000	90.705775
1034.000000	90.810244
1033.000000	90.990096
1032.000000	91.246214
1031.000000	91.561882
1030.000000	91.907085
1029.000000	92.244640
1028.000000	92.534573
1027.000000	92.742201
1026.000000	92.847641
1025.000000	92.851993
1024.000000	92.774483
1023.000000	92.648125
1022.000000	92.515523
1021.000000	92.418038
1020.000000	92.385592
1019.000000	92.432063
1018.000000	92.556279
1017.000000	92.741386
1016.000000	92.955255
1015.000000	93.156647
1014.000000	93.308204
1013.000000	93.385799
1012.000000	93.381274
1011.000000	93.303235
1010.000000	93.178306
1009.000000	93.044925
1008.000000	92.941628
1007.000000	92.898700
1006.000000	92.934516
1005.000000	93.050906
1004.000000	93.229303
1003.000000	93.434687
1002.000000	93.626136
1001.000000	93.766290
1000.000000	93.826808
999.000000	93.795502
998.000000	93.682126
997.000000	93.516244
996.000000	93.336699
995.000000	93.184156
994.000000	93.096266
993.000000	93.100410
992.000000	93.204042
991.000000	93.392370
990.000000	93.633350
989.000000	93.884227
988.000000	94.098020
987.000000	94.232972
986.000000	94.264816
985.000000	94.192165
984.000000	94.034549
983.000000	93.827628
982.000000	93.619589
981.000000	93.460008
980.000000	93.386350
979.000000	93.416062
978.000000	93.547294
977.000000	93.758977
976.000000	94.012187
975.000000	94.258539
974.000000	94.454099
973.000000	94.569139
972.000000	94.589981
971.000000	94.521034
970.000000	94.386348
969.000000	94.224800
968.000000	94.077353
967.000000	93.978570
966.000000	93.952122
965.000000	94.005970
964.000000	94.127808
963.000000	94.288615
962.000000	94.452206
961.000000	94.583515
960.000000	94.653549
959.000000	94.646973
958.000000	94.570024
957.000000	94.449096
956.000000	94.320156
955.000000	94.219920
954.000000	94.181154
953.000000	94.225264
952.000000	94.353184
951.000000	94.543072
950.000000	94.757711
949.000000	94.952489
948.000000	95.082371
947.000000	95.112544
946.000000	95.032057
945.000000	94.855555
944.000000	94.616605
943.000000	94.360683
942.000000	94.140332
941.000000	94.004605
940.000000	93.987145
939.000000	94.098895
938.000000	94.326782
937.000000	94.634468
936.000000	94.964729
935.000000	95.252033
934.000000	95.439663
933.000000	95.491769
932.000000	95.394955
931.000000	95.162935
930.000000	94.837763
929.000000	94.482261
928.000000	94.163198
927.000000	93.937844
926.000000	93.845545
925.000000	93.900342
924.000000	94.086162
923.000000	94.360945
922.000000	94.670585
921.000000	94.958120
920.000000	95.170820
919.000000	95.269622
918.000000	95.241191
917.000000	95.097571
916.000000	94.869130
915.000000	94.598412
914.000000	94.335692
913.000000	94.127262
912.000000	94.000976
911.000000	93.962937
910.000000	94.002130
909.000000	94.094342
908.000000	94.204097
907.000000	94.294535
906.000000	94.339550
905.000000	94.328687
904.000000	94.263687
903.000000	94.157588
902.000000	94.034958
901.000000	93.924255
900.000000	93.845049
899.000000	93.801339
898.000000	93.785305
897.000000	93.778996
896.000000	93.756058
895.000000	93.689106
894.000000	93.559897
893.000000	93.364030
892.000000	93.109625
891.000000	92.819266
890.000000	92.529580
889.000000	92.281046
888.000000	92.104393
887.000000	92.015418
886.000000	92.013725
885.000000	92.078931
884.000000	92.169412
883.000000	92.230686
882.000000	92.209122
881.000000	92.060680
880.000000	91.758373
879.000000	91.300212
878.000000	90.716602
877.000000	90.060333
876.000000	89.391825
875.000000	88.771162
874.000000	88.251093
873.000000	87.864718
872.000000	87.615820
871.000000	87.480193
870.000000	87.411920
869.000000	87.351646
868.000000	87.236125
867.000000	87.014234
866.000000	86.659516
865.000000	86.172618
864.000000	85.575846
863.000000	84.911470
862.000000	84.235370
861.000000	83.603377
860.000000	83.060395
859.000000	82.637076
858.000000	82.345784
857.000000	82.174461
856.000000	82.090801
855.000000	82.052841
854.000000	82.021570
853.000000	81.965343
852.000000	81.864507
851.000000	81.718308
850.000000	81.543796
849.000000	81.367093
848.000000	81.215929
847.000000	81.117442
846.000000	81.093475
845.000000	81.149704
844.000000	81.273831
843.000000	81.445537
842.000000	81.645156
841.000000	81.855415
840.000000	82.062184
839.000000	82.263918
838.000000	82.475293
837.000000	82.716557
836.000000	83.006060
835.000000	83.361189
834.000000	83.795762
833.000000	84.303130
832.000000	84.847060
831.000000	85.356439
830.000000	85.705356
829.000000	85.686070
828.000000	85.064935
827.000000	83.764861
826.000000	82.016093
825.000000	80.295173
824.000000	79.079209
823.000000	78.645281
822.000000	79.038665
821.000000	80.137692
820.000000	81.695877
819.000000	83.395240
818.000000	84.968807
817.000000	86.293529
816.000000	87.370904
815.000000	88.226007
814.000000	88.862290
813.000000	89.282135
812.000000	89.511703
811.000000	89.589080
810.000000	89.561657
809.000000	89.493907
808.000000	89.456089
807.000000	89.500888
806.000000	89.654449
805.000000	89.925037
804.000000	90.300380
803.000000	90.739002
802.000000	91.180339
801.000000	91.569902
800.000000	91.868757
799.000000	92.051487
798.000000	92.113630
797.000000	92.081991
796.000000	92.003485
795.000000	91.923903
794.000000	91.880991
793.000000	91.905269
792.000000	92.011508
791.000000	92.188355
790.000000	92.405920
789.000000	92.631632
788.000000	92.834484
787.000000	92.984114
786.000000	93.062600
785.000000	93.076589
784.000000	93.050916
783.000000	93.014285
782.000000	92.996227
781.000000	93.027656
780.000000	93.130443
779.000000	93.304606
778.000000	93.529648
777.000000	93.773280
776.000000	93.994686
775.000000	94.149299
774.000000	94.206072
773.000000	94.161585
772.000000	94.035824
771.000000	93.861317
770.000000	93.680472
769.000000	93.542698
768.000000	93.489707
767.000000	93.542046
766.000000	93.699355
765.000000	93.946100
764.000000	94.248423
763.000000	94.553861
762.000000	94.805981
761.000000	94.962622
760.000000	95.000252
759.000000	94.914825
758.000000	94.728429
757.000000	94.488911
756.000000	94.253329
755.000000	94.071066
754.000000	93.980043
753.000000	94.003616
752.000000	94.140511
751.000000	94.360476
750.000000	94.617672
749.000000	94.865508
748.000000	95.059912
747.000000	95.163071
746.000000	95.158758
745.000000	95.061215
744.000000	94.904007
743.000000	94.725466
742.000000	94.566026
741.000000	94.465205
740.000000	94.447550
739.000000	94.513331
738.000000	94.645438
737.000000	94.817090
736.000000	94.988922
735.000000	95.112910
734.000000	95.153261
733.000000	95.101366
732.000000	94.968625
731.000000	94.777583
730.000000	94.566188
729.000000	94.385920
728.000000	94.281210
727.000000	94.272799
726.000000	94.361358
725.000000	94.535647
724.000000	94.766913
723.000000	95.005964
722.000000	95.199787
721.000000	95.310665
720.000000	95.318361
719.000000	95.218482
718.000000	95.031043
717.000000	94.801469
716.000000	94.582733
715.000000	94.417943
714.000000	94.340482
713.000000	94.374410
712.000000	94.522016
711.000000	94.755989
710.000000	95.033687
709.000000	95.312732
708.000000	95.550785
707.000000	95.707841
706.000000	95.762739
705.000000	95.723437
704.000000	95.613858
703.000000	95.459566
702.000000	95.292719
701.000000	95.155464
700.000000	95.079791
699.000000	95.072522
698.000000	95.125686
697.000000	95.229607
696.000000	95.365183
695.000000	95.497386
694.000000	95.596664
693.000000	95.658294
692.000000	95.688862
691.000000	95.691117
690.000000	95.674961
689.000000	95.667774
688.000000	95.693134
687.000000	95.746861
686.000000	95.813291
685.000000	95.886458
684.000000	95.955261
683.000000	95.989524
682.000000	95.964909
681.000000	95.886330
680.000000	95.768764
679.000000	95.617957
678.000000	95.453608
677.000000	95.321865
676.000000	95.261681
675.000000	95.289833
674.000000	95.411656
673.000000	95.626319
672.000000	95.911577
671.000000	96.224231
670.000000	96.522440
669.000000	96.758669
668.000000	96.835373
667.000000	96.684566
666.000000	96.388059
665.000000	96.045479
664.000000	95.705649
663.000000	95.410103
662.000000	95.204205
661.000000	95.118532
660.000000	95.162123
659.000000	95.330860
658.000000	95.603602
657.000000	95.934963
656.000000	96.265576
655.000000	96.548449
654.000000	96.745821
653.000000	96.824247
652.000000	96.773166
651.000000	96.615031
650.000000	96.388531
649.000000	96.129462
648.000000	95.873251
647.000000	95.661655
646.000000	95.528005
645.000000	95.483048
644.000000	95.520548
643.000000	95.626349
642.000000	95.777316
641.000000	95.941245
640.000000	96.093121
639.000000	96.223644
638.000000	96.328569
637.000000	96.399093
636.000000	96.429065
635.000000	96.422297
634.000000	96.386861
633.000000	96.326970
632.000000	96.244259
631.000000	96.142949
630.000000	96.028128
629.000000	95.902463
628.000000	95.770659
627.000000	95.647487
626.000000	95.554805
625.000000	95.514652
624.000000	95.543998
623.000000	95.651735
622.000000	95.832752
621.000000	96.064214
620.000000	96.314789
619.000000	96.551962
618.000000	96.742154
617.000000	96.850493
616.000000	96.848421
615.000000	96.724840
614.000000	96.491865
613.000000	96.181944
612.000000	95.841277
611.000000	95.523420
610.000000	95.280999
609.000000	95.153735
608.000000	95.159000
607.000000	95.291533
606.000000	95.519754
605.000000	95.788172
604.000000	96.023190
603.000000	96.141483
602.000000	96.057063
601.000000	95.693679
600.000000	95.006664
599.000000	94.024794
598.000000	92.870828
597.000000	91.728408
596.000000	90.788458
595.000000	90.202719
594.000000	90.045493
593.000000	90.296822
592.000000	90.870707
591.000000	91.645001
590.000000	92.486578
589.000000	93.289864
588.000000	93.996185
587.000000	94.583220
586.000000	95.042405
585.000000	95.374586
584.000000	95.587025
583.000000	95.694203
582.000000	95.712999
581.000000	95.664248
580.000000	95.576175
579.000000	95.481197
578.000000	95.402351
577.000000	95.347259
576.000000	95.320912
575.000000	95.332515
574.000000	95.388580
573.000000	95.487186
572.000000	95.625950
571.000000	95.802747
570.000000	96.006673
569.000000	96.216029
568.000000	96.410691
567.000000	96.575528
566.000000	96.691675
565.000000	96.737574
564.000000	96.697040
563.000000	96.570274
562.000000	96.371264
561.000000	96.123709
560.000000	95.863608
559.000000	95.637316
558.000000	95.484748
557.000000	95.427325
556.000000	95.474581
555.000000	95.629747
554.000000	95.883985
553.000000	96.209522
552.000000	96.563146
551.000000	96.890445
550.000000	97.133530
549.000000	97.247537
548.000000	97.214672
547.000000	97.045545
546.000000	96.771880
545.000000	96.438805
544.000000	96.097509
543.000000	95.801294
542.000000	95.597173
541.000000	95.517296
540.000000	95.574837
539.000000	95.764138
538.000000	96.055992
537.000000	96.401576
536.000000	96.746042
535.000000	97.039419
534.000000	97.238637
533.000000	97.321610
532.000000	97.285459
531.000000	97.139040
530.000000	96.906648
529.000000	96.625566
528.000000	96.332211
527.000000	96.068774
526.000000	95.885526
525.000000	95.814137
524.000000	95.851957
523.000000	95.970829
522.000000	96.137446
521.000000	96.325604
520.000000	96.510430
519.000000	96.663264
518.000000	96.758186
517.000000	96.783323
516.000000	96.744163
515.000000	96.653819
514.000000	96.528606
513.000000	96.390223
512.000000	96.254444
511.000000	96.121944
510.000000	95.987960
509.000000	95.860418
508.000000	95.747253
507.000000	95.649115
506.000000	95.560705
505.000000	95.472150
504.000000	95.376596
503.000000	95.285537
502.000000	95.234918
501.000000	95.258843
500.000000	95.349501
499.000000	95.464274
498.000000	95.561353
497.000000	95.616618
496.000000	95.615512
495.000000	95.548597
494.000000	95.429304
493.000000	95.293271
492.000000	95.169116
491.000000	95.077536
490.000000	95.040818
489.000000	95.085016
488.000000	95.218790
487.000000	95.429519
486.000000	95.699852
485.000000	96.007948
484.000000	96.311813
483.000000	96.564776
482.000000	96.747007
481.000000	96.856400
480.000000	96.883470
479.000000	96.820195
478.000000	96.671452
477.000000	96.461636
476.000000	96.230677
475.000000	96.030091
474.000000	95.908765
473.000000	95.893587
472.000000	95.977805
471.000000	96.151157
470.000000	96.396360
469.000000	96.675096
468.000000	96.935298
467.000000	97.125945
466.000000	97.214421
465.000000	97.203341
464.000000	97.109027
463.000000	96.943811
462.000000	96.735234
461.000000	96.526313
460.000000	96.360517
459.000000	96.270499
458.000000	96.270537
457.000000	96.359803
456.000000	96.519296
455.000000	96.703953
454.000000	96.861390
453.000000	96.954334
452.000000	96.969133
451.000000	96.922244
450.000000	96.835817
449.000000	96.734726
448.000000	96.645521
447.000000	96.585936
446.000000	96.554575
445.000000	96.545070
444.000000	96.542039
443.000000	96.499149
442.000000	96.360959
441.000000	96.115766
440.000000	95.801555
439.000000	95.445564
438.000000	95.051007
437.000000	94.642944
436.000000	94.297227
435.000000	94.099348
434.000000	94.080797
433.000000	94.220249
432.000000	94.485233
431.000000	94.830573
430.000000	95.207797
429.000000	95.584778
428.000000	95.929283
427.000000	96.193724
426.000000	96.346048
425.000000	96.403338
424.000000	96.405441
423.000000	96.390298
422.000000	96.384260
421.000000	96.406471
420.000000	96.473356
419.000000	96.620784
418.000000	96.877974
417.000000	97.168952
416.000000	97.401671
415.000000	97.542539
414.000000	97.592515
413.000000	97.588036
412.000000	97.570546
411.000000	97.545951
410.000000	97.544790
409.000000	97.626562
408.000000	97.803616
407.000000	98.012695
406.000000	98.184491
405.000000	98.304575
404.000000	98.382257
403.000000	98.399435
402.000000	97.700034
401.000000	96.915521
400.000000	95.839835
