PE IR       SUBTECH     SPECTRUM    ASCII       PEDS        4.00        
   -1
23ms052_nitro.asc
24/09/12
16:36:43.00
24/09/12
16:36:43.00
Administrator
Sample 1180 By Administrator Date Thursday, September 12 2024
400.000000
#HDR
-1
-1
#GR
cm-1
%T
1.0
0.0
4000.000000
-1.000000
3601
8
78.781942
8.638895
#DATA
4000.000000	50.197237
3999.000000	50.236388
3998.000000	50.275343
3997.000000	50.313793
3996.000000	50.351979
3995.000000	50.390642
3994.000000	50.429963
3993.000000	50.468919
3992.000000	50.506185
3991.000000	50.541670
3990.000000	50.576774
3989.000000	50.613097
3988.000000	50.651193
3987.000000	50.690477
3986.000000	50.729814
3985.000000	50.768116
3984.000000	50.804886
3983.000000	50.840609
3982.000000	50.876453
3981.000000	50.913265
3980.000000	50.950766
3979.000000	50.987789
3978.000000	51.023232
3977.000000	51.056748
3976.000000	51.088599
3975.000000	51.119024
3974.000000	51.148300
3973.000000	51.177073
3972.000000	51.206445
3971.000000	51.237496
3970.000000	51.270915
3969.000000	51.306812
3968.000000	51.344504
3967.000000	51.382807
3966.000000	51.420318
3965.000000	51.455752
3964.000000	51.488319
3963.000000	51.517892
3962.000000	51.545334
3961.000000	51.571972
3960.000000	51.599065
3959.000000	51.627788
3958.000000	51.659482
3957.000000	51.695004
3956.000000	51.733605
3955.000000	51.773398
3954.000000	51.812001
3953.000000	51.846834
3952.000000	51.875389
3951.000000	51.896619
3950.000000	51.912735
3949.000000	51.928671
3948.000000	51.949387
3947.000000	51.977055
3946.000000	52.010040
3945.000000	52.044405
3944.000000	52.077807
3943.000000	52.111524
3942.000000	52.147865
3941.000000	52.186903
3940.000000	52.228406
3939.000000	52.273609
3938.000000	52.322673
3937.000000	52.371536
3936.000000	52.412895
3935.000000	52.441892
3934.000000	52.459888
3933.000000	52.472958
3932.000000	52.487467
3931.000000	52.506798
3930.000000	52.532849
3929.000000	52.568013
3928.000000	52.612837
3927.000000	52.661518
3926.000000	52.704246
3925.000000	52.736450
3924.000000	52.760696
3923.000000	52.780501
3922.000000	52.798228
3921.000000	52.817420
3920.000000	52.841813
3919.000000	52.870802
3918.000000	52.900773
3917.000000	52.931825
3916.000000	52.969065
3915.000000	53.015534
3914.000000	53.070206
3913.000000	53.130798
3912.000000	53.194746
3911.000000	53.255462
3910.000000	53.303464
3909.000000	53.333442
3908.000000	53.347091
3907.000000	53.347924
3906.000000	53.334329
3905.000000	53.304380
3904.000000	53.264806
3903.000000	53.228406
3902.000000	53.206915
3901.000000	53.209413
3900.000000	53.243261
3899.000000	53.307611
3898.000000	53.388572
3897.000000	53.468187
3896.000000	53.539027
3895.000000	53.603786
3894.000000	53.665019
3893.000000	53.716749
3892.000000	53.751174
3891.000000	53.767661
3890.000000	53.772320
3889.000000	53.777839
3888.000000	53.797075
3887.000000	53.832876
3886.000000	53.876303
3885.000000	53.909474
3884.000000	53.918959
3883.000000	53.912761
3882.000000	53.915801
3881.000000	53.947936
3880.000000	54.005786
3879.000000	54.066083
3878.000000	54.114670
3877.000000	54.158337
3876.000000	54.203909
3875.000000	54.244319
3874.000000	54.268667
3873.000000	54.273930
3872.000000	54.264755
3871.000000	54.252532
3870.000000	54.254403
3869.000000	54.273473
3868.000000	54.296317
3867.000000	54.317791
3866.000000	54.350132
3865.000000	54.405355
3864.000000	54.475153
3863.000000	54.537803
3862.000000	54.587940
3861.000000	54.635409
3860.000000	54.680659
3859.000000	54.712596
3858.000000	54.728027
3857.000000	54.740074
3856.000000	54.756745
3855.000000	54.759770
3854.000000	54.742498
3853.000000	54.727291
3852.000000	54.724672
3851.000000	54.741097
3850.000000	54.793066
3849.000000	54.887776
3848.000000	55.010102
3847.000000	55.130106
3846.000000	55.225165
3845.000000	55.287398
3844.000000	55.315986
3843.000000	55.314336
3842.000000	55.293216
3841.000000	55.266166
3840.000000	55.245914
3839.000000	55.243640
3838.000000	55.260624
3837.000000	55.286139
3836.000000	55.312175
3835.000000	55.345833
3834.000000	55.399958
3833.000000	55.476731
3832.000000	55.565219
3831.000000	55.649463
3830.000000	55.720082
3829.000000	55.778214
3828.000000	55.826917
3827.000000	55.863856
3826.000000	55.885197
3825.000000	55.892780
3824.000000	55.896583
3823.000000	55.903966
3822.000000	55.913743
3821.000000	55.921257
3820.000000	55.917145
3819.000000	55.905939
3818.000000	55.913919
3817.000000	55.966030
3816.000000	56.062540
3815.000000	56.170662
3814.000000	56.253566
3813.000000	56.306024
3812.000000	56.348220
3811.000000	56.398402
3810.000000	56.458824
3809.000000	56.516086
3808.000000	56.554178
3807.000000	56.567216
3806.000000	56.555516
3805.000000	56.527737
3804.000000	56.506412
3803.000000	56.512604
3802.000000	56.552687
3801.000000	56.608248
3800.000000	56.645214
3799.000000	56.659284
3798.000000	56.682792
3797.000000	56.744179
3796.000000	56.839070
3795.000000	56.938156
3794.000000	57.019502
3793.000000	57.085053
3792.000000	57.148058
3791.000000	57.212752
3790.000000	57.271383
3789.000000	57.316658
3788.000000	57.350242
3787.000000	57.378522
3786.000000	57.404693
3785.000000	57.427620
3784.000000	57.446691
3783.000000	57.463857
3782.000000	57.483031
3781.000000	57.507675
3780.000000	57.540220
3779.000000	57.580631
3778.000000	57.624578
3777.000000	57.667545
3776.000000	57.708892
3775.000000	57.750130
3774.000000	57.790708
3773.000000	57.826024
3772.000000	57.851116
3771.000000	57.868113
3770.000000	57.884127
3769.000000	57.898762
3768.000000	57.909137
3767.000000	57.923794
3766.000000	57.956235
3765.000000	58.006643
3764.000000	58.060136
3763.000000	58.103783
3762.000000	58.138074
3761.000000	58.171497
3760.000000	58.208323
3759.000000	58.240005
3758.000000	58.253906
3757.000000	58.249592
3756.000000	58.236690
3755.000000	58.223326
3754.000000	58.211607
3753.000000	58.202638
3752.000000	58.200495
3751.000000	58.204100
3750.000000	58.198866
3749.000000	58.173011
3748.000000	58.140305
3747.000000	58.132750
3746.000000	58.171638
3745.000000	58.269561
3744.000000	58.408852
3743.000000	58.526119
3742.000000	58.587366
3741.000000	58.619672
3740.000000	58.663749
3739.000000	58.729577
3738.000000	58.787438
3737.000000	58.804990
3736.000000	58.789369
3735.000000	58.780176
3734.000000	58.810146
3733.000000	58.889174
3732.000000	59.005847
3731.000000	59.129718
3730.000000	59.232603
3729.000000	59.308605
3728.000000	59.368408
3727.000000	59.423873
3726.000000	59.476143
3725.000000	59.517791
3724.000000	59.549766
3723.000000	59.586694
3722.000000	59.640763
3721.000000	59.708484
3720.000000	59.779262
3719.000000	59.844053
3718.000000	59.894915
3717.000000	59.926511
3716.000000	59.937936
3715.000000	59.934707
3714.000000	59.927789
3713.000000	59.926804
3712.000000	59.937679
3711.000000	59.964282
3710.000000	60.011047
3709.000000	60.080261
3708.000000	60.164526
3707.000000	60.250443
3706.000000	60.327415
3705.000000	60.392570
3704.000000	60.448448
3703.000000	60.500026
3702.000000	60.552338
3701.000000	60.605796
3700.000000	60.656587
3699.000000	60.703438
3698.000000	60.748930
3697.000000	60.794373
3696.000000	60.833734
3695.000000	60.853494
3694.000000	60.846563
3693.000000	60.820961
3692.000000	60.791716
3691.000000	60.769222
3690.000000	60.765035
3689.000000	60.794322
3688.000000	60.853940
3687.000000	60.922304
3686.000000	60.986310
3685.000000	61.049228
3684.000000	61.116441
3683.000000	61.184272
3682.000000	61.235393
3681.000000	61.248931
3680.000000	61.220058
3679.000000	61.165481
3678.000000	61.105904
3677.000000	61.050824
3676.000000	61.019347
3675.000000	61.021371
3674.000000	61.026860
3673.000000	61.018045
3672.000000	61.019052
3671.000000	61.063792
3670.000000	61.162392
3669.000000	61.282227
3668.000000	61.382821
3667.000000	61.460614
3666.000000	61.534781
3665.000000	61.615325
3664.000000	61.696404
3663.000000	61.765033
3662.000000	61.808770
3661.000000	61.822403
3660.000000	61.810542
3659.000000	61.785436
3658.000000	61.758874
3657.000000	61.738490
3656.000000	61.722395
3655.000000	61.693509
3654.000000	61.637950
3653.000000	61.563778
3652.000000	61.490806
3651.000000	61.428524
3650.000000	61.374551
3649.000000	61.332588
3648.000000	61.322727
3647.000000	61.361690
3646.000000	61.440030
3645.000000	61.532579
3644.000000	61.621952
3643.000000	61.702370
3642.000000	61.770023
3641.000000	61.819385
3640.000000	61.847237
3639.000000	61.857477
3638.000000	61.857059
3637.000000	61.848885
3636.000000	61.830444
3635.000000	61.797460
3634.000000	61.747164
3633.000000	61.678088
3632.000000	61.592824
3631.000000	61.498108
3630.000000	61.411292
3629.000000	61.367980
3628.000000	61.377497
3627.000000	61.407717
3626.000000	61.438360
3625.000000	61.472847
3624.000000	61.511362
3623.000000	61.540992
3622.000000	61.544394
3621.000000	61.514626
3620.000000	61.463327
3619.000000	61.410648
3618.000000	61.364878
3617.000000	61.322938
3616.000000	61.283862
3615.000000	61.250642
3614.000000	61.226134
3613.000000	61.209426
3612.000000	61.194989
3611.000000	61.178873
3610.000000	61.165171
3609.000000	61.163632
3608.000000	61.179606
3607.000000	61.207645
3606.000000	61.237645
3605.000000	61.264621
3604.000000	61.287632
3603.000000	61.304509
3602.000000	61.310825
3601.000000	61.305186
3600.000000	61.289895
3599.000000	61.266041
3598.000000	61.234150
3597.000000	61.198748
3596.000000	61.166461
3595.000000	61.141480
3594.000000	61.124019
3593.000000	61.108503
3592.000000	61.087649
3591.000000	61.057056
3590.000000	61.014616
3589.000000	60.961657
3588.000000	60.910643
3587.000000	60.880942
3586.000000	60.880165
3585.000000	60.902603
3584.000000	60.939434
3583.000000	60.981720
3582.000000	61.019001
3581.000000	61.042592
3580.000000	61.050515
3579.000000	61.046479
3578.000000	61.036099
3577.000000	61.023738
3576.000000	61.012423
3575.000000	61.003332
3574.000000	60.995426
3573.000000	60.984530
3572.000000	60.964560
3571.000000	60.929877
3570.000000	60.875447
3569.000000	60.799152
3568.000000	60.711661
3567.000000	60.639243
3566.000000	60.603243
3565.000000	60.604946
3564.000000	60.634187
3563.000000	60.678730
3562.000000	60.725929
3561.000000	60.764940
3560.000000	60.791556
3559.000000	60.808132
3558.000000	60.818161
3557.000000	60.822273
3556.000000	60.819084
3555.000000	60.807500
3554.000000	60.788298
3553.000000	60.765590
3552.000000	60.744818
3551.000000	60.727518
3550.000000	60.710087
3549.000000	60.688609
3548.000000	60.662980
3547.000000	60.636618
3546.000000	60.613975
3545.000000	60.599314
3544.000000	60.595989
3543.000000	60.604173
3542.000000	60.619528
3541.000000	60.635652
3540.000000	60.647194
3539.000000	60.650528
3538.000000	60.643627
3537.000000	60.628355
3536.000000	60.610542
3535.000000	60.595610
3534.000000	60.584550
3533.000000	60.574939
3532.000000	60.564143
3531.000000	60.549546
3530.000000	60.528335
3529.000000	60.500195
3528.000000	60.469545
3527.000000	60.441768
3526.000000	60.418171
3525.000000	60.397224
3524.000000	60.379392
3523.000000	60.367346
3522.000000	60.361835
3521.000000	60.360761
3520.000000	60.361536
3519.000000	60.362161
3518.000000	60.360482
3517.000000	60.354808
3516.000000	60.344993
3515.000000	60.331644
3514.000000	60.314084
3513.000000	60.290130
3512.000000	60.258797
3511.000000	60.222656
3510.000000	60.187037
3509.000000	60.156910
3508.000000	60.134050
3507.000000	60.116328
3506.000000	60.098988
3505.000000	60.077243
3504.000000	60.049245
3503.000000	60.017250
3502.000000	59.986021
3501.000000	59.960285
3500.000000	59.942132
3499.000000	59.928850
3498.000000	59.914241
3497.000000	59.893754
3496.000000	59.867762
3495.000000	59.839310
3494.000000	59.810312
3493.000000	59.780931
3492.000000	59.750874
3491.000000	59.719464
3490.000000	59.685238
3489.000000	59.647275
3488.000000	59.606509
3487.000000	59.564335
3486.000000	59.520743
3485.000000	59.475308
3484.000000	59.429076
3483.000000	59.383868
3482.000000	59.340375
3481.000000	59.297999
3480.000000	59.255941
3479.000000	59.213301
3478.000000	59.168653
3477.000000	59.120814
3476.000000	59.069965
3475.000000	59.017297
3474.000000	58.964273
3473.000000	58.912818
3472.000000	58.864612
3471.000000	58.818711
3470.000000	58.770819
3469.000000	58.716353
3468.000000	58.653981
3467.000000	58.585409
3466.000000	58.512812
3465.000000	58.438120
3464.000000	58.363790
3463.000000	58.291990
3462.000000	58.222697
3461.000000	58.153941
3460.000000	58.083859
3459.000000	58.011728
3458.000000	57.937305
3457.000000	57.860696
3456.000000	57.782748
3455.000000	57.704421
3454.000000	57.625733
3453.000000	57.546294
3452.000000	57.466368
3451.000000	57.385448
3450.000000	57.300448
3449.000000	57.207664
3448.000000	57.107337
3447.000000	57.004340
3446.000000	56.903560
3445.000000	56.806551
3444.000000	56.712722
3443.000000	56.621126
3442.000000	56.530414
3441.000000	56.439188
3440.000000	56.346978
3439.000000	56.253830
3438.000000	56.158437
3437.000000	56.057945
3436.000000	55.950173
3435.000000	55.835109
3434.000000	55.714299
3433.000000	55.589978
3432.000000	55.464290
3431.000000	55.337655
3430.000000	55.208155
3429.000000	55.073774
3428.000000	54.934925
3427.000000	54.793381
3426.000000	54.649889
3425.000000	54.504288
3424.000000	54.356453
3423.000000	54.205488
3422.000000	54.049084
3421.000000	53.886078
3420.000000	53.718777
3419.000000	53.550715
3418.000000	53.383147
3417.000000	53.215103
3416.000000	53.045576
3415.000000	52.873419
3414.000000	52.696204
3413.000000	52.511921
3412.000000	52.321062
3411.000000	52.125155
3410.000000	51.923875
3409.000000	51.715438
3408.000000	51.499460
3407.000000	51.277363
3406.000000	51.050835
3405.000000	50.821608
3404.000000	50.591364
3403.000000	50.359985
3402.000000	50.124115
3401.000000	49.879110
3400.000000	49.622475
3399.000000	49.354710
3398.000000	49.078364
3397.000000	48.797017
3396.000000	48.513553
3395.000000	48.227940
3394.000000	47.936956
3393.000000	47.637315
3392.000000	47.328370
3391.000000	47.011366
3390.000000	46.688062
3389.000000	46.360300
3388.000000	46.029207
3387.000000	45.693594
3386.000000	45.350691
3385.000000	44.999943
3384.000000	44.643979
3383.000000	44.285203
3382.000000	43.923152
3381.000000	43.555906
3380.000000	43.182425
3379.000000	42.802174
3378.000000	42.414695
3377.000000	42.020959
3376.000000	41.623463
3375.000000	41.224200
3374.000000	40.823516
3373.000000	40.421282
3372.000000	40.017300
3371.000000	39.609595
3370.000000	39.194737
3369.000000	38.770675
3368.000000	38.337999
3367.000000	37.898461
3366.000000	37.454132
3365.000000	37.008407
3364.000000	36.564895
3363.000000	36.124223
3362.000000	35.684043
3361.000000	35.242565
3360.000000	34.800088
3359.000000	34.356595
3358.000000	33.910574
3357.000000	33.461477
3356.000000	33.011057
3355.000000	32.561318
3354.000000	32.112982
3353.000000	31.666387
3352.000000	31.221904
3351.000000	30.779103
3350.000000	30.337460
3349.000000	29.898079
3348.000000	29.462561
3347.000000	29.030195
3346.000000	28.598768
3345.000000	28.168019
3344.000000	27.739844
3343.000000	27.315335
3342.000000	26.894272
3341.000000	26.477448
3340.000000	26.066468
3339.000000	25.661123
3338.000000	25.259843
3337.000000	24.862603
3336.000000	24.471040
3335.000000	24.085868
3334.000000	23.706826
3333.000000	23.334886
3332.000000	22.971051
3331.000000	22.613619
3330.000000	22.259617
3329.000000	21.908643
3328.000000	21.562808
3327.000000	21.223142
3326.000000	20.889608
3325.000000	20.563962
3324.000000	20.248645
3323.000000	19.943404
3322.000000	19.645717
3321.000000	19.354452
3320.000000	19.070138
3319.000000	18.792026
3318.000000	18.519068
3317.000000	18.252751
3316.000000	17.995583
3315.000000	17.747327
3314.000000	17.505692
3313.000000	17.270634
3312.000000	17.043982
3311.000000	16.825322
3310.000000	16.612457
3309.000000	16.405426
3308.000000	16.207250
3307.000000	16.020407
3306.000000	15.845526
3305.000000	15.683310
3304.000000	15.533532
3303.000000	15.393218
3302.000000	15.258796
3301.000000	15.129689
3300.000000	15.007443
3299.000000	14.891797
3298.000000	14.781463
3297.000000	14.677716
3296.000000	14.583110
3295.000000	14.497501
3294.000000	14.418282
3293.000000	14.344494
3292.000000	14.277407
3291.000000	14.217108
3290.000000	14.162413
3289.000000	14.113255
3288.000000	14.070417
3287.000000	14.033207
3286.000000	13.999847
3285.000000	13.970118
3284.000000	13.944484
3283.000000	13.921866
3282.000000	13.901002
3281.000000	13.882781
3280.000000	13.868525
3279.000000	13.856802
3278.000000	13.845086
3277.000000	13.833503
3276.000000	13.823752
3275.000000	13.815573
3274.000000	13.807520
3273.000000	13.800469
3272.000000	13.797132
3271.000000	13.798511
3270.000000	13.803649
3269.000000	13.811827
3268.000000	13.822125
3267.000000	13.831949
3266.000000	13.839047
3265.000000	13.844441
3264.000000	13.850769
3263.000000	13.858593
3262.000000	13.866983
3261.000000	13.876237
3260.000000	13.887141
3259.000000	13.898789
3258.000000	13.909910
3257.000000	13.921258
3256.000000	13.933870
3255.000000	13.946449
3254.000000	13.957392
3253.000000	13.968075
3252.000000	13.981005
3251.000000	13.996007
3250.000000	14.011331
3249.000000	14.027206
3248.000000	14.044946
3247.000000	14.063446
3246.000000	14.079922
3245.000000	14.093724
3244.000000	14.106722
3243.000000	14.120451
3242.000000	14.135328
3241.000000	14.151737
3240.000000	14.169322
3239.000000	14.186111
3238.000000	14.200614
3237.000000	14.213861
3236.000000	14.227531
3235.000000	14.241515
3234.000000	14.255361
3233.000000	14.270311
3232.000000	14.287295
3231.000000	14.304536
3230.000000	14.319746
3229.000000	14.333152
3228.000000	14.345979
3227.000000	14.357768
3226.000000	14.367871
3225.000000	14.377916
3224.000000	14.389773
3223.000000	14.402411
3222.000000	14.413347
3221.000000	14.421913
3220.000000	14.428811
3219.000000	14.434149
3218.000000	14.438405
3217.000000	14.443372
3216.000000	14.449533
3215.000000	14.454302
3214.000000	14.455545
3213.000000	14.455005
3212.000000	14.455397
3211.000000	14.456021
3210.000000	14.454360
3209.000000	14.450340
3208.000000	14.445887
3207.000000	14.441562
3206.000000	14.436518
3205.000000	14.430677
3204.000000	14.424192
3203.000000	14.416104
3202.000000	14.405955
3201.000000	14.395189
3200.000000	14.384564
3199.000000	14.371818
3198.000000	14.354666
3197.000000	14.334518
3196.000000	14.314515
3195.000000	14.295498
3194.000000	14.276482
3193.000000	14.257385
3192.000000	14.238451
3191.000000	14.218453
3190.000000	14.196358
3189.000000	14.173434
3188.000000	14.151147
3187.000000	14.128387
3186.000000	14.103262
3185.000000	14.076294
3184.000000	14.049474
3183.000000	14.023677
3182.000000	13.999124
3181.000000	13.976462
3180.000000	13.954972
3179.000000	13.931583
3178.000000	13.904472
3177.000000	13.876097
3176.000000	13.850170
3175.000000	13.827239
3174.000000	13.805596
3173.000000	13.784619
3172.000000	13.764545
3171.000000	13.744768
3170.000000	13.724989
3169.000000	13.706646
3168.000000	13.690834
3167.000000	13.676276
3166.000000	13.661547
3165.000000	13.647433
3164.000000	13.634972
3163.000000	13.623203
3162.000000	13.611145
3161.000000	13.600108
3160.000000	13.591612
3159.000000	13.584918
3158.000000	13.578918
3157.000000	13.574321
3156.000000	13.571694
3155.000000	13.569476
3154.000000	13.566613
3153.000000	13.565274
3152.000000	13.568127
3151.000000	13.574740
3150.000000	13.582978
3149.000000	13.592144
3148.000000	13.602428
3147.000000	13.613082
3146.000000	13.623748
3145.000000	13.635827
3144.000000	13.650161
3143.000000	13.665236
3142.000000	13.679793
3141.000000	13.695408
3140.000000	13.714213
3139.000000	13.735985
3138.000000	13.759770
3137.000000	13.786044
3136.000000	13.814798
3135.000000	13.843533
3134.000000	13.869795
3133.000000	13.894444
3132.000000	13.920294
3131.000000	13.949180
3130.000000	13.982020
3129.000000	14.019381
3128.000000	14.060006
3127.000000	14.100769
3126.000000	14.140049
3125.000000	14.179115
3124.000000	14.218611
3123.000000	14.256684
3122.000000	14.292767
3121.000000	14.330312
3120.000000	14.372910
3119.000000	14.419882
3118.000000	14.468514
3117.000000	14.518319
3116.000000	14.570377
3115.000000	14.624554
3114.000000	14.680031
3113.000000	14.736944
3112.000000	14.795055
3111.000000	14.852614
3110.000000	14.908910
3109.000000	14.966106
3108.000000	15.026502
3107.000000	15.089739
3106.000000	15.154603
3105.000000	15.221395
3104.000000	15.290119
3103.000000	15.358462
3102.000000	15.424328
3101.000000	15.488953
3100.000000	15.555290
3099.000000	15.624501
3098.000000	15.695878
3097.000000	15.768531
3096.000000	15.841300
3095.000000	15.912924
3094.000000	15.984122
3093.000000	16.057790
3092.000000	16.135534
3091.000000	16.215761
3090.000000	16.296589
3089.000000	16.378210
3088.000000	16.460763
3087.000000	16.542528
3086.000000	16.622481
3085.000000	16.702470
3084.000000	16.784454
3083.000000	16.867545
3082.000000	16.950028
3081.000000	17.032392
3080.000000	17.116268
3079.000000	17.202145
3078.000000	17.290150
3077.000000	17.381146
3076.000000	17.474859
3075.000000	17.568631
3074.000000	17.660086
3073.000000	17.749605
3072.000000	17.838667
3071.000000	17.927509
3070.000000	18.016190
3069.000000	18.105973
3068.000000	18.197614
3067.000000	18.289877
3066.000000	18.381547
3065.000000	18.473369
3064.000000	18.566401
3063.000000	18.660141
3062.000000	18.753876
3061.000000	18.848051
3060.000000	18.942681
3059.000000	19.036222
3058.000000	19.127657
3057.000000	19.218128
3056.000000	19.309107
3055.000000	19.400802
3054.000000	19.493652
3053.000000	19.589158
3052.000000	19.687513
3051.000000	19.786209
3050.000000	19.882716
3049.000000	19.976880
3048.000000	20.069430
3047.000000	20.160260
3046.000000	20.249774
3045.000000	20.339835
3044.000000	20.431631
3043.000000	20.524446
3042.000000	20.617963
3041.000000	20.713667
3040.000000	20.812243
3039.000000	20.911590
3038.000000	21.009141
3037.000000	21.104437
3036.000000	21.198021
3035.000000	21.289768
3034.000000	21.379890
3033.000000	21.469637
3032.000000	21.559585
3031.000000	21.649269
3030.000000	21.739698
3029.000000	21.833711
3028.000000	21.932056
3027.000000	22.031473
3026.000000	22.128543
3025.000000	22.223334
3024.000000	22.317460
3023.000000	22.410752
3022.000000	22.502174
3021.000000	22.592165
3020.000000	22.681811
3019.000000	22.771039
3018.000000	22.859578
3017.000000	22.948377
3016.000000	23.038321
3015.000000	23.128877
3014.000000	23.219538
3013.000000	23.311214
3012.000000	23.404686
3011.000000	23.499207
3010.000000	23.593955
3009.000000	23.689230
3008.000000	23.784797
3007.000000	23.878806
3006.000000	23.969972
3005.000000	24.059468
3004.000000	24.149338
3003.000000	24.240372
3002.000000	24.332625
3001.000000	24.426253
3000.000000	24.520543
2999.000000	24.613783
2998.000000	24.705353
2997.000000	24.796249
2996.000000	24.886459
2995.000000	24.974027
2994.000000	25.058352
2993.000000	25.142440
2992.000000	25.230009
2991.000000	25.321820
2990.000000	25.416281
2989.000000	25.511898
2988.000000	25.607376
2987.000000	25.701029
2986.000000	25.792025
2985.000000	25.881177
2984.000000	25.969158
2983.000000	26.055324
2982.000000	26.139623
2981.000000	26.224121
2980.000000	26.311142
2979.000000	26.401100
2978.000000	26.493386
2977.000000	26.587802
2976.000000	26.683757
2975.000000	26.779604
2974.000000	26.874360
2973.000000	26.968771
2972.000000	27.063418
2971.000000	27.157183
2970.000000	27.248944
2969.000000	27.339312
2968.000000	27.429237
2967.000000	27.518445
2966.000000	27.606675
2965.000000	27.695006
2964.000000	27.784378
2963.000000	27.874081
2962.000000	27.963174
2961.000000	28.051929
2960.000000	28.140496
2959.000000	28.227583
2958.000000	28.311830
2957.000000	28.393184
2956.000000	28.471818
2955.000000	28.547552
2954.000000	28.621742
2953.000000	28.697870
2952.000000	28.778480
2951.000000	28.862743
2950.000000	28.948417
2949.000000	29.034598
2948.000000	29.121172
2947.000000	29.207253
2946.000000	29.292055
2945.000000	29.376271
2944.000000	29.461060
2943.000000	29.546605
2942.000000	29.632800
2941.000000	29.720205
2940.000000	29.809052
2939.000000	29.898455
2938.000000	29.987681
2937.000000	30.077025
2936.000000	30.166406
2935.000000	30.254382
2934.000000	30.339675
2933.000000	30.422450
2932.000000	30.503256
2931.000000	30.582303
2930.000000	30.660830
2929.000000	30.741424
2928.000000	30.825496
2927.000000	30.911831
2926.000000	30.998789
2925.000000	31.086197
2924.000000	31.173816
2923.000000	31.259679
2922.000000	31.341580
2921.000000	31.418829
2920.000000	31.491168
2919.000000	31.557592
2918.000000	31.617611
2917.000000	31.672420
2916.000000	31.723723
2915.000000	31.772788
2914.000000	31.821682
2913.000000	31.873588
2912.000000	31.930476
2911.000000	31.991605
2910.000000	32.055377
2909.000000	32.121221
2908.000000	32.188474
2907.000000	32.255177
2906.000000	32.319625
2905.000000	32.382171
2904.000000	32.444097
2903.000000	32.506127
2902.000000	32.569072
2901.000000	32.634645
2900.000000	32.704366
2899.000000	32.777754
2898.000000	32.852970
2897.000000	32.928195
2896.000000	33.001647
2895.000000	33.071418
2894.000000	33.136693
2893.000000	33.198577
2892.000000	33.258885
2891.000000	33.318867
2890.000000	33.379682
2889.000000	33.442871
2888.000000	33.509232
2887.000000	33.578026
2886.000000	33.648145
2885.000000	33.719196
2884.000000	33.790732
2883.000000	33.861512
2882.000000	33.930481
2881.000000	33.997641
2880.000000	34.063296
2879.000000	34.127611
2878.000000	34.191838
2877.000000	34.258648
2876.000000	34.329640
2875.000000	34.403037
2874.000000	34.475077
2873.000000	34.543431
2872.000000	34.608667
2871.000000	34.673024
2870.000000	34.738505
2869.000000	34.805507
2868.000000	34.872331
2867.000000	34.936372
2866.000000	34.996472
2865.000000	35.053974
2864.000000	35.111507
2863.000000	35.171355
2862.000000	35.234945
2861.000000	35.302575
2860.000000	35.372966
2859.000000	35.444131
2858.000000	35.515255
2857.000000	35.586960
2856.000000	35.659446
2855.000000	35.731583
2854.000000	35.802303
2853.000000	35.871718
2852.000000	35.940174
2851.000000	36.007029
2850.000000	36.070874
2849.000000	36.130156
2848.000000	36.183508
2847.000000	36.230846
2846.000000	36.274548
2845.000000	36.318360
2844.000000	36.364806
2843.000000	36.414478
2842.000000	36.467514
2841.000000	36.523773
2840.000000	36.581198
2839.000000	36.636312
2838.000000	36.687860
2837.000000	36.738614
2836.000000	36.792484
2835.000000	36.850996
2834.000000	36.913317
2833.000000	36.978218
2832.000000	37.044587
2831.000000	37.111035
2830.000000	37.176471
2829.000000	37.240633
2828.000000	37.303256
2827.000000	37.363567
2826.000000	37.421516
2825.000000	37.478733
2824.000000	37.537384
2823.000000	37.598726
2822.000000	37.663371
2821.000000	37.731788
2820.000000	37.803370
2819.000000	37.875746
2818.000000	37.946039
2817.000000	38.012447
2816.000000	38.074144
2815.000000	38.130803
2814.000000	38.183323
2813.000000	38.234218
2812.000000	38.286110
2811.000000	38.340188
2810.000000	38.396753
2809.000000	38.456287
2808.000000	38.518764
2807.000000	38.582449
2806.000000	38.644527
2805.000000	38.702759
2804.000000	38.756013
2803.000000	38.803983
2802.000000	38.847499
2801.000000	38.888693
2800.000000	38.929821
2799.000000	38.972102
2798.000000	39.016264
2797.000000	39.063435
2796.000000	39.114463
2795.000000	39.168745
2794.000000	39.224597
2793.000000	39.280435
2792.000000	39.334892
2791.000000	39.386417
2790.000000	39.433917
2789.000000	39.477773
2788.000000	39.519493
2787.000000	39.560597
2786.000000	39.602462
2785.000000	39.646730
2784.000000	39.694803
2783.000000	39.746860
2782.000000	39.801888
2781.000000	39.858401
2780.000000	39.914526
2779.000000	39.967848
2778.000000	40.016027
2777.000000	40.057643
2776.000000	40.092284
2775.000000	40.120250
2774.000000	40.142851
2773.000000	40.162624
2772.000000	40.182238
2771.000000	40.203182
2770.000000	40.225635
2769.000000	40.248871
2768.000000	40.271099
2767.000000	40.289277
2766.000000	40.300289
2765.000000	40.302537
2764.000000	40.296259
2763.000000	40.283037
2762.000000	40.265522
2761.000000	40.247146
2760.000000	40.231062
2759.000000	40.219105
2758.000000	40.212044
2757.000000	40.210035
2756.000000	40.211962
2755.000000	40.214869
2754.000000	40.215041
2753.000000	40.209803
2752.000000	40.197894
2751.000000	40.178792
2750.000000	40.152606
2749.000000	40.120318
2748.000000	40.083416
2747.000000	40.043135
2746.000000	40.000439
2745.000000	39.956330
2744.000000	39.911282
2743.000000	39.864874
2742.000000	39.816635
2741.000000	39.766888
2740.000000	39.716454
2739.000000	39.666214
2738.000000	39.617867
2737.000000	39.574889
2736.000000	39.541794
2735.000000	39.522641
2734.000000	39.520927
2733.000000	39.539498
2732.000000	39.579593
2731.000000	39.640068
2730.000000	39.717856
2729.000000	39.809415
2728.000000	39.910731
2727.000000	40.016894
2726.000000	40.123387
2725.000000	40.227594
2724.000000	40.329059
2723.000000	40.428487
2722.000000	40.527094
2721.000000	40.626578
2720.000000	40.728305
2719.000000	40.832021
2718.000000	40.935665
2717.000000	41.036284
2716.000000	41.130752
2715.000000	41.216208
2714.000000	41.290579
2713.000000	41.353162
2712.000000	41.404566
2711.000000	41.445952
2710.000000	41.479102
2709.000000	41.506658
2708.000000	41.531487
2707.000000	41.555668
2706.000000	41.579924
2705.000000	41.604084
2704.000000	41.627337
2703.000000	41.648116
2702.000000	41.664594
2701.000000	41.675325
2700.000000	41.679559
2699.000000	41.677239
2698.000000	41.669338
2697.000000	41.658213
2696.000000	41.646846
2695.000000	41.637677
2694.000000	41.632263
2693.000000	41.631381
2692.000000	41.634656
2691.000000	41.640173
2690.000000	41.645244
2689.000000	41.647661
2688.000000	41.645931
2687.000000	41.638850
2686.000000	41.625938
2685.000000	41.608502
2684.000000	41.589547
2683.000000	41.572304
2682.000000	41.559155
2681.000000	41.551600
2680.000000	41.550159
2679.000000	41.553905
2678.000000	41.560636
2677.000000	41.567895
2676.000000	41.573840
2675.000000	41.577365
2674.000000	41.578089
2673.000000	41.576782
2672.000000	41.575526
2671.000000	41.577338
2670.000000	41.585340
2669.000000	41.601652
2668.000000	41.626506
2667.000000	41.658095
2666.000000	41.693503
2665.000000	41.729727
2664.000000	41.763855
2663.000000	41.793073
2662.000000	41.815250
2661.000000	41.829625
2660.000000	41.836878
2659.000000	41.838832
2658.000000	41.838223
2657.000000	41.838318
2656.000000	41.841922
2655.000000	41.850491
2654.000000	41.864285
2653.000000	41.882924
2652.000000	41.905361
2651.000000	41.929838
2650.000000	41.954723
2649.000000	41.979484
2648.000000	42.004951
2647.000000	42.032848
2646.000000	42.065531
2645.000000	42.105982
2644.000000	42.156836
2643.000000	42.219397
2642.000000	42.293242
2641.000000	42.376290
2640.000000	42.465164
2639.000000	42.555547
2638.000000	42.643262
2637.000000	42.725257
2636.000000	42.799672
2635.000000	42.865504
2634.000000	42.922788
2633.000000	42.972899
2632.000000	43.018124
2631.000000	43.060848
2630.000000	43.102829
2629.000000	43.145057
2628.000000	43.187433
2627.000000	43.228535
2626.000000	43.266431
2625.000000	43.299570
2624.000000	43.327083
2623.000000	43.348426
2622.000000	43.363376
2621.000000	43.372630
2620.000000	43.377590
2619.000000	43.379681
2618.000000	43.380091
2617.000000	43.379885
2616.000000	43.379797
2615.000000	43.379378
2614.000000	43.376911
2613.000000	43.370325
2612.000000	43.357817
2611.000000	43.338069
2610.000000	43.310472
2609.000000	43.275854
2608.000000	43.236876
2607.000000	43.197496
2606.000000	43.162214
2605.000000	43.135492
2604.000000	43.120942
2603.000000	43.120469
2602.000000	43.134287
2601.000000	43.161045
2600.000000	43.198106
2599.000000	43.242078
2598.000000	43.289677
2597.000000	43.339133
2596.000000	43.390160
2595.000000	43.443233
2594.000000	43.499149
2593.000000	43.558692
2592.000000	43.622429
2591.000000	43.690246
2590.000000	43.761422
2589.000000	43.835101
2588.000000	43.910247
2587.000000	43.985542
2586.000000	44.059754
2585.000000	44.132387
2584.000000	44.203683
2583.000000	44.274006
2582.000000	44.343770
2581.000000	44.413958
2580.000000	44.486139
2579.000000	44.561672
2578.000000	44.641095
2577.000000	44.724401
2576.000000	44.811206
2575.000000	44.900298
2574.000000	44.989367
2573.000000	45.075593
2572.000000	45.156443
2571.000000	45.229997
2570.000000	45.295211
2569.000000	45.352274
2568.000000	45.402800
2567.000000	45.448912
2566.000000	45.492267
2565.000000	45.533976
2564.000000	45.574278
2563.000000	45.611992
2562.000000	45.643942
2561.000000	45.665616
2560.000000	45.672818
2559.000000	45.662414
2558.000000	45.633347
2557.000000	45.587503
2556.000000	45.530051
2555.000000	45.468895
2554.000000	45.413216
2553.000000	45.372186
2552.000000	45.353425
2551.000000	45.361371
2550.000000	45.396155
2549.000000	45.454574
2548.000000	45.531118
2547.000000	45.619108
2546.000000	45.712433
2545.000000	45.806665
2544.000000	45.899918
2543.000000	45.991824
2542.000000	46.082169
2541.000000	46.170731
2540.000000	46.257364
2539.000000	46.341728
2538.000000	46.423042
2537.000000	46.500609
2536.000000	46.574196
2535.000000	46.643641
2534.000000	46.708214
2533.000000	46.767167
2532.000000	46.820705
2531.000000	46.869579
2530.000000	46.914367
2529.000000	46.955581
2528.000000	46.994514
2527.000000	47.033298
2526.000000	47.073861
2525.000000	47.117280
2524.000000	47.163597
2523.000000	47.211577
2522.000000	47.258831
2521.000000	47.302767
2520.000000	47.341695
2519.000000	47.374933
2518.000000	47.402494
2517.000000	47.425552
2516.000000	47.446759
2515.000000	47.469367
2514.000000	47.495778
2513.000000	47.527054
2512.000000	47.563070
2511.000000	47.602209
2510.000000	47.641287
2509.000000	47.676856
2508.000000	47.706910
2507.000000	47.731173
2506.000000	47.750311
2505.000000	47.765847
2504.000000	47.780467
2503.000000	47.797141
2502.000000	47.817621
2501.000000	47.841973
2500.000000	47.869261
2499.000000	47.897975
2498.000000	47.926141
2497.000000	47.951948
2496.000000	47.974565
2495.000000	47.994023
2494.000000	48.010660
2493.000000	48.025173
2492.000000	48.038847
2491.000000	48.052758
2490.000000	48.066952
2489.000000	48.081078
2488.000000	48.095552
2487.000000	48.111389
2486.000000	48.129066
2485.000000	48.148241
2484.000000	48.168340
2483.000000	48.188588
2482.000000	48.207624
2481.000000	48.223916
2480.000000	48.236663
2479.000000	48.245955
2478.000000	48.252390
2477.000000	48.257296
2476.000000	48.262965
2475.000000	48.271706
2474.000000	48.284551
2473.000000	48.301208
2472.000000	48.320733
2471.000000	48.341522
2470.000000	48.361051
2469.000000	48.376773
2468.000000	48.387501
2467.000000	48.393633
2466.000000	48.396450
2465.000000	48.397935
2464.000000	48.400879
2463.000000	48.407939
2462.000000	48.420262
2461.000000	48.437198
2460.000000	48.457005
2459.000000	48.477331
2458.000000	48.495616
2457.000000	48.510072
2456.000000	48.520441
2455.000000	48.527497
2454.000000	48.532294
2453.000000	48.536378
2452.000000	48.541976
2451.000000	48.550813
2450.000000	48.562871
2449.000000	48.576978
2448.000000	48.592249
2447.000000	48.608313
2446.000000	48.624560
2445.000000	48.640200
2444.000000	48.654854
2443.000000	48.668409
2442.000000	48.680495
2441.000000	48.690820
2440.000000	48.699719
2439.000000	48.707812
2438.000000	48.715546
2437.000000	48.723738
2436.000000	48.733977
2435.000000	48.747641
2434.000000	48.764722
2433.000000	48.784209
2432.000000	48.804963
2431.000000	48.825444
2430.000000	48.843332
2429.000000	48.856687
2428.000000	48.865406
2427.000000	48.870921
2426.000000	48.875050
2425.000000	48.879942
2424.000000	48.888363
2423.000000	48.902476
2422.000000	48.922293
2421.000000	48.945904
2420.000000	48.970826
2419.000000	48.994483
2418.000000	49.014266
2417.000000	49.028611
2416.000000	49.038064
2415.000000	49.044609
2414.000000	49.050294
2413.000000	49.057157
2412.000000	49.067557
2411.000000	49.083142
2410.000000	49.103575
2409.000000	49.127108
2408.000000	49.151930
2407.000000	49.176272
2406.000000	49.198022
2405.000000	49.215790
2404.000000	49.230206
2403.000000	49.243149
2402.000000	49.255955
2401.000000	49.269193
2400.000000	49.283562
2399.000000	49.299829
2398.000000	49.318201
2397.000000	49.338732
2396.000000	49.361900
2395.000000	49.387808
2394.000000	49.415258
2393.000000	49.442624
2392.000000	49.469134
2391.000000	49.494421
2390.000000	49.517695
2389.000000	49.538462
2388.000000	49.558050
2387.000000	49.578929
2386.000000	49.603321
2385.000000	49.633531
2384.000000	49.671962
2383.000000	49.720163
2382.000000	49.776837
2381.000000	49.838507
2380.000000	49.901806
2379.000000	49.963338
2378.000000	50.019627
2377.000000	50.068103
2376.000000	50.108968
2375.000000	50.144382
2374.000000	50.177508
2373.000000	50.212178
2372.000000	50.252579
2371.000000	50.300967
2370.000000	50.355178
2369.000000	50.411142
2368.000000	50.466166
2367.000000	50.518462
2366.000000	50.565345
2365.000000	50.604774
2364.000000	50.641162
2363.000000	50.677567
2362.000000	50.712611
2361.000000	50.749818
2360.000000	50.790927
2359.000000	50.836052
2358.000000	50.883501
2357.000000	50.927705
2356.000000	50.971969
2355.000000	51.015096
2354.000000	51.058229
2353.000000	51.101880
2352.000000	51.148375
2351.000000	51.201124
2350.000000	51.247523
2349.000000	51.279164
2348.000000	51.302228
2347.000000	51.337580
2346.000000	51.402439
2345.000000	51.478647
2344.000000	51.545623
2343.000000	51.589636
2342.000000	51.621061
2341.000000	51.651579
2340.000000	51.680825
2339.000000	51.709954
2338.000000	51.736767
2337.000000	51.764123
2336.000000	51.791070
2335.000000	51.823677
2334.000000	51.863134
2333.000000	51.915001
2332.000000	51.972386
2331.000000	52.037670
2330.000000	52.097235
2329.000000	52.152299
2328.000000	52.198204
2327.000000	52.238339
2326.000000	52.276224
2325.000000	52.311464
2324.000000	52.349625
2323.000000	52.389660
2322.000000	52.431118
2321.000000	52.472661
2320.000000	52.513180
2319.000000	52.558364
2318.000000	52.605257
2317.000000	52.656548
2316.000000	52.706432
2315.000000	52.758660
2314.000000	52.806517
2313.000000	52.850351
2312.000000	52.884819
2311.000000	52.915527
2310.000000	52.943202
2309.000000	52.973328
2308.000000	53.006485
2307.000000	53.046530
2306.000000	53.091129
2305.000000	53.138491
2304.000000	53.184207
2303.000000	53.228369
2302.000000	53.267461
2301.000000	53.301132
2300.000000	53.327551
2299.000000	53.350700
2298.000000	53.371650
2297.000000	53.393788
2296.000000	53.419056
2295.000000	53.451016
2294.000000	53.489352
2293.000000	53.531482
2292.000000	53.574807
2291.000000	53.617526
2290.000000	53.657265
2289.000000	53.690458
2288.000000	53.716417
2287.000000	53.736840
2286.000000	53.754488
2285.000000	53.771127
2284.000000	53.790235
2283.000000	53.815560
2282.000000	53.848819
2281.000000	53.888398
2280.000000	53.932100
2279.000000	53.978081
2278.000000	54.023241
2277.000000	54.063797
2276.000000	54.097414
2275.000000	54.124608
2274.000000	54.146256
2273.000000	54.163687
2272.000000	54.179840
2271.000000	54.198761
2270.000000	54.222669
2269.000000	54.251620
2268.000000	54.285542
2267.000000	54.324235
2266.000000	54.364953
2265.000000	54.403172
2264.000000	54.435768
2263.000000	54.461745
2262.000000	54.480386
2261.000000	54.490970
2260.000000	54.495773
2259.000000	54.499182
2258.000000	54.504585
2257.000000	54.513206
2256.000000	54.526020
2255.000000	54.543780
2254.000000	54.564054
2253.000000	54.581975
2252.000000	54.593161
2251.000000	54.595431
2250.000000	54.586622
2249.000000	54.565150
2248.000000	54.532379
2247.000000	54.492299
2246.000000	54.448258
2245.000000	54.402015
2244.000000	54.355709
2243.000000	54.311363
2242.000000	54.268087
2241.000000	54.222357
2240.000000	54.171451
2239.000000	54.114639
2238.000000	54.051543
2237.000000	53.982509
2236.000000	53.911111
2235.000000	53.843371
2234.000000	53.784103
2233.000000	53.735796
2232.000000	53.700784
2231.000000	53.681134
2230.000000	53.675893
2229.000000	53.680913
2228.000000	53.691834
2227.000000	53.705330
2226.000000	53.717264
2225.000000	53.723063
2224.000000	53.720669
2223.000000	53.711316
2222.000000	53.697020
2221.000000	53.679693
2220.000000	53.662718
2219.000000	53.650494
2218.000000	53.645419
2217.000000	53.647047
2216.000000	53.654178
2215.000000	53.665389
2214.000000	53.677446
2213.000000	53.685948
2212.000000	53.688392
2211.000000	53.684782
2210.000000	53.675537
2209.000000	53.661408
2208.000000	53.645569
2207.000000	53.632928
2206.000000	53.626692
2205.000000	53.627405
2204.000000	53.635002
2203.000000	53.648945
2202.000000	53.666195
2201.000000	53.681820
2200.000000	53.692410
2199.000000	53.696883
2198.000000	53.694366
2197.000000	53.684275
2196.000000	53.668812
2195.000000	53.652490
2194.000000	53.638540
2193.000000	53.627867
2192.000000	53.621262
2191.000000	53.619579
2190.000000	53.621312
2189.000000	53.622748
2188.000000	53.621147
2187.000000	53.615593
2186.000000	53.604823
2185.000000	53.587436
2184.000000	53.564807
2183.000000	53.541281
2182.000000	53.520832
2181.000000	53.505857
2180.000000	53.498906
2179.000000	53.502517
2178.000000	53.516518
2177.000000	53.537855
2176.000000	53.563576
2175.000000	53.591659
2174.000000	53.619097
2173.000000	53.642176
2172.000000	53.659725
2171.000000	53.673735
2170.000000	53.686604
2169.000000	53.700281
2168.000000	53.718020
2167.000000	53.743614
2166.000000	53.778005
2165.000000	53.818838
2164.000000	53.863541
2163.000000	53.910162
2162.000000	53.955217
2161.000000	53.994120
2160.000000	54.024882
2159.000000	54.049032
2158.000000	54.068667
2157.000000	54.085503
2156.000000	54.103016
2155.000000	54.126050
2154.000000	54.157035
2153.000000	54.194797
2152.000000	54.237233
2151.000000	54.282232
2150.000000	54.325875
2149.000000	54.363275
2148.000000	54.392418
2147.000000	54.414839
2146.000000	54.432499
2145.000000	54.446689
2144.000000	54.460404
2143.000000	54.478406
2142.000000	54.503539
2141.000000	54.535462
2140.000000	54.573361
2139.000000	54.616921
2138.000000	54.664089
2137.000000	54.710929
2136.000000	54.754621
2135.000000	54.794278
2134.000000	54.828709
2133.000000	54.856621
2132.000000	54.879593
2131.000000	54.901783
2130.000000	54.925942
2129.000000	54.952442
2128.000000	54.982059
2127.000000	55.016340
2126.000000	55.054716
2125.000000	55.094289
2124.000000	55.132963
2123.000000	55.169921
2122.000000	55.203084
2121.000000	55.229552
2120.000000	55.249352
2119.000000	55.265752
2118.000000	55.281737
2117.000000	55.299292
2116.000000	55.321835
2115.000000	55.353262
2114.000000	55.393713
2113.000000	55.439355
2112.000000	55.486544
2111.000000	55.532929
2110.000000	55.574650
2109.000000	55.606981
2108.000000	55.628792
2107.000000	55.643154
2106.000000	55.653086
2105.000000	55.660446
2104.000000	55.668686
2103.000000	55.682078
2102.000000	55.701271
2101.000000	55.722558
2100.000000	55.742443
2099.000000	55.758829
2098.000000	55.768154
2097.000000	55.766325
2096.000000	55.752778
2095.000000	55.730655
2094.000000	55.702820
2093.000000	55.671536
2092.000000	55.641755
2091.000000	55.619871
2090.000000	55.608300
2089.000000	55.604847
2088.000000	55.607498
2087.000000	55.615982
2086.000000	55.628506
2085.000000	55.641790
2084.000000	55.655423
2083.000000	55.672010
2082.000000	55.692502
2081.000000	55.715202
2080.000000	55.739959
2079.000000	55.768930
2078.000000	55.802464
2077.000000	55.839327
2076.000000	55.880182
2075.000000	55.927802
2074.000000	55.982007
2073.000000	56.038866
2072.000000	56.096548
2071.000000	56.155456
2070.000000	56.212457
2069.000000	56.261119
2068.000000	56.300585
2067.000000	56.338825
2066.000000	56.384228
2065.000000	56.438381
2064.000000	56.499771
2063.000000	56.569233
2062.000000	56.647639
2061.000000	56.732240
2060.000000	56.818341
2059.000000	56.902104
2058.000000	56.979791
2057.000000	57.047978
2056.000000	57.106610
2055.000000	57.159839
2054.000000	57.211844
2053.000000	57.264634
2052.000000	57.321271
2051.000000	57.385777
2050.000000	57.457622
2049.000000	57.531239
2048.000000	57.602341
2047.000000	57.669375
2046.000000	57.729396
2045.000000	57.779054
2044.000000	57.821313
2043.000000	57.865145
2042.000000	57.916535
2041.000000	57.974622
2040.000000	58.037706
2039.000000	58.106988
2038.000000	58.182334
2037.000000	58.260111
2036.000000	58.337691
2035.000000	58.415427
2034.000000	58.492979
2033.000000	58.568358
2032.000000	58.641303
2031.000000	58.714378
2030.000000	58.787726
2029.000000	58.859039
2028.000000	58.928283
2027.000000	58.998209
2026.000000	59.069448
2025.000000	59.139522
2024.000000	59.209823
2023.000000	59.283728
2022.000000	59.358436
2021.000000	59.426431
2020.000000	59.487383
2019.000000	59.550975
2018.000000	59.624064
2017.000000	59.701672
2016.000000	59.775511
2015.000000	59.844745
2014.000000	59.913406
2013.000000	59.984527
2012.000000	60.060581
2011.000000	60.144790
2010.000000	60.237533
2009.000000	60.335380
2008.000000	60.434273
2007.000000	60.531501
2006.000000	60.624084
2005.000000	60.707804
2004.000000	60.783856
2003.000000	60.857164
2002.000000	60.932263
2001.000000	61.011108
2000.000000	61.095275
1999.000000	61.189568
1998.000000	61.292398
1997.000000	61.390377
1996.000000	61.469576
1995.000000	61.530882
1994.000000	61.588963
1993.000000	61.655791
1992.000000	61.728174
1991.000000	61.797126
1990.000000	61.862702
1989.000000	61.933378
1988.000000	62.014886
1987.000000	62.102521
1986.000000	62.186479
1985.000000	62.262029
1984.000000	62.332952
1983.000000	62.402206
1982.000000	62.467940
1981.000000	62.527851
1980.000000	62.583176
1979.000000	62.638082
1978.000000	62.692026
1977.000000	62.741520
1976.000000	62.786817
1975.000000	62.832668
1974.000000	62.881495
1973.000000	62.930503
1972.000000	62.974658
1971.000000	63.009441
1970.000000	63.034090
1969.000000	63.058849
1968.000000	63.101365
1967.000000	63.165417
1966.000000	63.232686
1965.000000	63.284697
1964.000000	63.322989
1963.000000	63.360780
1962.000000	63.403698
1961.000000	63.447708
1960.000000	63.491459
1959.000000	63.537498
1958.000000	63.583714
1957.000000	63.627043
1956.000000	63.670614
1955.000000	63.718764
1954.000000	63.765422
1953.000000	63.801778
1952.000000	63.830489
1951.000000	63.855624
1950.000000	63.875062
1949.000000	63.889726
1948.000000	63.908996
1947.000000	63.936160
1946.000000	63.958651
1945.000000	63.970279
1944.000000	63.992384
1943.000000	64.045406
1942.000000	64.111550
1941.000000	64.159600
1940.000000	64.188572
1939.000000	64.218715
1938.000000	64.255877
1937.000000	64.287785
1936.000000	64.309957
1935.000000	64.334637
1934.000000	64.367389
1933.000000	64.401617
1932.000000	64.436652
1931.000000	64.473882
1930.000000	64.513566
1929.000000	64.549547
1928.000000	64.575093
1927.000000	64.581442
1926.000000	64.557560
1925.000000	64.521835
1924.000000	64.518217
1923.000000	64.563969
1922.000000	64.627409
1921.000000	64.674618
1920.000000	64.712955
1919.000000	64.767788
1918.000000	64.826176
1917.000000	64.852656
1916.000000	64.849047
1915.000000	64.848811
1914.000000	64.859773
1913.000000	64.858278
1912.000000	64.837201
1911.000000	64.822697
1910.000000	64.842023
1909.000000	64.886816
1908.000000	64.937337
1907.000000	64.990472
1906.000000	65.043781
1905.000000	65.092434
1904.000000	65.132616
1903.000000	65.165179
1902.000000	65.192919
1901.000000	65.210930
1900.000000	65.214473
1899.000000	65.205611
1898.000000	65.186359
1897.000000	65.170177
1896.000000	65.180898
1895.000000	65.223794
1894.000000	65.269015
1893.000000	65.282332
1892.000000	65.267873
1891.000000	65.267009
1890.000000	65.298332
1889.000000	65.327687
1888.000000	65.325970
1887.000000	65.309694
1886.000000	65.305655
1885.000000	65.317235
1884.000000	65.333207
1883.000000	65.347926
1882.000000	65.364489
1881.000000	65.381185
1880.000000	65.395855
1879.000000	65.415647
1878.000000	65.440519
1877.000000	65.459962
1876.000000	65.473149
1875.000000	65.487672
1874.000000	65.497950
1873.000000	65.480839
1872.000000	65.417568
1871.000000	65.321690
1870.000000	65.245569
1869.000000	65.230303
1868.000000	65.265852
1867.000000	65.328469
1866.000000	65.403272
1865.000000	65.470204
1864.000000	65.511762
1863.000000	65.526934
1862.000000	65.523279
1861.000000	65.505332
1860.000000	65.480661
1859.000000	65.463432
1858.000000	65.460746
1857.000000	65.464071
1856.000000	65.467872
1855.000000	65.476175
1854.000000	65.493997
1853.000000	65.508509
1852.000000	65.497305
1851.000000	65.464698
1850.000000	65.427091
1849.000000	65.391709
1848.000000	65.359748
1847.000000	65.343414
1846.000000	65.360679
1845.000000	65.403390
1844.000000	65.420324
1843.000000	65.379745
1842.000000	65.313613
1841.000000	65.260874
1840.000000	65.233837
1839.000000	65.223450
1838.000000	65.213615
1837.000000	65.201309
1836.000000	65.190631
1835.000000	65.175612
1834.000000	65.134829
1833.000000	65.040910
1832.000000	64.910765
1831.000000	64.833094
1830.000000	64.842275
1829.000000	64.864751
1828.000000	64.850014
1827.000000	64.823633
1826.000000	64.818547
1825.000000	64.817138
1824.000000	64.786319
1823.000000	64.737714
1822.000000	64.699431
1821.000000	64.665904
1820.000000	64.618716
1819.000000	64.559025
1818.000000	64.497900
1817.000000	64.443758
1816.000000	64.390752
1815.000000	64.328885
1814.000000	64.250385
1813.000000	64.158468
1812.000000	64.084197
1811.000000	64.043689
1810.000000	64.013508
1809.000000	63.970857
1808.000000	63.922715
1807.000000	63.891480
1806.000000	63.879556
1805.000000	63.866682
1804.000000	63.827161
1803.000000	63.761407
1802.000000	63.696838
1801.000000	63.647121
1800.000000	63.606956
1799.000000	63.563020
1798.000000	63.510936
1797.000000	63.459307
1796.000000	63.420614
1795.000000	63.403023
1794.000000	63.405761
1793.000000	63.421910
1792.000000	63.429862
1791.000000	63.408560
1790.000000	63.375430
1789.000000	63.357516
1788.000000	63.356683
1787.000000	63.351638
1786.000000	63.311581
1785.000000	63.219415
1784.000000	63.075370
1783.000000	62.915702
1782.000000	62.797776
1781.000000	62.731406
1780.000000	62.683189
1779.000000	62.620103
1778.000000	62.540890
1777.000000	62.444990
1776.000000	62.322264
1775.000000	62.183798
1774.000000	62.084147
1773.000000	62.074349
1772.000000	62.104647
1771.000000	62.091119
1770.000000	62.023932
1769.000000	61.938364
1768.000000	61.855006
1767.000000	61.774909
1766.000000	61.700991
1765.000000	61.641829
1764.000000	61.602908
1763.000000	61.585848
1762.000000	61.557048
1761.000000	61.469080
1760.000000	61.339304
1759.000000	61.217268
1758.000000	61.138747
1757.000000	61.078682
1756.000000	60.993224
1755.000000	60.893596
1754.000000	60.806585
1753.000000	60.707925
1752.000000	60.548957
1751.000000	60.329348
1750.000000	60.109348
1749.000000	59.955585
1748.000000	59.865903
1747.000000	59.798980
1746.000000	59.722585
1745.000000	59.632932
1744.000000	59.557243
1743.000000	59.507727
1742.000000	59.459167
1741.000000	59.393028
1740.000000	59.315320
1739.000000	59.222311
1738.000000	59.113524
1737.000000	58.992296
1736.000000	58.851026
1735.000000	58.689977
1734.000000	58.455034
1733.000000	58.130555
1732.000000	57.841940
1731.000000	57.674631
1730.000000	57.599342
1729.000000	57.523035
1728.000000	57.390554
1727.000000	57.226994
1726.000000	57.053170
1725.000000	56.859771
1724.000000	56.664260
1723.000000	56.493927
1722.000000	56.331918
1721.000000	56.107996
1720.000000	55.772170
1719.000000	55.392530
1718.000000	55.060906
1717.000000	54.769358
1716.000000	54.518015
1715.000000	54.325680
1714.000000	54.158093
1713.000000	53.974686
1712.000000	53.773528
1711.000000	53.571299
1710.000000	53.360389
1709.000000	53.101459
1708.000000	52.781271
1707.000000	52.459580
1706.000000	52.193910
1705.000000	51.983414
1704.000000	51.846531
1703.000000	51.808345
1702.000000	51.761441
1701.000000	51.480863
1700.000000	50.885744
1699.000000	50.225887
1698.000000	49.786083
1697.000000	49.621331
1696.000000	49.524354
1695.000000	49.277973
1694.000000	48.939650
1693.000000	48.623920
1692.000000	48.354708
1691.000000	48.099223
1690.000000	47.822828
1689.000000	47.521313
1688.000000	47.232492
1687.000000	46.986903
1686.000000	46.749942
1685.000000	46.514659
1684.000000	46.187942
1683.000000	45.759339
1682.000000	45.404443
1681.000000	45.182643
1680.000000	45.050286
1679.000000	44.957299
1678.000000	44.868456
1677.000000	44.734757
1676.000000	44.483413
1675.000000	44.101360
1674.000000	43.690675
1673.000000	43.354842
1672.000000	43.107635
1671.000000	42.906828
1670.000000	42.688436
1669.000000	42.399811
1668.000000	42.086837
1667.000000	41.839720
1666.000000	41.665192
1665.000000	41.501236
1664.000000	41.298100
1663.000000	41.044392
1662.000000	40.757756
1661.000000	40.474836
1660.000000	40.227784
1659.000000	40.033821
1658.000000	39.880795
1657.000000	39.746077
1656.000000	39.588890
1655.000000	39.387006
1654.000000	39.159425
1653.000000	38.712548
1652.000000	38.135434
1651.000000	37.778993
1650.000000	37.608556
1649.000000	37.486290
1648.000000	37.374376
1647.000000	37.230584
1646.000000	36.992927
1645.000000	36.722801
1644.000000	36.508385
1643.000000	36.353364
1642.000000	36.224949
1641.000000	36.075804
1640.000000	35.892201
1639.000000	35.704970
1638.000000	35.540566
1637.000000	35.405856
1636.000000	35.226505
1635.000000	34.939097
1634.000000	34.651132
1633.000000	34.465885
1632.000000	34.365292
1631.000000	34.287880
1630.000000	34.179126
1629.000000	34.025134
1628.000000	33.849024
1627.000000	33.686791
1626.000000	33.554086
1625.000000	33.428868
1624.000000	33.288941
1623.000000	33.129348
1622.000000	32.976648
1621.000000	32.867825
1620.000000	32.807941
1619.000000	32.773360
1618.000000	32.734459
1617.000000	32.647324
1616.000000	32.496830
1615.000000	32.363418
1614.000000	32.310708
1613.000000	32.314002
1612.000000	32.316911
1611.000000	32.288900
1610.000000	32.244564
1609.000000	32.208683
1608.000000	32.185058
1607.000000	32.167878
1606.000000	32.159300
1605.000000	32.154709
1604.000000	32.148362
1603.000000	32.147386
1602.000000	32.159731
1601.000000	32.179510
1600.000000	32.194138
1599.000000	32.201363
1598.000000	32.205335
1597.000000	32.207515
1596.000000	32.211788
1595.000000	32.226402
1594.000000	32.254382
1593.000000	32.288203
1592.000000	32.320463
1591.000000	32.352357
1590.000000	32.386597
1589.000000	32.417389
1588.000000	32.439814
1587.000000	32.456399
1586.000000	32.473306
1585.000000	32.489958
1584.000000	32.499070
1583.000000	32.505211
1582.000000	32.515245
1581.000000	32.519918
1580.000000	32.505585
1579.000000	32.478198
1578.000000	32.459463
1577.000000	32.454711
1576.000000	32.411436
1575.000000	32.329101
1574.000000	32.296778
1573.000000	32.340585
1572.000000	32.406859
1571.000000	32.436062
1570.000000	32.409597
1569.000000	32.338451
1568.000000	32.266174
1567.000000	32.242264
1566.000000	32.271099
1565.000000	32.323165
1564.000000	32.390989
1563.000000	32.506556
1562.000000	32.693112
1561.000000	32.792845
1560.000000	32.760971
1559.000000	32.692747
1558.000000	32.562017
1557.000000	32.522854
1556.000000	32.634904
1555.000000	32.819030
1554.000000	33.001763
1553.000000	33.137027
1552.000000	33.251947
1551.000000	33.386191
1550.000000	33.550131
1549.000000	33.725423
1548.000000	33.899947
1547.000000	34.062815
1546.000000	34.194353
1545.000000	34.293115
1544.000000	34.375279
1543.000000	34.444682
1542.000000	34.506211
1541.000000	34.666986
1540.000000	34.938638
1539.000000	35.178681
1538.000000	35.389743
1537.000000	35.628532
1536.000000	35.884779
1535.000000	36.141939
1534.000000	36.397832
1533.000000	36.626691
1532.000000	36.831601
1531.000000	37.068726
1530.000000	37.354846
1529.000000	37.658869
1528.000000	37.954323
1527.000000	38.243230
1526.000000	38.527281
1525.000000	38.792784
1524.000000	39.046465
1523.000000	39.353678
1522.000000	39.768189
1521.000000	40.192544
1520.000000	40.517934
1519.000000	40.796557
1518.000000	41.144632
1517.000000	41.599642
1516.000000	42.074557
1515.000000	42.508797
1514.000000	42.925406
1513.000000	43.321579
1512.000000	43.666752
1511.000000	43.937154
1510.000000	44.135840
1509.000000	44.279813
1508.000000	44.604739
1507.000000	45.276099
1506.000000	45.948881
1505.000000	46.405760
1504.000000	46.755687
1503.000000	47.115465
1502.000000	47.536019
1501.000000	47.978236
1500.000000	48.378537
1499.000000	48.739006
1498.000000	49.122440
1497.000000	49.550116
1496.000000	49.968212
1495.000000	50.341121
1494.000000	50.684976
1493.000000	50.996741
1492.000000	51.248234
1491.000000	51.474828
1490.000000	51.763327
1489.000000	52.122910
1488.000000	52.514421
1487.000000	52.908172
1486.000000	53.275422
1485.000000	53.587168
1484.000000	53.835069
1483.000000	54.063680
1482.000000	54.315217
1481.000000	54.581379
1480.000000	54.833052
1479.000000	55.061881
1478.000000	55.252037
1477.000000	55.373465
1476.000000	55.424967
1475.000000	55.441921
1474.000000	55.485095
1473.000000	55.565531
1472.000000	55.605481
1471.000000	55.567631
1470.000000	55.488583
1469.000000	55.380272
1468.000000	55.223736
1467.000000	54.988215
1466.000000	54.642855
1465.000000	54.155729
1464.000000	53.554945
1463.000000	52.964240
1462.000000	52.456716
1461.000000	51.997912
1460.000000	51.530795
1459.000000	51.045571
1458.000000	50.521427
1457.000000	49.797969
1456.000000	48.875507
1455.000000	48.006735
1454.000000	47.237356
1453.000000	46.420017
1452.000000	45.472522
1451.000000	44.410878
1450.000000	43.225638
1449.000000	41.838235
1448.000000	40.247442
1447.000000	38.578503
1446.000000	36.927478
1445.000000	35.261540
1444.000000	33.532399
1443.000000	31.741239
1442.000000	29.902660
1441.000000	28.071657
1440.000000	26.353137
1439.000000	24.743458
1438.000000	23.000012
1437.000000	20.910915
1436.000000	18.764902
1435.000000	17.083999
1434.000000	15.931215
1433.000000	15.034007
1432.000000	14.234857
1431.000000	13.539311
1430.000000	12.956854
1429.000000	12.476309
1428.000000	12.162564
1427.000000	12.080129
1426.000000	12.178200
1425.000000	12.376762
1424.000000	12.699900
1423.000000	13.206808
1422.000000	13.863928
1421.000000	14.599728
1420.000000	15.418162
1419.000000	16.345342
1418.000000	17.309182
1417.000000	18.253231
1416.000000	19.238940
1415.000000	20.311625
1414.000000	21.421479
1413.000000	22.517875
1412.000000	23.625471
1411.000000	24.776067
1410.000000	25.934487
1409.000000	27.060436
1408.000000	28.172799
1407.000000	29.300648
1406.000000	30.442764
1405.000000	31.589774
1404.000000	32.736161
1403.000000	33.860299
1402.000000	34.937992
1401.000000	35.984955
1400.000000	37.045671
1399.000000	38.120088
1398.000000	39.158756
1397.000000	40.170397
1396.000000	41.232666
1395.000000	42.366061
1394.000000	43.486620
1393.000000	44.526221
1392.000000	45.510077
1391.000000	46.476036
1390.000000	47.420170
1389.000000	48.335880
1388.000000	49.239587
1387.000000	50.122887
1386.000000	50.943537
1385.000000	51.690839
1384.000000	52.381450
1383.000000	53.001213
1382.000000	53.509018
1381.000000	53.882921
1380.000000	54.113624
1379.000000	54.169958
1378.000000	54.013201
1377.000000	53.622811
1376.000000	52.973336
1375.000000	52.025396
1374.000000	50.768671
1373.000000	49.271246
1372.000000	47.659817
1371.000000	46.050528
1370.000000	44.564653
1369.000000	43.375266
1368.000000	42.664970
1367.000000	42.521866
1366.000000	42.906923
1365.000000	43.724693
1364.000000	44.895877
1363.000000	46.343277
1362.000000	47.927764
1361.000000	49.484306
1360.000000	50.908761
1359.000000	52.155401
1358.000000	53.194360
1357.000000	53.997263
1356.000000	54.534911
1355.000000	54.779344
1354.000000	54.709911
1353.000000	54.317016
1352.000000	53.603104
1351.000000	52.573925
1350.000000	51.246679
1349.000000	49.653165
1348.000000	47.825328
1347.000000	45.791747
1346.000000	43.583160
1345.000000	41.239894
1344.000000	38.815815
1343.000000	36.361946
1342.000000	33.907618
1341.000000	31.483764
1340.000000	29.176810
1339.000000	27.137247
1338.000000	25.504175
1337.000000	24.319936
1336.000000	23.530380
1335.000000	23.030328
1334.000000	22.681210
1333.000000	22.328514
1332.000000	21.837733
1331.000000	21.124140
1330.000000	20.158506
1329.000000	18.958813
1328.000000	17.586756
1327.000000	16.138449
1326.000000	14.715945
1325.000000	13.401456
1324.000000	12.259384
1323.000000	11.340281
1322.000000	10.660119
1321.000000	10.191286
1320.000000	9.888904
1319.000000	9.708243
1318.000000	9.599737
1317.000000	9.513511
1316.000000	9.420177
1315.000000	9.316234
1314.000000	9.201960
1313.000000	9.074724
1312.000000	8.944729
1311.000000	8.832504
1310.000000	8.746280
1309.000000	8.680132
1308.000000	8.638895
1307.000000	8.643423
1306.000000	8.707064
1305.000000	8.828047
1304.000000	9.006596
1303.000000	9.249273
1302.000000	9.552274
1301.000000	9.898415
1300.000000	10.277285
1299.000000	10.688923
1298.000000	11.127215
1297.000000	11.579356
1296.000000	12.041554
1295.000000	12.519818
1294.000000	13.012509
1293.000000	13.508044
1292.000000	13.999963
1291.000000	14.487971
1290.000000	14.962595
1289.000000	15.403734
1288.000000	15.793917
1287.000000	16.118663
1286.000000	16.357956
1285.000000	16.493369
1284.000000	16.531502
1283.000000	16.513320
1282.000000	16.498047
1281.000000	16.544103
1280.000000	16.697999
1279.000000	16.980813
1278.000000	17.377298
1277.000000	17.849515
1276.000000	18.362910
1275.000000	18.895444
1274.000000	19.429868
1273.000000	19.952194
1272.000000	20.459207
1271.000000	20.954474
1270.000000	21.437185
1269.000000	21.903391
1268.000000	22.355110
1267.000000	22.798269
1266.000000	23.233550
1265.000000	23.657213
1264.000000	24.068933
1263.000000	24.471561
1262.000000	24.864041
1261.000000	25.243659
1260.000000	25.612865
1259.000000	25.976504
1258.000000	26.334979
1257.000000	26.686053
1256.000000	27.031562
1255.000000	27.375671
1254.000000	27.718489
1253.000000	28.057350
1252.000000	28.391771
1251.000000	28.722271
1250.000000	29.046632
1249.000000	29.361980
1248.000000	29.669066
1247.000000	29.970544
1246.000000	30.266885
1245.000000	30.557577
1244.000000	30.844027
1243.000000	31.127909
1242.000000	31.408125
1241.000000	31.682682
1240.000000	31.951949
1239.000000	32.217011
1238.000000	32.477226
1237.000000	32.731666
1236.000000	32.981194
1235.000000	33.227054
1234.000000	33.468716
1233.000000	33.705308
1232.000000	33.937246
1231.000000	34.165113
1230.000000	34.388857
1229.000000	34.609178
1228.000000	34.828553
1227.000000	35.049756
1226.000000	35.274595
1225.000000	35.504229
1224.000000	35.738391
1223.000000	35.974080
1222.000000	36.207087
1221.000000	36.435203
1220.000000	36.658533
1219.000000	36.877361
1218.000000	37.092181
1217.000000	37.305252
1216.000000	37.519384
1215.000000	37.735475
1214.000000	37.952944
1213.000000	38.171625
1212.000000	38.391054
1211.000000	38.608587
1210.000000	38.821018
1209.000000	39.027322
1208.000000	39.228206
1207.000000	39.424634
1206.000000	39.618555
1205.000000	39.813479
1204.000000	40.011488
1203.000000	40.211052
1202.000000	40.409801
1201.000000	40.607012
1200.000000	40.801738
1199.000000	40.990804
1198.000000	41.170994
1197.000000	41.341103
1196.000000	41.498362
1195.000000	41.636427
1194.000000	41.748054
1193.000000	41.826696
1192.000000	41.864860
1191.000000	41.853543
1190.000000	41.789830
1189.000000	41.683817
1188.000000	41.557553
1187.000000	41.440750
1186.000000	41.365769
1185.000000	41.359114
1184.000000	41.430636
1183.000000	41.569401
1182.000000	41.750287
1181.000000	41.948965
1180.000000	42.151740
1179.000000	42.356215
1178.000000	42.567269
1177.000000	42.788818
1176.000000	43.018705
1175.000000	43.250602
1174.000000	43.480130
1173.000000	43.706380
1172.000000	43.927266
1171.000000	44.138092
1170.000000	44.336173
1169.000000	44.522909
1168.000000	44.699552
1167.000000	44.866362
1166.000000	45.027088
1165.000000	45.189259
1164.000000	45.357975
1163.000000	45.532938
1162.000000	45.712988
1161.000000	45.898112
1160.000000	46.085301
1159.000000	46.268381
1158.000000	46.444163
1157.000000	46.614201
1156.000000	46.779059
1155.000000	46.936756
1154.000000	47.088513
1153.000000	47.238914
1152.000000	47.388773
1151.000000	47.534096
1150.000000	47.674016
1149.000000	47.813481
1148.000000	47.955511
1147.000000	48.097809
1146.000000	48.238913
1145.000000	48.380398
1144.000000	48.520875
1143.000000	48.654510
1142.000000	48.778562
1141.000000	48.895924
1140.000000	49.008072
1139.000000	49.113032
1138.000000	49.211943
1137.000000	49.310712
1136.000000	49.413184
1135.000000	49.519245
1134.000000	49.630971
1133.000000	49.752246
1132.000000	49.880019
1131.000000	50.003650
1130.000000	50.115444
1129.000000	50.215566
1128.000000	50.305666
1127.000000	50.386431
1126.000000	50.463483
1125.000000	50.546621
1124.000000	50.640465
1123.000000	50.742841
1122.000000	50.853242
1121.000000	50.973811
1120.000000	51.100095
1119.000000	51.220563
1118.000000	51.328362
1117.000000	51.425495
1116.000000	51.513946
1115.000000	51.592544
1114.000000	51.665207
1113.000000	51.742283
1112.000000	51.829893
1111.000000	51.926262
1110.000000	52.030564
1109.000000	52.145070
1108.000000	52.266690
1107.000000	52.386006
1106.000000	52.497704
1105.000000	52.603229
1104.000000	52.701219
1103.000000	52.785556
1102.000000	52.855875
1101.000000	52.919747
1100.000000	52.982650
1099.000000	53.045135
1098.000000	53.111329
1097.000000	53.190118
1096.000000	53.284246
1095.000000	53.387981
1094.000000	53.497303
1093.000000	53.612477
1092.000000	53.728812
1091.000000	53.835887
1090.000000	53.929149
1089.000000	54.012952
1088.000000	54.090570
1087.000000	54.162144
1086.000000	54.234119
1085.000000	54.319208
1084.000000	54.423304
1083.000000	54.541309
1082.000000	54.666929
1081.000000	54.796237
1080.000000	54.920448
1079.000000	55.027138
1078.000000	55.112357
1077.000000	55.181126
1076.000000	55.235560
1075.000000	55.273688
1074.000000	55.300072
1073.000000	55.325770
1072.000000	55.353193
1071.000000	55.372232
1070.000000	55.371477
1069.000000	55.340260
1068.000000	55.261580
1067.000000	55.114394
1066.000000	54.890497
1065.000000	54.602165
1064.000000	54.273802
1063.000000	53.939164
1062.000000	53.644424
1061.000000	53.437518
1060.000000	53.345965
1059.000000	53.371421
1058.000000	53.499919
1057.000000	53.711085
1056.000000	53.977182
1055.000000	54.265103
1054.000000	54.550678
1053.000000	54.821470
1052.000000	55.067400
1051.000000	55.279174
1050.000000	55.458025
1049.000000	55.615915
1048.000000	55.762619
1047.000000	55.902585
1046.000000	56.043825
1045.000000	56.197196
1044.000000	56.363732
1043.000000	56.534286
1042.000000	56.702735
1041.000000	56.868546
1040.000000	57.025954
1039.000000	57.163554
1038.000000	57.278395
1037.000000	57.379714
1036.000000	57.476772
1035.000000	57.574630
1034.000000	57.682522
1033.000000	57.812832
1032.000000	57.967738
1031.000000	58.136952
1030.000000	58.310280
1029.000000	58.481510
1028.000000	58.639847
1027.000000	58.771684
1026.000000	58.874849
1025.000000	58.960328
1024.000000	59.038098
1023.000000	59.112783
1022.000000	59.193459
1021.000000	59.292670
1020.000000	59.412444
1019.000000	59.542543
1018.000000	59.674799
1017.000000	59.807798
1016.000000	59.936361
1015.000000	60.050389
1014.000000	60.147373
1013.000000	60.234609
1012.000000	60.317002
1011.000000	60.394368
1010.000000	60.471434
1009.000000	60.557561
1008.000000	60.654661
1007.000000	60.757268
1006.000000	60.865352
1005.000000	60.984550
1004.000000	61.112585
1003.000000	61.238083
1002.000000	61.354648
1001.000000	61.463886
1000.000000	61.563745
999.000000	61.647099
998.000000	61.714556
997.000000	61.776676
996.000000	61.841547
995.000000	61.911579
994.000000	61.992976
993.000000	62.094805
992.000000	62.215805
991.000000	62.343360
990.000000	62.467174
989.000000	62.583081
988.000000	62.683356
987.000000	62.758065
986.000000	62.809133
985.000000	62.851471
984.000000	62.898015
983.000000	62.954638
982.000000	63.029016
981.000000	63.129434
980.000000	63.251620
979.000000	63.378979
978.000000	63.498409
977.000000	63.605169
976.000000	63.693028
975.000000	63.754581
974.000000	63.794537
973.000000	63.829215
972.000000	63.870465
971.000000	63.920677
970.000000	63.983038
969.000000	64.062319
968.000000	64.153378
967.000000	64.242535
966.000000	64.323360
965.000000	64.399667
964.000000	64.472313
963.000000	64.536858
962.000000	64.595467
961.000000	64.657071
960.000000	64.723152
959.000000	64.786403
958.000000	64.844353
957.000000	64.901434
956.000000	64.957086
955.000000	65.006286
954.000000	65.053459
953.000000	65.111500
952.000000	65.184651
951.000000	65.265099
950.000000	65.347197
949.000000	65.430371
948.000000	65.506939
947.000000	65.563011
946.000000	65.595499
945.000000	65.614830
944.000000	65.630025
943.000000	65.644980
942.000000	65.669635
941.000000	65.718112
940.000000	65.791395
939.000000	65.874835
938.000000	65.954509
937.000000	66.023715
936.000000	66.073713
935.000000	66.094847
934.000000	66.091006
933.000000	66.079444
932.000000	66.073373
931.000000	66.076966
930.000000	66.095627
929.000000	66.134656
928.000000	66.185421
927.000000	66.227863
926.000000	66.250405
925.000000	66.254720
924.000000	66.242234
923.000000	66.211544
922.000000	66.169835
921.000000	66.130735
920.000000	66.096708
919.000000	66.056988
918.000000	66.004036
917.000000	65.937651
916.000000	65.854327
915.000000	65.748257
914.000000	65.625132
913.000000	65.500070
912.000000	65.378565
911.000000	65.253714
910.000000	65.120077
909.000000	64.975070
908.000000	64.806795
907.000000	64.596049
906.000000	64.335652
905.000000	64.034311
904.000000	63.702168
903.000000	63.347760
902.000000	62.985827
901.000000	62.631945
900.000000	62.285078
899.000000	61.926608
898.000000	61.538423
897.000000	61.107883
896.000000	60.620211
895.000000	60.063166
894.000000	59.441038
893.000000	58.773334
892.000000	58.075939
891.000000	57.356080
890.000000	56.620354
889.000000	55.871200
888.000000	55.097963
887.000000	54.281121
886.000000	53.408558
885.000000	52.478897
884.000000	51.490821
883.000000	50.444296
882.000000	49.347955
881.000000	48.215238
880.000000	47.053297
879.000000	45.862923
878.000000	44.648721
877.000000	43.418931
876.000000	42.179237
875.000000	40.935001
874.000000	39.697475
873.000000	38.480388
872.000000	37.292893
871.000000	36.140968
870.000000	35.031274
869.000000	33.970716
868.000000	32.961750
867.000000	32.004598
866.000000	31.102673
865.000000	30.260893
864.000000	29.484358
863.000000	28.775732
862.000000	28.134216
861.000000	27.555513
860.000000	27.030749
859.000000	26.550419
858.000000	26.104973
857.000000	25.684728
856.000000	25.283159
855.000000	24.899040
854.000000	24.537961
853.000000	24.208639
852.000000	23.919487
851.000000	23.678617
850.000000	23.490912
849.000000	23.357003
848.000000	23.274154
847.000000	23.238842
846.000000	23.249132
845.000000	23.301886
844.000000	23.394931
843.000000	23.531353
842.000000	23.718813
841.000000	23.965972
840.000000	24.277798
839.000000	24.658836
838.000000	25.113022
837.000000	25.638226
836.000000	26.226409
835.000000	26.870567
834.000000	27.564871
833.000000	28.289854
832.000000	28.993886
831.000000	29.558124
830.000000	29.748701
829.000000	29.207773
828.000000	27.616300
827.000000	25.022485
826.000000	22.027881
825.000000	19.546295
824.000000	18.261123
823.000000	18.265732
822.000000	19.188174
821.000000	20.580887
820.000000	22.143157
819.000000	23.699849
818.000000	25.140126
817.000000	26.413163
816.000000	27.531921
815.000000	28.529088
814.000000	29.427339
813.000000	30.249375
812.000000	31.022316
811.000000	31.759461
810.000000	32.457164
809.000000	33.114934
808.000000	33.737755
807.000000	34.322868
806.000000	34.861030
805.000000	35.354759
804.000000	35.817745
803.000000	36.256773
802.000000	36.673501
801.000000	37.079860
800.000000	37.494502
799.000000	37.924551
798.000000	38.365134
797.000000	38.813649
796.000000	39.267794
795.000000	39.714085
794.000000	40.135418
793.000000	40.528005
792.000000	40.898650
791.000000	41.251021
790.000000	41.588455
789.000000	41.923667
788.000000	42.270228
787.000000	42.628627
786.000000	42.992232
785.000000	43.360607
784.000000	43.734743
783.000000	44.106058
782.000000	44.463467
781.000000	44.805672
780.000000	45.135083
779.000000	45.447091
778.000000	45.737010
777.000000	46.010606
776.000000	46.276432
775.000000	46.535467
774.000000	46.789198
773.000000	47.048551
772.000000	47.323058
771.000000	47.608831
770.000000	47.897403
769.000000	48.187033
768.000000	48.473346
767.000000	48.739083
766.000000	48.967293
765.000000	49.157916
764.000000	49.321719
763.000000	49.467436
762.000000	49.606255
761.000000	49.758300
760.000000	49.940430
759.000000	50.153037
758.000000	50.386860
757.000000	50.633117
756.000000	50.877636
755.000000	51.097303
754.000000	51.276447
753.000000	51.419829
752.000000	51.541329
751.000000	51.650996
750.000000	51.761688
749.000000	51.894213
748.000000	52.061660
747.000000	52.257431
746.000000	52.468295
745.000000	52.687919
744.000000	52.907802
743.000000	53.109245
742.000000	53.278327
741.000000	53.418940
740.000000	53.540444
739.000000	53.644473
738.000000	53.734361
737.000000	53.823422
736.000000	53.921066
735.000000	54.022122
734.000000	54.120983
733.000000	54.223183
732.000000	54.331739
731.000000	54.435532
730.000000	54.522813
729.000000	54.592449
728.000000	54.641993
727.000000	54.660192
726.000000	54.643716
725.000000	54.609535
724.000000	54.579819
723.000000	54.567229
722.000000	54.584949
721.000000	54.654298
720.000000	54.786133
719.000000	54.966340
718.000000	55.172014
717.000000	55.388305
716.000000	55.598556
715.000000	55.777660
714.000000	55.913179
713.000000	56.020133
712.000000	56.122440
711.000000	56.234056
710.000000	56.368835
709.000000	56.547708
708.000000	56.778267
707.000000	57.041427
706.000000	57.310221
705.000000	57.567765
704.000000	57.797392
703.000000	57.975465
702.000000	58.093994
701.000000	58.175175
700.000000	58.247510
699.000000	58.324964
698.000000	58.419166
697.000000	58.549750
696.000000	58.723493
695.000000	58.918915
694.000000	59.111963
693.000000	59.298730
692.000000	59.476161
691.000000	59.626514
690.000000	59.740177
689.000000	59.833896
688.000000	59.924957
687.000000	60.006814
686.000000	60.075487
685.000000	60.153687
684.000000	60.262154
683.000000	60.393115
682.000000	60.536089
681.000000	60.702355
680.000000	60.896824
679.000000	61.093382
678.000000	61.266726
677.000000	61.414565
676.000000	61.533203
675.000000	61.608570
674.000000	61.645539
673.000000	61.681414
672.000000	61.754963
671.000000	61.883699
670.000000	62.080452
669.000000	62.368377
668.000000	62.679094
667.000000	62.878306
666.000000	62.975323
665.000000	63.041553
664.000000	63.091337
663.000000	63.123674
662.000000	63.138785
661.000000	63.154871
660.000000	63.195832
659.000000	63.282700
658.000000	63.429068
657.000000	63.631085
656.000000	63.864834
655.000000	64.101806
654.000000	64.316780
653.000000	64.488264
652.000000	64.606588
651.000000	64.679469
650.000000	64.726873
649.000000	64.768682
648.000000	64.819991
647.000000	64.894758
646.000000	65.004433
645.000000	65.152007
644.000000	65.327487
643.000000	65.511976
642.000000	65.690371
641.000000	65.855973
640.000000	66.003723
639.000000	66.128942
638.000000	66.233387
637.000000	66.325088
636.000000	66.410295
635.000000	66.491364
634.000000	66.576003
633.000000	66.679335
632.000000	66.812275
631.000000	66.976310
630.000000	67.170115
629.000000	67.388712
628.000000	67.614220
627.000000	67.820168
626.000000	67.990133
625.000000	68.124334
624.000000	68.224116
623.000000	68.288074
622.000000	68.332834
621.000000	68.396816
620.000000	68.511917
619.000000	68.685014
618.000000	68.911203
617.000000	69.185288
616.000000	69.487496
615.000000	69.776273
614.000000	70.011853
613.000000	70.178099
612.000000	70.274415
611.000000	70.307494
610.000000	70.299733
609.000000	70.281395
608.000000	70.260445
607.000000	70.202176
606.000000	70.041834
605.000000	69.684547
604.000000	68.975415
603.000000	67.695058
602.000000	65.590014
601.000000	62.455235
600.000000	58.267753
599.000000	53.342316
598.000000	48.353255
597.000000	44.110988
596.000000	41.251708
595.000000	40.035174
594.000000	40.310613
593.000000	41.653324
592.000000	43.604622
591.000000	45.795973
590.000000	47.962067
589.000000	49.960346
588.000000	51.752966
587.000000	53.354869
586.000000	54.786732
585.000000	56.063889
584.000000	57.197536
583.000000	58.200508
582.000000	59.097929
581.000000	59.928614
580.000000	60.721714
579.000000	61.472834
578.000000	62.167742
577.000000	62.807860
576.000000	63.395941
575.000000	63.914805
574.000000	64.341504
573.000000	64.676985
572.000000	64.938127
571.000000	65.144368
570.000000	65.332704
569.000000	65.557843
568.000000	65.854300
567.000000	66.209714
566.000000	66.587716
565.000000	66.960619
564.000000	67.302340
563.000000	67.577392
562.000000	67.765127
561.000000	67.880995
560.000000	67.956491
559.000000	68.017002
558.000000	68.093858
557.000000	68.227097
556.000000	68.434299
555.000000	68.693764
554.000000	68.971182
553.000000	69.243498
552.000000	69.485893
551.000000	69.666187
550.000000	69.776564
549.000000	69.846652
548.000000	69.907818
547.000000	69.972846
546.000000	70.059956
545.000000	70.198543
544.000000	70.390769
543.000000	70.601360
542.000000	70.802243
541.000000	70.998439
540.000000	71.194359
539.000000	71.371110
538.000000	71.518737
537.000000	71.655198
536.000000	71.788809
535.000000	71.896495
534.000000	71.964722
533.000000	72.019869
532.000000	72.092113
531.000000	72.185886
530.000000	72.307533
529.000000	72.480611
528.000000	72.706438
527.000000	72.945108
526.000000	73.157983
525.000000	73.330589
524.000000	73.437746
523.000000	73.430309
522.000000	73.280971
521.000000	73.007418
520.000000	72.636315
519.000000	72.178760
518.000000	71.665928
517.000000	71.172697
516.000000	70.769732
515.000000	70.485044
514.000000	70.326779
513.000000	70.300275
512.000000	70.370206
511.000000	70.446631
510.000000	70.444523
509.000000	70.332424
508.000000	70.091923
507.000000	69.677189
506.000000	69.035063
505.000000	68.123985
504.000000	66.904558
503.000000	65.394484
502.000000	63.793099
501.000000	62.441192
500.000000	61.588306
499.000000	61.270546
498.000000	61.399322
497.000000	61.848684
496.000000	62.465921
495.000000	63.092005
494.000000	63.619235
493.000000	64.034759
492.000000	64.387027
491.000000	64.739165
490.000000	65.157272
489.000000	65.687488
488.000000	66.305870
487.000000	66.925979
486.000000	67.484279
485.000000	67.992982
484.000000	68.490834
483.000000	68.983733
482.000000	69.471343
481.000000	69.981802
480.000000	70.533528
479.000000	71.104068
478.000000	71.663986
477.000000	72.200221
476.000000	72.678980
475.000000	73.030397
474.000000	73.221024
473.000000	73.320779
472.000000	73.429909
471.000000	73.563462
470.000000	73.702243
469.000000	73.875852
468.000000	74.115012
467.000000	74.394214
466.000000	74.662956
465.000000	74.903033
464.000000	75.090513
463.000000	75.169154
462.000000	75.131377
461.000000	75.057908
460.000000	75.007769
459.000000	74.949303
458.000000	74.884171
457.000000	74.913385
456.000000	75.072609
455.000000	75.276884
454.000000	75.445587
453.000000	75.568248
452.000000	75.654352
451.000000	75.663372
450.000000	75.539078
449.000000	75.273314
448.000000	74.879834
447.000000	74.345829
446.000000	73.650565
445.000000	72.774604
444.000000	71.650984
443.000000	70.183997
442.000000	68.350780
441.000000	66.235084
440.000000	63.935316
439.000000	61.518070
438.000000	59.082920
437.000000	56.853004
436.000000	55.137585
435.000000	54.164231
434.000000	53.955606
433.000000	54.401569
432.000000	55.394033
431.000000	56.802936
430.000000	58.460684
429.000000	60.235348
428.000000	62.035739
427.000000	63.748087
426.000000	65.278826
425.000000	66.641672
424.000000	67.876805
423.000000	68.945398
422.000000	69.823387
421.000000	70.609523
420.000000	71.410631
419.000000	72.291448
418.000000	73.217183
417.000000	74.039324
416.000000	74.738517
415.000000	75.308261
414.000000	75.701532
413.000000	75.988412
412.000000	76.256098
411.000000	76.443906
410.000000	76.511896
409.000000	76.632619
408.000000	76.960381
407.000000	77.368578
406.000000	77.726716
405.000000	78.084716
404.000000	78.498270
403.000000	78.781942
402.000000	78.750297
401.000000	78.495362
400.000000	78.183314
