PE IR       SUBTECH     SPECTRUM    ASCII       PEDS        4.00        
   -1
23ms035_nitrito.asc
24/09/03
16:44:26.00
24/09/03
16:44:26.00
Administrator
Sample 1099 By Administrator Date Tuesday, September 03 2024
400.000000
#HDR
-1
-1
#GR
cm-1
%T
1.0
0.0
4000.000000
-1.000000
3601
8
81.026083
10.304551
#DATA
4000.000000	65.091956
3999.000000	65.139022
3998.000000	65.186112
3997.000000	65.232897
3996.000000	65.279290
3995.000000	65.325051
3994.000000	65.369860
3993.000000	65.413837
3992.000000	65.457742
3991.000000	65.502419
3990.000000	65.548106
3989.000000	65.594583
3988.000000	65.641721
3987.000000	65.689363
3986.000000	65.736726
3985.000000	65.782477
3984.000000	65.825721
3983.000000	65.866878
3982.000000	65.907516
3981.000000	65.949307
3980.000000	65.992987
3979.000000	66.038106
3978.000000	66.083473
3977.000000	66.127885
3976.000000	66.170879
3975.000000	66.213153
3974.000000	66.255890
3973.000000	66.299416
3972.000000	66.342867
3971.000000	66.385161
3970.000000	66.425932
3969.000000	66.465524
3968.000000	66.504761
3967.000000	66.544403
3966.000000	66.584741
3965.000000	66.625479
3964.000000	66.665997
3963.000000	66.705904
3962.000000	66.745249
3961.000000	66.784185
3960.000000	66.822954
3959.000000	66.861998
3958.000000	66.901605
3957.000000	66.941484
3956.000000	66.981568
3955.000000	67.022251
3954.000000	67.063786
3953.000000	67.105792
3952.000000	67.147411
3951.000000	67.187992
3950.000000	67.227214
3949.000000	67.265749
3948.000000	67.305188
3947.000000	67.346263
3946.000000	67.388354
3945.000000	67.431194
3944.000000	67.475459
3943.000000	67.521434
3942.000000	67.568177
3941.000000	67.614764
3940.000000	67.661721
3939.000000	67.710332
3938.000000	67.760706
3937.000000	67.810578
3936.000000	67.857257
3935.000000	67.899892
3934.000000	67.939320
3933.000000	67.976782
3932.000000	68.013902
3931.000000	68.053906
3930.000000	68.099603
3929.000000	68.150017
3928.000000	68.200458
3927.000000	68.247292
3926.000000	68.291839
3925.000000	68.336358
3924.000000	68.380015
3923.000000	68.421961
3922.000000	68.464477
3921.000000	68.509735
3920.000000	68.555816
3919.000000	68.599035
3918.000000	68.639622
3917.000000	68.680814
3916.000000	68.724039
3915.000000	68.768814
3914.000000	68.815529
3913.000000	68.864366
3912.000000	68.913455
3911.000000	68.959714
3910.000000	69.002784
3909.000000	69.043639
3908.000000	69.083842
3907.000000	69.125446
3906.000000	69.171604
3905.000000	69.223377
3904.000000	69.274835
3903.000000	69.318398
3902.000000	69.353305
3901.000000	69.385981
3900.000000	69.423072
3899.000000	69.465216
3898.000000	69.509382
3897.000000	69.554774
3896.000000	69.602268
3895.000000	69.651437
3894.000000	69.701538
3893.000000	69.752374
3892.000000	69.805317
3891.000000	69.858795
3890.000000	69.908485
3889.000000	69.951261
3888.000000	69.991051
3887.000000	70.036665
3886.000000	70.088914
3885.000000	70.136765
3884.000000	70.173031
3883.000000	70.203373
3882.000000	70.238390
3881.000000	70.282180
3880.000000	70.330100
3879.000000	70.376872
3878.000000	70.421296
3877.000000	70.464252
3876.000000	70.508750
3875.000000	70.557287
3874.000000	70.606323
3873.000000	70.649573
3872.000000	70.689633
3871.000000	70.738081
3870.000000	70.795564
3869.000000	70.847011
3868.000000	70.884999
3867.000000	70.919259
3866.000000	70.963038
3865.000000	71.014173
3864.000000	71.059919
3863.000000	71.099286
3862.000000	71.141268
3861.000000	71.186177
3860.000000	71.228892
3859.000000	71.266157
3858.000000	71.298793
3857.000000	71.329220
3856.000000	71.370499
3855.000000	71.447347
3854.000000	71.549189
3853.000000	71.625615
3852.000000	71.664202
3851.000000	71.693004
3850.000000	71.729703
3849.000000	71.772608
3848.000000	71.814269
3847.000000	71.852812
3846.000000	71.892695
3845.000000	71.937155
3844.000000	71.987327
3843.000000	72.042924
3842.000000	72.100485
3841.000000	72.157703
3840.000000	72.219139
3839.000000	72.285089
3838.000000	72.347497
3837.000000	72.399549
3836.000000	72.443737
3835.000000	72.486763
3834.000000	72.531995
3833.000000	72.580395
3832.000000	72.630976
3831.000000	72.679581
3830.000000	72.723066
3829.000000	72.762487
3828.000000	72.803287
3827.000000	72.850815
3826.000000	72.903557
3825.000000	72.953782
3824.000000	73.000758
3823.000000	73.055693
3822.000000	73.126012
3821.000000	73.198891
3820.000000	73.259518
3819.000000	73.310040
3818.000000	73.362046
3817.000000	73.423781
3816.000000	73.485745
3815.000000	73.531232
3814.000000	73.561265
3813.000000	73.591912
3812.000000	73.632251
3811.000000	73.677650
3810.000000	73.722200
3809.000000	73.771578
3808.000000	73.836350
3807.000000	73.912234
3806.000000	73.981967
3805.000000	74.036073
3804.000000	74.080977
3803.000000	74.130639
3802.000000	74.190206
3801.000000	74.245860
3800.000000	74.290806
3799.000000	74.336243
3798.000000	74.391087
3797.000000	74.452060
3796.000000	74.508016
3795.000000	74.554164
3794.000000	74.596265
3793.000000	74.643003
3792.000000	74.695684
3791.000000	74.749957
3790.000000	74.803680
3789.000000	74.858068
3788.000000	74.913364
3787.000000	74.967822
3786.000000	75.020400
3785.000000	75.072650
3784.000000	75.126477
3783.000000	75.182967
3782.000000	75.244697
3781.000000	75.314019
3780.000000	75.387016
3779.000000	75.452796
3778.000000	75.504185
3777.000000	75.544215
3776.000000	75.582972
3775.000000	75.627787
3774.000000	75.678526
3773.000000	75.732842
3772.000000	75.793525
3771.000000	75.863354
3770.000000	75.934841
3769.000000	75.996524
3768.000000	76.046617
3767.000000	76.091680
3766.000000	76.138901
3765.000000	76.191219
3764.000000	76.246868
3763.000000	76.304518
3762.000000	76.366775
3761.000000	76.434663
3760.000000	76.500800
3759.000000	76.557154
3758.000000	76.609056
3757.000000	76.665221
3756.000000	76.725962
3755.000000	76.787506
3754.000000	76.850504
3753.000000	76.919174
3752.000000	76.988818
3751.000000	77.049437
3750.000000	77.105012
3749.000000	77.167360
3748.000000	77.234308
3747.000000	77.293985
3746.000000	77.349998
3745.000000	77.409401
3744.000000	77.461389
3743.000000	77.507897
3742.000000	77.568409
3741.000000	77.648587
3740.000000	77.734622
3739.000000	77.806202
3738.000000	77.858848
3737.000000	77.904769
3736.000000	77.955939
3735.000000	78.017473
3734.000000	78.088283
3733.000000	78.162944
3732.000000	78.233417
3731.000000	78.295960
3730.000000	78.351733
3729.000000	78.401936
3728.000000	78.449493
3727.000000	78.497746
3726.000000	78.546002
3725.000000	78.594540
3724.000000	78.648638
3723.000000	78.712348
3722.000000	78.782154
3721.000000	78.852104
3720.000000	78.920226
3719.000000	78.987328
3718.000000	79.054875
3717.000000	79.118866
3716.000000	79.173142
3715.000000	79.218607
3714.000000	79.263387
3713.000000	79.315183
3712.000000	79.375376
3711.000000	79.443232
3710.000000	79.518244
3709.000000	79.594433
3708.000000	79.664837
3707.000000	79.726264
3706.000000	79.778342
3705.000000	79.824443
3704.000000	79.871211
3703.000000	79.925175
3702.000000	79.985999
3701.000000	80.048726
3700.000000	80.109742
3699.000000	80.166782
3698.000000	80.218184
3697.000000	80.262615
3696.000000	80.299449
3695.000000	80.333057
3694.000000	80.372517
3693.000000	80.424601
3692.000000	80.491675
3691.000000	80.570606
3690.000000	80.648362
3689.000000	80.703364
3688.000000	80.728672
3687.000000	80.741458
3686.000000	80.759991
3685.000000	80.788762
3684.000000	80.821655
3683.000000	80.848972
3682.000000	80.865913
3681.000000	80.878613
3680.000000	80.895810
3679.000000	80.916862
3678.000000	80.932777
3677.000000	80.943067
3676.000000	80.950611
3675.000000	80.958624
3674.000000	80.978810
3673.000000	81.008413
3672.000000	81.026083
3671.000000	81.015179
3670.000000	80.975369
3669.000000	80.928258
3668.000000	80.902433
3667.000000	80.903411
3666.000000	80.912960
3665.000000	80.910613
3664.000000	80.888378
3663.000000	80.851421
3662.000000	80.811473
3661.000000	80.775769
3660.000000	80.740664
3659.000000	80.695915
3658.000000	80.632329
3657.000000	80.550397
3656.000000	80.462298
3655.000000	80.386709
3654.000000	80.332170
3653.000000	80.288113
3652.000000	80.234356
3651.000000	80.151720
3650.000000	80.027502
3649.000000	79.870440
3648.000000	79.713494
3647.000000	79.584685
3646.000000	79.485805
3645.000000	79.398990
3644.000000	79.305600
3643.000000	79.198581
3642.000000	79.082376
3641.000000	78.963023
3640.000000	78.843814
3639.000000	78.726265
3638.000000	78.607999
3637.000000	78.481317
3636.000000	78.339107
3635.000000	78.186797
3634.000000	78.040085
3633.000000	77.908258
3632.000000	77.781323
3631.000000	77.635506
3630.000000	77.450720
3629.000000	77.229743
3628.000000	77.012125
3627.000000	76.840862
3626.000000	76.717595
3625.000000	76.614684
3624.000000	76.508296
3623.000000	76.387468
3622.000000	76.246626
3621.000000	76.080050
3620.000000	75.886134
3619.000000	75.678450
3618.000000	75.483026
3617.000000	75.315106
3616.000000	75.167314
3615.000000	75.022951
3614.000000	74.870866
3613.000000	74.710749
3612.000000	74.548770
3611.000000	74.386373
3610.000000	74.216242
3609.000000	74.033824
3608.000000	73.850383
3607.000000	73.686233
3606.000000	73.550009
3605.000000	73.430976
3604.000000	73.310660
3603.000000	73.176542
3602.000000	73.026010
3601.000000	72.864909
3600.000000	72.702529
3599.000000	72.545631
3598.000000	72.393408
3597.000000	72.238673
3596.000000	72.076900
3595.000000	71.913258
3594.000000	71.757176
3593.000000	71.614917
3592.000000	71.485640
3591.000000	71.359255
3590.000000	71.220498
3589.000000	71.059676
3588.000000	70.884256
3587.000000	70.716455
3586.000000	70.572592
3585.000000	70.448535
3584.000000	70.328827
3583.000000	70.201378
3582.000000	70.062268
3581.000000	69.915025
3580.000000	69.767418
3579.000000	69.625808
3578.000000	69.489623
3577.000000	69.352931
3576.000000	69.211314
3575.000000	69.065651
3574.000000	68.920377
3573.000000	68.780580
3572.000000	68.650015
3571.000000	68.524940
3570.000000	68.391486
3569.000000	68.234220
3568.000000	68.051621
3567.000000	67.863423
3566.000000	67.696523
3565.000000	67.562271
3564.000000	67.451289
3563.000000	67.345369
3562.000000	67.228843
3561.000000	67.095527
3560.000000	66.950043
3559.000000	66.801355
3558.000000	66.654819
3557.000000	66.510701
3556.000000	66.367921
3555.000000	66.225628
3554.000000	66.082722
3553.000000	65.938995
3552.000000	65.797300
3551.000000	65.660541
3550.000000	65.526032
3549.000000	65.386631
3548.000000	65.237831
3547.000000	65.082365
3546.000000	64.928320
3545.000000	64.783301
3544.000000	64.649862
3543.000000	64.524421
3542.000000	64.399755
3541.000000	64.270191
3540.000000	64.135340
3539.000000	63.998028
3538.000000	63.860151
3537.000000	63.722552
3536.000000	63.587933
3535.000000	63.459958
3534.000000	63.338565
3533.000000	63.219779
3532.000000	63.099832
3531.000000	62.977827
3530.000000	62.854745
3529.000000	62.732851
3528.000000	62.615678
3527.000000	62.505063
3526.000000	62.397771
3525.000000	62.287598
3524.000000	62.171592
3523.000000	62.052430
3522.000000	61.934854
3521.000000	61.821803
3520.000000	61.714255
3519.000000	61.611834
3518.000000	61.512491
3517.000000	61.413415
3516.000000	61.312778
3515.000000	61.209545
3514.000000	61.101898
3513.000000	60.988512
3512.000000	60.871000
3511.000000	60.753128
3510.000000	60.638125
3509.000000	60.528307
3508.000000	60.425123
3507.000000	60.326924
3506.000000	60.227845
3505.000000	60.121583
3504.000000	60.006724
3503.000000	59.887321
3502.000000	59.769000
3501.000000	59.655656
3500.000000	59.548450
3499.000000	59.444956
3498.000000	59.339785
3497.000000	59.228817
3496.000000	59.113149
3495.000000	58.997308
3494.000000	58.884239
3493.000000	58.774082
3492.000000	58.666287
3491.000000	58.559542
3490.000000	58.450496
3489.000000	58.336125
3488.000000	58.217316
3487.000000	58.097833
3486.000000	57.980348
3485.000000	57.865654
3484.000000	57.754498
3483.000000	57.647092
3482.000000	57.541050
3481.000000	57.432554
3480.000000	57.319536
3479.000000	57.201996
3478.000000	57.080475
3477.000000	56.956711
3476.000000	56.834757
3475.000000	56.718548
3474.000000	56.608537
3473.000000	56.502393
3472.000000	56.397980
3471.000000	56.293425
3470.000000	56.185525
3469.000000	56.071437
3468.000000	55.951903
3467.000000	55.830382
3466.000000	55.709432
3465.000000	55.589761
3464.000000	55.471725
3463.000000	55.355285
3462.000000	55.239090
3461.000000	55.121940
3460.000000	55.004661
3459.000000	54.888863
3458.000000	54.774811
3457.000000	54.661902
3456.000000	54.549765
3455.000000	54.437020
3454.000000	54.320817
3453.000000	54.200085
3452.000000	54.077679
3451.000000	53.957475
3450.000000	53.840551
3449.000000	53.725843
3448.000000	53.612677
3447.000000	53.500513
3446.000000	53.387617
3445.000000	53.272044
3444.000000	53.153222
3443.000000	53.031662
3442.000000	52.908763
3441.000000	52.787700
3440.000000	52.672135
3439.000000	52.562074
3438.000000	52.452611
3437.000000	52.338328
3436.000000	52.217333
3435.000000	52.090179
3434.000000	51.957910
3433.000000	51.823234
3432.000000	51.690441
3431.000000	51.561568
3430.000000	51.433921
3429.000000	51.303094
3428.000000	51.167207
3427.000000	51.026974
3426.000000	50.884139
3425.000000	50.741400
3424.000000	50.601590
3423.000000	50.464763
3422.000000	50.327353
3421.000000	50.185786
3420.000000	50.039407
3419.000000	49.888726
3418.000000	49.733417
3417.000000	49.573926
3416.000000	49.412910
3415.000000	49.252871
3414.000000	49.093621
3413.000000	48.933535
3412.000000	48.771240
3411.000000	48.604701
3410.000000	48.430745
3409.000000	48.247609
3408.000000	48.057088
3407.000000	47.862809
3406.000000	47.667723
3405.000000	47.473764
3404.000000	47.281479
3403.000000	47.088461
3402.000000	46.889611
3401.000000	46.680693
3400.000000	46.460934
3399.000000	46.231920
3398.000000	45.996223
3397.000000	45.757505
3396.000000	45.518887
3395.000000	45.279544
3394.000000	45.034515
3393.000000	44.779437
3392.000000	44.513903
3391.000000	44.239549
3390.000000	43.958066
3389.000000	43.671752
3388.000000	43.383231
3387.000000	43.092533
3386.000000	42.796295
3385.000000	42.491540
3384.000000	42.177725
3383.000000	41.854822
3382.000000	41.522362
3381.000000	41.181663
3380.000000	40.836441
3379.000000	40.488969
3378.000000	40.137797
3377.000000	39.780389
3376.000000	39.415375
3375.000000	39.041691
3374.000000	38.658317
3373.000000	38.266493
3372.000000	37.869767
3371.000000	37.469827
3370.000000	37.065064
3369.000000	36.653747
3368.000000	36.235933
3367.000000	35.811498
3366.000000	35.379272
3365.000000	34.939945
3364.000000	34.496641
3363.000000	34.051369
3362.000000	33.603731
3361.000000	33.153627
3360.000000	32.702225
3359.000000	32.249009
3358.000000	31.791145
3357.000000	31.327609
3356.000000	30.860929
3355.000000	30.394035
3354.000000	29.928139
3353.000000	29.464272
3352.000000	29.003727
3351.000000	28.545746
3350.000000	28.087652
3349.000000	27.628229
3348.000000	27.168430
3347.000000	26.708679
3346.000000	26.248892
3345.000000	25.791326
3344.000000	25.339713
3343.000000	24.894910
3342.000000	24.454429
3341.000000	24.016654
3340.000000	23.582236
3339.000000	23.151415
3338.000000	22.723921
3337.000000	22.301666
3336.000000	21.887899
3335.000000	21.483045
3334.000000	21.084700
3333.000000	20.691928
3332.000000	20.305583
3331.000000	19.924939
3330.000000	19.547957
3329.000000	19.175088
3328.000000	18.809533
3327.000000	18.453172
3326.000000	18.105955
3325.000000	17.768724
3324.000000	17.442327
3323.000000	17.124724
3322.000000	16.812511
3321.000000	16.505613
3320.000000	16.206952
3319.000000	15.917527
3318.000000	15.636342
3317.000000	15.363903
3316.000000	15.101640
3315.000000	14.848379
3314.000000	14.600995
3313.000000	14.358872
3312.000000	14.123587
3311.000000	13.894988
3310.000000	13.672161
3309.000000	13.457059
3308.000000	13.253418
3307.000000	13.062113
3306.000000	12.881443
3305.000000	12.711531
3304.000000	12.553330
3303.000000	12.404726
3302.000000	12.261853
3301.000000	12.123714
3300.000000	11.991887
3299.000000	11.865970
3298.000000	11.744077
3297.000000	11.627028
3296.000000	11.517359
3295.000000	11.415190
3294.000000	11.318881
3293.000000	11.229426
3292.000000	11.149790
3291.000000	11.079754
3290.000000	11.016128
3289.000000	10.956987
3288.000000	10.902227
3287.000000	10.850803
3286.000000	10.801249
3285.000000	10.754868
3284.000000	10.714066
3283.000000	10.678488
3282.000000	10.646247
3281.000000	10.617590
3280.000000	10.593784
3279.000000	10.573270
3278.000000	10.553284
3277.000000	10.534358
3276.000000	10.519042
3275.000000	10.507268
3274.000000	10.496959
3273.000000	10.488478
3272.000000	10.484423
3271.000000	10.485457
3270.000000	10.490137
3269.000000	10.497899
3268.000000	10.508569
3267.000000	10.520168
3266.000000	10.530822
3265.000000	10.541996
3264.000000	10.556212
3263.000000	10.572529
3262.000000	10.588040
3261.000000	10.602399
3260.000000	10.617271
3259.000000	10.632620
3258.000000	10.647462
3257.000000	10.663367
3256.000000	10.683084
3255.000000	10.706461
3254.000000	10.731075
3253.000000	10.755831
3252.000000	10.780570
3251.000000	10.803510
3250.000000	10.823056
3249.000000	10.841312
3248.000000	10.862246
3247.000000	10.887118
3246.000000	10.914510
3245.000000	10.943343
3244.000000	10.972642
3243.000000	10.999901
3242.000000	11.023396
3241.000000	11.045055
3240.000000	11.067902
3239.000000	11.091894
3238.000000	11.115205
3237.000000	11.137765
3236.000000	11.160301
3235.000000	11.181812
3234.000000	11.201575
3233.000000	11.221915
3232.000000	11.245327
3231.000000	11.270414
3230.000000	11.294202
3229.000000	11.316675
3228.000000	11.339373
3227.000000	11.361285
3226.000000	11.380049
3225.000000	11.395871
3224.000000	11.410540
3223.000000	11.424061
3222.000000	11.435740
3221.000000	11.447110
3220.000000	11.460106
3219.000000	11.473472
3218.000000	11.484470
3217.000000	11.492757
3216.000000	11.499413
3215.000000	11.503909
3214.000000	11.505491
3213.000000	11.506027
3212.000000	11.507787
3211.000000	11.509696
3210.000000	11.509164
3209.000000	11.505985
3208.000000	11.501302
3207.000000	11.494459
3206.000000	11.484357
3205.000000	11.472479
3204.000000	11.460933
3203.000000	11.448986
3202.000000	11.434721
3201.000000	11.418463
3200.000000	11.401446
3199.000000	11.382698
3198.000000	11.360722
3197.000000	11.336662
3196.000000	11.312528
3195.000000	11.288040
3194.000000	11.262210
3193.000000	11.236169
3192.000000	11.211065
3191.000000	11.184990
3190.000000	11.155483
3189.000000	11.123343
3188.000000	11.090875
3187.000000	11.058306
3186.000000	11.025125
3185.000000	10.992815
3184.000000	10.962658
3183.000000	10.932726
3182.000000	10.900576
3181.000000	10.867204
3180.000000	10.835006
3179.000000	10.803801
3178.000000	10.772214
3177.000000	10.741071
3176.000000	10.711864
3175.000000	10.683617
3174.000000	10.654704
3173.000000	10.625963
3172.000000	10.598849
3171.000000	10.572484
3170.000000	10.545742
3169.000000	10.520232
3168.000000	10.497929
3167.000000	10.477739
3166.000000	10.457652
3165.000000	10.438173
3164.000000	10.420449
3163.000000	10.403307
3162.000000	10.385533
3161.000000	10.369028
3160.000000	10.356247
3159.000000	10.346468
3158.000000	10.337786
3157.000000	10.330344
3156.000000	10.324481
3155.000000	10.318231
3154.000000	10.310491
3153.000000	10.304555
3152.000000	10.304551
3151.000000	10.310312
3150.000000	10.318956
3149.000000	10.329366
3148.000000	10.341698
3147.000000	10.354539
3146.000000	10.366503
3145.000000	10.378911
3144.000000	10.393511
3143.000000	10.409413
3142.000000	10.425328
3141.000000	10.442978
3140.000000	10.465002
3139.000000	10.491151
3138.000000	10.519662
3137.000000	10.550302
3136.000000	10.583201
3135.000000	10.616843
3134.000000	10.650190
3133.000000	10.685002
3132.000000	10.723058
3131.000000	10.763234
3130.000000	10.804049
3129.000000	10.846538
3128.000000	10.891862
3127.000000	10.938501
3126.000000	10.984888
3125.000000	11.032310
3124.000000	11.082017
3123.000000	11.132235
3122.000000	11.181300
3121.000000	11.231199
3120.000000	11.284646
3119.000000	11.340957
3118.000000	11.398332
3117.000000	11.457777
3116.000000	11.521202
3115.000000	11.587775
3114.000000	11.655384
3113.000000	11.723718
3112.000000	11.792785
3111.000000	11.860769
3110.000000	11.926794
3109.000000	11.993631
3108.000000	12.064425
3107.000000	12.138622
3106.000000	12.214036
3105.000000	12.290616
3104.000000	12.368877
3103.000000	12.447055
3102.000000	12.523359
3101.000000	12.599146
3100.000000	12.676863
3099.000000	12.756574
3098.000000	12.837461
3097.000000	12.920471
3096.000000	13.006258
3095.000000	13.092605
3094.000000	13.176980
3093.000000	13.259981
3092.000000	13.343585
3091.000000	13.428023
3090.000000	13.513038
3089.000000	13.599932
3088.000000	13.689394
3087.000000	13.779419
3086.000000	13.868144
3085.000000	13.956812
3084.000000	14.047205
3083.000000	14.138417
3082.000000	14.229055
3081.000000	14.320332
3080.000000	14.414132
3079.000000	14.509974
3078.000000	14.606605
3077.000000	14.704452
3076.000000	14.803696
3075.000000	14.902240
3074.000000	14.998528
3073.000000	15.094275
3072.000000	15.191592
3071.000000	15.289470
3070.000000	15.386037
3069.000000	15.482176
3068.000000	15.579917
3067.000000	15.679089
3066.000000	15.778397
3065.000000	15.878047
3064.000000	15.978586
3063.000000	16.078980
3062.000000	16.178437
3061.000000	16.278277
3060.000000	16.379517
3059.000000	16.480542
3058.000000	16.579669
3057.000000	16.678100
3056.000000	16.777796
3055.000000	16.878339
3054.000000	16.978440
3053.000000	17.078697
3052.000000	17.180286
3051.000000	17.282596
3050.000000	17.384453
3049.000000	17.485953
3048.000000	17.587018
3047.000000	17.686155
3046.000000	17.782887
3045.000000	17.879448
3044.000000	17.977957
3043.000000	18.077877
3042.000000	18.178181
3041.000000	18.279627
3040.000000	18.382538
3039.000000	18.484678
3038.000000	18.583991
3037.000000	18.681517
3036.000000	18.779401
3035.000000	18.878035
3034.000000	18.977300
3033.000000	19.078278
3032.000000	19.181114
3031.000000	19.283251
3030.000000	19.382402
3029.000000	19.479454
3028.000000	19.576251
3027.000000	19.672639
3026.000000	19.768077
3025.000000	19.863944
3024.000000	19.961477
3023.000000	20.059292
3022.000000	20.155531
3021.000000	20.250817
3020.000000	20.346657
3019.000000	20.442597
3018.000000	20.537347
3017.000000	20.631069
3016.000000	20.724387
3015.000000	20.816876
3014.000000	20.908770
3013.000000	21.002426
3012.000000	21.099800
3011.000000	21.199938
3010.000000	21.300745
3009.000000	21.401422
3008.000000	21.501390
3007.000000	21.598995
3006.000000	21.693508
3005.000000	21.786691
3004.000000	21.880394
3003.000000	21.974285
3002.000000	22.067588
3001.000000	22.160920
3000.000000	22.254613
2999.000000	22.347448
2998.000000	22.439054
2997.000000	22.531275
2996.000000	22.625035
2995.000000	22.718221
2994.000000	22.809092
2993.000000	22.899593
2992.000000	22.992561
2991.000000	23.087530
2990.000000	23.181904
2989.000000	23.274711
2988.000000	23.366658
2987.000000	23.457999
2986.000000	23.548733
2985.000000	23.639633
2984.000000	23.730934
2983.000000	23.821265
2982.000000	23.909796
2981.000000	23.997992
2980.000000	24.087410
2979.000000	24.177334
2978.000000	24.266489
2977.000000	24.355465
2976.000000	24.445448
2975.000000	24.536129
2974.000000	24.626759
2973.000000	24.717611
2972.000000	24.808584
2971.000000	24.898139
2970.000000	24.985661
2969.000000	25.073199
2968.000000	25.162766
2967.000000	25.253571
2966.000000	25.343799
2965.000000	25.433413
2964.000000	25.523178
2963.000000	25.612717
2962.000000	25.701717
2961.000000	25.791299
2960.000000	25.882044
2959.000000	25.972329
2958.000000	26.060458
2957.000000	26.146632
2956.000000	26.231035
2955.000000	26.312400
2954.000000	26.390760
2953.000000	26.469377
2952.000000	26.551333
2951.000000	26.635859
2950.000000	26.720322
2949.000000	26.803904
2948.000000	26.887011
2947.000000	26.968984
2946.000000	27.049132
2945.000000	27.128700
2944.000000	27.209459
2943.000000	27.291480
2942.000000	27.374216
2941.000000	27.458224
2940.000000	27.543665
2939.000000	27.628611
2938.000000	27.711036
2937.000000	27.791266
2936.000000	27.870630
2935.000000	27.949216
2934.000000	28.027018
2933.000000	28.105551
2932.000000	28.185954
2931.000000	28.266797
2930.000000	28.345890
2929.000000	28.423049
2928.000000	28.499192
2927.000000	28.574389
2926.000000	28.648856
2925.000000	28.724197
2924.000000	28.801473
2923.000000	28.879473
2922.000000	28.956782
2921.000000	29.033766
2920.000000	29.110706
2919.000000	29.186125
2918.000000	29.259254
2917.000000	29.332348
2916.000000	29.408066
2915.000000	29.485845
2914.000000	29.562868
2913.000000	29.637208
2912.000000	29.708161
2911.000000	29.775155
2910.000000	29.838736
2909.000000	29.901650
2908.000000	29.966890
2907.000000	30.035281
2906.000000	30.106046
2905.000000	30.178417
2904.000000	30.251131
2903.000000	30.321968
2902.000000	30.389760
2901.000000	30.456008
2900.000000	30.523229
2899.000000	30.592501
2898.000000	30.663633
2897.000000	30.735913
2896.000000	30.807330
2895.000000	30.874785
2894.000000	30.936966
2893.000000	30.995935
2892.000000	31.054609
2891.000000	31.114157
2890.000000	31.174954
2889.000000	31.237990
2888.000000	31.303241
2887.000000	31.368064
2886.000000	31.429223
2885.000000	31.485563
2884.000000	31.537369
2883.000000	31.584785
2882.000000	31.628649
2881.000000	31.671432
2880.000000	31.715230
2879.000000	31.759661
2878.000000	31.803264
2877.000000	31.845678
2876.000000	31.886749
2875.000000	31.924941
2874.000000	31.958958
2873.000000	31.990288
2872.000000	32.022410
2871.000000	32.058088
2870.000000	32.098690
2869.000000	32.144987
2868.000000	32.196812
2867.000000	32.252905
2866.000000	32.312820
2865.000000	32.378225
2864.000000	32.451123
2863.000000	32.531567
2862.000000	32.618096
2861.000000	32.708979
2860.000000	32.801797
2859.000000	32.893377
2858.000000	32.982056
2857.000000	33.069261
2856.000000	33.157626
2855.000000	33.248639
2854.000000	33.342838
2853.000000	33.440389
2852.000000	33.539716
2851.000000	33.636945
2850.000000	33.728588
2849.000000	33.814166
2848.000000	33.895452
2847.000000	33.974572
2846.000000	34.053938
2845.000000	34.136176
2844.000000	34.222156
2843.000000	34.309914
2842.000000	34.396722
2841.000000	34.481162
2840.000000	34.562429
2839.000000	34.639557
2838.000000	34.713086
2837.000000	34.785994
2836.000000	34.860957
2835.000000	34.937458
2834.000000	35.012883
2833.000000	35.085487
2832.000000	35.155064
2831.000000	35.222141
2830.000000	35.288370
2829.000000	35.356711
2828.000000	35.429290
2827.000000	35.505326
2826.000000	35.582104
2825.000000	35.657084
2824.000000	35.728249
2823.000000	35.794068
2822.000000	35.855110
2821.000000	35.914966
2820.000000	35.977841
2819.000000	36.045469
2818.000000	36.117042
2817.000000	36.190826
2816.000000	36.264413
2815.000000	36.334737
2814.000000	36.400042
2813.000000	36.461679
2812.000000	36.522763
2811.000000	36.585581
2810.000000	36.651126
2809.000000	36.719774
2808.000000	36.790629
2807.000000	36.860991
2806.000000	36.928286
2805.000000	36.992416
2804.000000	37.055235
2803.000000	37.118546
2802.000000	37.183675
2801.000000	37.251733
2800.000000	37.322368
2799.000000	37.392736
2798.000000	37.459322
2797.000000	37.520820
2796.000000	37.578555
2795.000000	37.635014
2794.000000	37.693109
2793.000000	37.755743
2792.000000	37.823980
2791.000000	37.895513
2790.000000	37.965982
2789.000000	38.031791
2788.000000	38.091394
2787.000000	38.145263
2786.000000	38.196171
2785.000000	38.248627
2784.000000	38.306168
2783.000000	38.368882
2782.000000	38.434076
2781.000000	38.498594
2780.000000	38.559763
2779.000000	38.615629
2778.000000	38.666381
2777.000000	38.715247
2776.000000	38.766370
2775.000000	38.821646
2774.000000	38.880207
2773.000000	38.940030
2772.000000	38.998786
2771.000000	39.054077
2770.000000	39.104854
2769.000000	39.152756
2768.000000	39.201062
2767.000000	39.252333
2766.000000	39.307462
2765.000000	39.365855
2764.000000	39.425107
2763.000000	39.481276
2762.000000	39.531320
2761.000000	39.575618
2760.000000	39.617565
2759.000000	39.661114
2758.000000	39.709252
2757.000000	39.763397
2756.000000	39.822346
2755.000000	39.881972
2754.000000	39.937460
2753.000000	39.986285
2752.000000	40.028897
2751.000000	40.067631
2750.000000	40.106150
2749.000000	40.148740
2748.000000	40.197923
2747.000000	40.252301
2746.000000	40.307605
2745.000000	40.359751
2744.000000	40.406513
2743.000000	40.447672
2742.000000	40.485365
2741.000000	40.523795
2740.000000	40.566694
2739.000000	40.614475
2738.000000	40.664391
2737.000000	40.712986
2736.000000	40.757691
2735.000000	40.797266
2734.000000	40.832621
2733.000000	40.867183
2732.000000	40.904947
2731.000000	40.947700
2730.000000	40.994376
2729.000000	41.042268
2728.000000	41.087907
2727.000000	41.127808
2726.000000	41.160525
2725.000000	41.188461
2724.000000	41.216639
2723.000000	41.249490
2722.000000	41.288987
2721.000000	41.334519
2720.000000	41.382870
2719.000000	41.428855
2718.000000	41.468071
2717.000000	41.499919
2716.000000	41.527535
2715.000000	41.555198
2714.000000	41.586416
2713.000000	41.623264
2712.000000	41.665290
2711.000000	41.708810
2710.000000	41.748860
2709.000000	41.782618
2708.000000	41.810753
2707.000000	41.836132
2706.000000	41.862176
2705.000000	41.891690
2704.000000	41.925261
2703.000000	41.960255
2702.000000	41.992331
2701.000000	42.018180
2700.000000	42.036820
2699.000000	42.049321
2698.000000	42.058732
2697.000000	42.069703
2696.000000	42.085948
2695.000000	42.107393
2694.000000	42.130277
2693.000000	42.149860
2692.000000	42.162636
2691.000000	42.167090
2690.000000	42.164522
2689.000000	42.159356
2688.000000	42.156925
2687.000000	42.160089
2686.000000	42.168108
2685.000000	42.178141
2684.000000	42.186683
2683.000000	42.190170
2682.000000	42.186524
2681.000000	42.177002
2680.000000	42.165696
2679.000000	42.156783
2678.000000	42.152411
2677.000000	42.152439
2676.000000	42.154700
2675.000000	42.155625
2674.000000	42.152298
2673.000000	42.144864
2672.000000	42.136696
2671.000000	42.132453
2670.000000	42.136164
2669.000000	42.149956
2668.000000	42.172926
2667.000000	42.200948
2666.000000	42.229086
2665.000000	42.254961
2664.000000	42.279741
2663.000000	42.306977
2662.000000	42.341024
2661.000000	42.385716
2660.000000	42.442376
2659.000000	42.508090
2658.000000	42.576945
2657.000000	42.643268
2656.000000	42.703946
2655.000000	42.758913
2654.000000	42.810788
2653.000000	42.864025
2652.000000	42.922664
2651.000000	42.987856
2650.000000	43.057423
2649.000000	43.127289
2648.000000	43.193032
2647.000000	43.251336
2646.000000	43.301821
2645.000000	43.347728
2644.000000	43.393772
2643.000000	43.442733
2642.000000	43.494195
2641.000000	43.545649
2640.000000	43.593616
2639.000000	43.634725
2638.000000	43.667683
2637.000000	43.694970
2636.000000	43.721729
2635.000000	43.752309
2634.000000	43.788023
2633.000000	43.827209
2632.000000	43.866038
2631.000000	43.899639
2630.000000	43.924328
2629.000000	43.940127
2628.000000	43.950890
2627.000000	43.961850
2626.000000	43.977243
2625.000000	43.999079
2624.000000	44.026397
2623.000000	44.055132
2622.000000	44.079928
2621.000000	44.097095
2620.000000	44.106077
2619.000000	44.108995
2618.000000	44.109780
2617.000000	44.113053
2616.000000	44.121913
2615.000000	44.135766
2614.000000	44.150816
2613.000000	44.162812
2612.000000	44.169073
2611.000000	44.168956
2610.000000	44.163888
2609.000000	44.157049
2608.000000	44.151518
2607.000000	44.147722
2606.000000	44.143108
2605.000000	44.133939
2604.000000	44.117132
2603.000000	44.091361
2602.000000	44.057948
2601.000000	44.021190
2600.000000	43.986362
2599.000000	43.956515
2598.000000	43.931226
2597.000000	43.907605
2596.000000	43.881909
2595.000000	43.851133
2594.000000	43.815177
2593.000000	43.778239
2592.000000	43.747447
2591.000000	43.729361
2590.000000	43.727617
2589.000000	43.742597
2588.000000	43.771307
2587.000000	43.808393
2586.000000	43.848564
2585.000000	43.889267
2584.000000	43.931342
2583.000000	43.977304
2582.000000	44.030264
2581.000000	44.092886
2580.000000	44.165554
2579.000000	44.245299
2578.000000	44.327172
2577.000000	44.407508
2576.000000	44.485455
2575.000000	44.562297
2574.000000	44.640610
2573.000000	44.723303
2572.000000	44.811864
2571.000000	44.904595
2570.000000	44.997252
2569.000000	45.085845
2568.000000	45.168673
2567.000000	45.246541
2566.000000	45.322339
2565.000000	45.400273
2564.000000	45.483789
2563.000000	45.573136
2562.000000	45.664985
2561.000000	45.754399
2560.000000	45.837033
2559.000000	45.910443
2558.000000	45.975313
2557.000000	46.035840
2556.000000	46.097694
2555.000000	46.164631
2554.000000	46.236917
2553.000000	46.312439
2552.000000	46.388022
2551.000000	46.459880
2550.000000	46.524824
2549.000000	46.582228
2548.000000	46.634618
2547.000000	46.685913
2546.000000	46.739232
2545.000000	46.795896
2544.000000	46.854818
2543.000000	46.912527
2542.000000	46.964970
2541.000000	47.010261
2540.000000	47.049752
2539.000000	47.086239
2538.000000	47.121922
2537.000000	47.157651
2536.000000	47.192321
2535.000000	47.222606
2534.000000	47.243824
2533.000000	47.252394
2532.000000	47.247641
2531.000000	47.231337
2530.000000	47.206940
2529.000000	47.178446
2528.000000	47.148519
2527.000000	47.117019
2526.000000	47.081722
2525.000000	47.041401
2524.000000	46.997440
2523.000000	46.953224
2522.000000	46.913397
2521.000000	46.883879
2520.000000	46.870365
2519.000000	46.875692
2518.000000	46.898923
2517.000000	46.936513
2516.000000	46.984397
2515.000000	47.038572
2514.000000	47.096135
2513.000000	47.156789
2512.000000	47.222068
2511.000000	47.293239
2510.000000	47.369684
2509.000000	47.449371
2508.000000	47.529763
2507.000000	47.607940
2506.000000	47.681527
2505.000000	47.750315
2504.000000	47.816526
2503.000000	47.882920
2502.000000	47.951012
2501.000000	48.020704
2500.000000	48.090370
2499.000000	48.156964
2498.000000	48.217298
2497.000000	48.270344
2496.000000	48.317816
2495.000000	48.362604
2494.000000	48.407381
2493.000000	48.454295
2492.000000	48.504397
2491.000000	48.556366
2490.000000	48.606876
2489.000000	48.653012
2488.000000	48.693735
2487.000000	48.729411
2486.000000	48.761364
2485.000000	48.792298
2484.000000	48.825427
2483.000000	48.861851
2482.000000	48.899662
2481.000000	48.936046
2480.000000	48.969468
2479.000000	48.999659
2478.000000	49.027012
2477.000000	49.053008
2476.000000	49.079935
2475.000000	49.108975
2474.000000	49.139196
2473.000000	49.168832
2472.000000	49.196697
2471.000000	49.222026
2470.000000	49.244383
2469.000000	49.264756
2468.000000	49.285676
2467.000000	49.309244
2466.000000	49.335589
2465.000000	49.363516
2464.000000	49.391572
2463.000000	49.417962
2462.000000	49.440898
2461.000000	49.460155
2460.000000	49.477553
2459.000000	49.495281
2458.000000	49.514563
2457.000000	49.536106
2456.000000	49.560373
2455.000000	49.586494
2454.000000	49.612191
2453.000000	49.635703
2452.000000	49.657018
2451.000000	49.676818
2450.000000	49.695492
2449.000000	49.713821
2448.000000	49.733166
2447.000000	49.753964
2446.000000	49.775120
2445.000000	49.795676
2444.000000	49.815971
2443.000000	49.836499
2442.000000	49.856954
2441.000000	49.877291
2440.000000	49.898395
2439.000000	49.920654
2438.000000	49.942945
2437.000000	49.963922
2436.000000	49.983328
2435.000000	50.001260
2434.000000	50.017546
2433.000000	50.032803
2432.000000	50.048913
2431.000000	50.067329
2430.000000	50.087840
2429.000000	50.109724
2428.000000	50.132911
2427.000000	50.157135
2426.000000	50.181115
2425.000000	50.203721
2424.000000	50.225028
2423.000000	50.245576
2422.000000	50.265745
2421.000000	50.286507
2420.000000	50.309391
2419.000000	50.334699
2418.000000	50.360882
2417.000000	50.386422
2416.000000	50.411067
2415.000000	50.434568
2414.000000	50.455900
2413.000000	50.474883
2412.000000	50.493136
2411.000000	50.512290
2410.000000	50.532502
2409.000000	50.553573
2408.000000	50.575971
2407.000000	50.599613
2406.000000	50.623132
2405.000000	50.645650
2404.000000	50.668046
2403.000000	50.691333
2402.000000	50.715143
2401.000000	50.738811
2400.000000	50.762482
2399.000000	50.785962
2398.000000	50.808021
2397.000000	50.828208
2396.000000	50.848185
2395.000000	50.870107
2394.000000	50.894981
2393.000000	50.923443
2392.000000	50.956170
2391.000000	50.992093
2390.000000	51.027868
2389.000000	51.060445
2388.000000	51.089700
2387.000000	51.117213
2386.000000	51.144683
2385.000000	51.175031
2384.000000	51.211824
2383.000000	51.257340
2382.000000	51.310430
2381.000000	51.368494
2380.000000	51.430134
2379.000000	51.493079
2378.000000	51.554123
2377.000000	51.611443
2376.000000	51.666367
2375.000000	51.720447
2374.000000	51.773654
2373.000000	51.825973
2372.000000	51.878759
2371.000000	51.932096
2370.000000	51.982985
2369.000000	52.030432
2368.000000	52.077992
2367.000000	52.128938
2366.000000	52.182506
2365.000000	52.236480
2364.000000	52.293972
2363.000000	52.352105
2362.000000	52.402980
2361.000000	52.447768
2360.000000	52.489132
2359.000000	52.532766
2358.000000	52.581201
2357.000000	52.632142
2356.000000	52.690976
2355.000000	52.751087
2354.000000	52.808997
2353.000000	52.862246
2352.000000	52.919028
2351.000000	52.986217
2350.000000	53.047983
2349.000000	53.094015
2348.000000	53.129211
2347.000000	53.178376
2346.000000	53.258710
2345.000000	53.348818
2344.000000	53.426848
2343.000000	53.474345
2342.000000	53.507068
2341.000000	53.540418
2340.000000	53.579177
2339.000000	53.625250
2338.000000	53.675357
2337.000000	53.731619
2336.000000	53.788616
2335.000000	53.847612
2334.000000	53.903325
2333.000000	53.961723
2332.000000	54.017627
2331.000000	54.082307
2330.000000	54.143843
2329.000000	54.210621
2328.000000	54.271369
2327.000000	54.328930
2326.000000	54.379993
2325.000000	54.425311
2324.000000	54.472809
2323.000000	54.524409
2322.000000	54.582944
2321.000000	54.645833
2320.000000	54.709787
2319.000000	54.776224
2318.000000	54.836635
2317.000000	54.891875
2316.000000	54.934801
2315.000000	54.977171
2314.000000	55.018279
2313.000000	55.069045
2312.000000	55.124228
2311.000000	55.189299
2310.000000	55.254514
2309.000000	55.318807
2308.000000	55.373856
2307.000000	55.424225
2306.000000	55.469570
2305.000000	55.516225
2304.000000	55.564724
2303.000000	55.620379
2302.000000	55.679066
2301.000000	55.739320
2300.000000	55.794160
2299.000000	55.845667
2298.000000	55.892763
2297.000000	55.941103
2296.000000	55.993213
2295.000000	56.054301
2294.000000	56.122028
2293.000000	56.191035
2292.000000	56.253834
2291.000000	56.306159
2290.000000	56.347259
2289.000000	56.380420
2288.000000	56.413924
2287.000000	56.456221
2286.000000	56.511990
2285.000000	56.578714
2284.000000	56.650922
2283.000000	56.720895
2282.000000	56.781375
2281.000000	56.827808
2280.000000	56.862926
2279.000000	56.894946
2278.000000	56.932057
2277.000000	56.978703
2276.000000	57.034968
2275.000000	57.097615
2274.000000	57.159610
2273.000000	57.214313
2272.000000	57.259544
2271.000000	57.298557
2270.000000	57.336190
2269.000000	57.376524
2268.000000	57.422238
2267.000000	57.473019
2266.000000	57.523770
2265.000000	57.567866
2264.000000	57.602421
2263.000000	57.629944
2262.000000	57.655872
2261.000000	57.685889
2260.000000	57.725467
2259.000000	57.775726
2258.000000	57.831055
2257.000000	57.881343
2256.000000	57.918810
2255.000000	57.941406
2254.000000	57.951515
2253.000000	57.955840
2252.000000	57.964188
2251.000000	57.985533
2250.000000	58.021216
2249.000000	58.065150
2248.000000	58.107645
2247.000000	58.140006
2246.000000	58.156170
2245.000000	58.155772
2244.000000	58.146014
2243.000000	58.137620
2242.000000	58.137628
2241.000000	58.146816
2240.000000	58.162025
2239.000000	58.177634
2238.000000	58.186220
2237.000000	58.182421
2236.000000	58.167776
2235.000000	58.149417
2234.000000	58.134015
2233.000000	58.124499
2232.000000	58.120519
2231.000000	58.118279
2230.000000	58.110238
2229.000000	58.089577
2228.000000	58.056337
2227.000000	58.017742
2226.000000	57.982715
2225.000000	57.957895
2224.000000	57.946389
2223.000000	57.945860
2222.000000	57.947109
2221.000000	57.938532
2220.000000	57.913719
2219.000000	57.874411
2218.000000	57.827671
2217.000000	57.783165
2216.000000	57.751110
2215.000000	57.737500
2214.000000	57.739182
2213.000000	57.745719
2212.000000	57.746611
2211.000000	57.736119
2210.000000	57.713440
2209.000000	57.682964
2208.000000	57.654140
2207.000000	57.636954
2206.000000	57.635099
2205.000000	57.644489
2204.000000	57.657423
2203.000000	57.666513
2202.000000	57.666547
2201.000000	57.657405
2200.000000	57.645897
2199.000000	57.641838
2198.000000	57.650806
2197.000000	57.671475
2196.000000	57.698182
2195.000000	57.723369
2194.000000	57.739110
2193.000000	57.741297
2192.000000	57.733955
2191.000000	57.727305
2190.000000	57.730866
2189.000000	57.749128
2188.000000	57.781272
2187.000000	57.820969
2186.000000	57.856800
2185.000000	57.877624
2184.000000	57.879944
2183.000000	57.869412
2182.000000	57.855928
2181.000000	57.849087
2180.000000	57.855799
2179.000000	57.876855
2178.000000	57.904643
2177.000000	57.927267
2176.000000	57.936704
2175.000000	57.932477
2174.000000	57.919627
2173.000000	57.906154
2172.000000	57.900912
2171.000000	57.908745
2170.000000	57.926165
2169.000000	57.943668
2168.000000	57.952863
2167.000000	57.950264
2166.000000	57.936874
2165.000000	57.918241
2164.000000	57.904353
2163.000000	57.904631
2162.000000	57.921089
2161.000000	57.947237
2160.000000	57.972969
2159.000000	57.988897
2158.000000	57.988784
2157.000000	57.973079
2156.000000	57.951139
2155.000000	57.936366
2154.000000	57.937610
2153.000000	57.955376
2152.000000	57.984010
2151.000000	58.013895
2150.000000	58.033628
2149.000000	58.035642
2148.000000	58.021957
2147.000000	58.002393
2146.000000	57.987220
2145.000000	57.982526
2144.000000	57.990049
2143.000000	58.006264
2142.000000	58.021885
2141.000000	58.026804
2140.000000	58.017794
2139.000000	57.999960
2138.000000	57.981846
2137.000000	57.971307
2136.000000	57.973739
2135.000000	57.988816
2134.000000	58.008166
2133.000000	58.019778
2132.000000	58.016332
2131.000000	57.998751
2130.000000	57.973652
2129.000000	57.950807
2128.000000	57.941073
2127.000000	57.950930
2126.000000	57.976839
2125.000000	58.006844
2124.000000	58.028445
2123.000000	58.034093
2122.000000	58.022419
2121.000000	57.999127
2120.000000	57.976676
2119.000000	57.968287
2118.000000	57.979857
2117.000000	58.008103
2116.000000	58.044680
2115.000000	58.079654
2114.000000	58.103563
2113.000000	58.112400
2112.000000	58.111972
2111.000000	58.114240
2110.000000	58.128384
2109.000000	58.156825
2108.000000	58.196960
2107.000000	58.242683
2106.000000	58.285174
2105.000000	58.318037
2104.000000	58.343371
2103.000000	58.370527
2102.000000	58.408521
2101.000000	58.461577
2100.000000	58.529220
2099.000000	58.605824
2098.000000	58.680145
2097.000000	58.740810
2096.000000	58.784460
2095.000000	58.817501
2094.000000	58.850947
2093.000000	58.895984
2092.000000	58.961216
2091.000000	59.047707
2090.000000	59.144989
2089.000000	59.236070
2088.000000	59.308211
2087.000000	59.358107
2086.000000	59.389738
2085.000000	59.412566
2084.000000	59.440067
2083.000000	59.482954
2082.000000	59.541009
2081.000000	59.603870
2080.000000	59.659451
2079.000000	59.699469
2078.000000	59.719929
2077.000000	59.722884
2076.000000	59.717978
2075.000000	59.717051
2074.000000	59.725023
2073.000000	59.738239
2072.000000	59.749852
2071.000000	59.752724
2070.000000	59.740132
2069.000000	59.710932
2068.000000	59.675198
2067.000000	59.649466
2066.000000	59.644090
2065.000000	59.657281
2064.000000	59.679773
2063.000000	59.700475
2062.000000	59.708889
2061.000000	59.699456
2060.000000	59.676839
2059.000000	59.654067
2058.000000	59.644092
2057.000000	59.654503
2056.000000	59.687270
2055.000000	59.737414
2054.000000	59.792081
2053.000000	59.836759
2052.000000	59.865169
2051.000000	59.881738
2050.000000	59.895860
2049.000000	59.917772
2048.000000	59.957247
2047.000000	60.018517
2046.000000	60.095554
2045.000000	60.176679
2044.000000	60.254806
2043.000000	60.330007
2042.000000	60.404389
2041.000000	60.480814
2040.000000	60.565577
2039.000000	60.665181
2038.000000	60.779034
2037.000000	60.899091
2036.000000	61.017159
2035.000000	61.128926
2034.000000	61.232830
2033.000000	61.331562
2032.000000	61.434759
2031.000000	61.553749
2030.000000	61.691459
2029.000000	61.840537
2028.000000	61.990626
2027.000000	62.132788
2026.000000	62.259433
2025.000000	62.367824
2024.000000	62.465072
2023.000000	62.563830
2022.000000	62.672276
2021.000000	62.792528
2020.000000	62.926546
2019.000000	63.074991
2018.000000	63.229126
2017.000000	63.372999
2016.000000	63.497746
2015.000000	63.607579
2014.000000	63.711897
2013.000000	63.818791
2012.000000	63.934838
2011.000000	64.061849
2010.000000	64.192137
2009.000000	64.313301
2008.000000	64.419720
2007.000000	64.515222
2006.000000	64.605838
2005.000000	64.696564
2004.000000	64.793631
2003.000000	64.901134
2002.000000	65.013670
2001.000000	65.119660
2000.000000	65.212498
1999.000000	65.292583
1998.000000	65.359732
1997.000000	65.413896
1996.000000	65.464425
1995.000000	65.529032
1994.000000	65.619242
1993.000000	65.728705
1992.000000	65.839270
1991.000000	65.936687
1990.000000	66.015987
1989.000000	66.079843
1988.000000	66.138394
1987.000000	66.204182
1986.000000	66.282462
1985.000000	66.369496
1984.000000	66.459659
1983.000000	66.547974
1982.000000	66.626452
1981.000000	66.688062
1980.000000	66.736445
1979.000000	66.784521
1978.000000	66.841441
1977.000000	66.907214
1976.000000	66.979343
1975.000000	67.054953
1974.000000	67.125134
1973.000000	67.176972
1972.000000	67.205978
1971.000000	67.221802
1970.000000	67.241742
1969.000000	67.283462
1968.000000	67.357388
1967.000000	67.456406
1966.000000	67.556093
1965.000000	67.632239
1964.000000	67.679882
1963.000000	67.712249
1962.000000	67.743571
1961.000000	67.780426
1960.000000	67.827024
1959.000000	67.886811
1958.000000	67.956222
1957.000000	68.025361
1956.000000	68.087102
1955.000000	68.139087
1954.000000	68.179167
1953.000000	68.207200
1952.000000	68.230812
1951.000000	68.260578
1950.000000	68.298676
1949.000000	68.338719
1948.000000	68.375005
1947.000000	68.404645
1946.000000	68.425468
1945.000000	68.444028
1944.000000	68.480138
1943.000000	68.545573
1942.000000	68.627565
1941.000000	68.705194
1940.000000	68.768693
1939.000000	68.818080
1938.000000	68.852719
1937.000000	68.871953
1936.000000	68.884646
1935.000000	68.905801
1934.000000	68.942359
1933.000000	68.990101
1932.000000	69.043079
1931.000000	69.096558
1930.000000	69.140912
1929.000000	69.163027
1928.000000	69.155999
1927.000000	69.125922
1926.000000	69.089543
1925.000000	69.072327
1924.000000	69.097869
1923.000000	69.166546
1922.000000	69.254187
1921.000000	69.330799
1920.000000	69.381216
1919.000000	69.407859
1918.000000	69.414420
1917.000000	69.408666
1916.000000	69.405741
1915.000000	69.409780
1914.000000	69.408854
1913.000000	69.394913
1912.000000	69.379053
1911.000000	69.379691
1910.000000	69.399594
1909.000000	69.426875
1908.000000	69.453608
1907.000000	69.480633
1906.000000	69.506195
1905.000000	69.524342
1904.000000	69.534115
1903.000000	69.539320
1902.000000	69.539352
1901.000000	69.530393
1900.000000	69.515070
1899.000000	69.503104
1898.000000	69.504057
1897.000000	69.524970
1896.000000	69.566332
1895.000000	69.613267
1894.000000	69.641255
1893.000000	69.638408
1892.000000	69.622956
1891.000000	69.629467
1890.000000	69.666845
1889.000000	69.714922
1888.000000	69.762130
1887.000000	69.811726
1886.000000	69.862371
1885.000000	69.905882
1884.000000	69.939054
1883.000000	69.965329
1882.000000	69.985418
1881.000000	69.998941
1880.000000	70.012950
1879.000000	70.036026
1878.000000	70.065801
1877.000000	70.091193
1876.000000	70.106267
1875.000000	70.112858
1874.000000	70.110271
1873.000000	70.090093
1872.000000	70.046397
1871.000000	69.997699
1870.000000	69.984388
1869.000000	70.020230
1868.000000	70.084388
1867.000000	70.154144
1866.000000	70.207439
1865.000000	70.229156
1864.000000	70.228594
1863.000000	70.227869
1862.000000	70.235137
1861.000000	70.245128
1860.000000	70.257722
1859.000000	70.276476
1858.000000	70.294254
1857.000000	70.298953
1856.000000	70.292576
1855.000000	70.287173
1854.000000	70.282360
1853.000000	70.268089
1852.000000	70.240909
1851.000000	70.204388
1850.000000	70.166905
1849.000000	70.147695
1848.000000	70.168793
1847.000000	70.224581
1846.000000	70.277414
1845.000000	70.287141
1844.000000	70.244539
1843.000000	70.190672
1842.000000	70.159493
1841.000000	70.135790
1840.000000	70.100884
1839.000000	70.069074
1838.000000	70.057228
1837.000000	70.054006
1836.000000	70.039950
1835.000000	70.011126
1834.000000	69.964480
1833.000000	69.890992
1832.000000	69.810367
1831.000000	69.770155
1830.000000	69.766418
1829.000000	69.758062
1828.000000	69.735686
1827.000000	69.710367
1826.000000	69.687035
1825.000000	69.660414
1824.000000	69.636381
1823.000000	69.627856
1822.000000	69.622914
1821.000000	69.597404
1820.000000	69.549107
1819.000000	69.495623
1818.000000	69.443520
1817.000000	69.382041
1816.000000	69.307255
1815.000000	69.227100
1814.000000	69.148155
1813.000000	69.080442
1812.000000	69.041795
1811.000000	69.034823
1810.000000	69.033945
1809.000000	69.012730
1808.000000	68.971468
1807.000000	68.923701
1806.000000	68.867364
1805.000000	68.788401
1804.000000	68.691585
1803.000000	68.605326
1802.000000	68.552579
1801.000000	68.525738
1800.000000	68.501046
1799.000000	68.464872
1798.000000	68.420633
1797.000000	68.385346
1796.000000	68.373507
1795.000000	68.371306
1794.000000	68.353144
1793.000000	68.310952
1792.000000	68.247925
1791.000000	68.188730
1790.000000	68.157836
1789.000000	68.147936
1788.000000	68.140401
1787.000000	68.123119
1786.000000	68.080466
1785.000000	67.998324
1784.000000	67.893699
1783.000000	67.802194
1782.000000	67.740651
1781.000000	67.695927
1780.000000	67.649860
1779.000000	67.602487
1778.000000	67.559381
1777.000000	67.526271
1776.000000	67.508347
1775.000000	67.491422
1774.000000	67.466791
1773.000000	67.441527
1772.000000	67.405999
1771.000000	67.372131
1770.000000	67.346328
1769.000000	67.290823
1768.000000	67.191593
1767.000000	67.094590
1766.000000	67.039936
1765.000000	67.007293
1764.000000	66.962374
1763.000000	66.904955
1762.000000	66.835636
1761.000000	66.753812
1760.000000	66.684556
1759.000000	66.643262
1758.000000	66.602271
1757.000000	66.521909
1756.000000	66.420075
1755.000000	66.350634
1754.000000	66.295523
1753.000000	66.176323
1752.000000	65.979123
1751.000000	65.789602
1750.000000	65.682988
1749.000000	65.636573
1748.000000	65.584022
1747.000000	65.497467
1746.000000	65.390210
1745.000000	65.286999
1744.000000	65.217297
1743.000000	65.200504
1742.000000	65.209210
1741.000000	65.176611
1740.000000	65.071852
1739.000000	64.960260
1738.000000	64.925609
1737.000000	64.923541
1736.000000	64.830920
1735.000000	64.617579
1734.000000	64.301167
1733.000000	63.973549
1732.000000	63.754895
1731.000000	63.648362
1730.000000	63.569017
1729.000000	63.446731
1728.000000	63.282545
1727.000000	63.109033
1726.000000	62.934987
1725.000000	62.745387
1724.000000	62.536818
1723.000000	62.336965
1722.000000	62.161004
1721.000000	61.965802
1720.000000	61.701932
1719.000000	61.417246
1718.000000	61.163423
1717.000000	60.921856
1716.000000	60.699588
1715.000000	60.503476
1714.000000	60.292441
1713.000000	60.035802
1712.000000	59.747688
1711.000000	59.452664
1710.000000	59.150909
1709.000000	58.840415
1708.000000	58.539692
1707.000000	58.273222
1706.000000	58.033329
1705.000000	57.828610
1704.000000	57.727601
1703.000000	57.688923
1702.000000	57.503888
1701.000000	57.039215
1700.000000	56.420802
1699.000000	55.962333
1698.000000	55.769805
1697.000000	55.633112
1696.000000	55.301428
1695.000000	54.802689
1694.000000	54.342102
1693.000000	53.971329
1692.000000	53.620417
1691.000000	53.256588
1690.000000	52.904764
1689.000000	52.601867
1688.000000	52.358162
1687.000000	52.103370
1686.000000	51.765529
1685.000000	51.352547
1684.000000	50.821265
1683.000000	50.287682
1682.000000	49.900488
1681.000000	49.608036
1680.000000	49.339742
1679.000000	49.095180
1678.000000	48.857427
1677.000000	48.541670
1676.000000	48.082452
1675.000000	47.534118
1674.000000	47.036637
1673.000000	46.651435
1672.000000	46.333283
1671.000000	46.036343
1670.000000	45.709023
1669.000000	45.299837
1668.000000	44.855391
1667.000000	44.465380
1666.000000	44.137678
1665.000000	43.812935
1664.000000	43.461616
1663.000000	43.095737
1662.000000	42.725052
1661.000000	42.351820
1660.000000	41.973631
1659.000000	41.609651
1658.000000	41.297909
1657.000000	41.064001
1656.000000	40.853344
1655.000000	40.639921
1654.000000	40.407754
1653.000000	39.912206
1652.000000	39.263404
1651.000000	38.790370
1650.000000	38.487632
1649.000000	38.243499
1648.000000	38.027779
1647.000000	37.800288
1646.000000	37.511652
1645.000000	37.189823
1644.000000	36.888146
1643.000000	36.617599
1642.000000	36.347661
1641.000000	36.053413
1640.000000	35.760258
1639.000000	35.516779
1638.000000	35.336552
1637.000000	35.201113
1636.000000	35.023037
1635.000000	34.751600
1634.000000	34.463425
1633.000000	34.211487
1632.000000	33.984963
1631.000000	33.773702
1630.000000	33.579461
1629.000000	33.401951
1628.000000	33.238547
1627.000000	33.093962
1626.000000	32.961658
1625.000000	32.820159
1624.000000	32.662400
1623.000000	32.499030
1622.000000	32.354855
1621.000000	32.251020
1620.000000	32.186757
1619.000000	32.147860
1618.000000	32.123162
1617.000000	32.076546
1616.000000	31.979123
1615.000000	31.873853
1614.000000	31.799871
1613.000000	31.742324
1612.000000	31.689191
1611.000000	31.659828
1610.000000	31.668737
1609.000000	31.696029
1608.000000	31.716822
1607.000000	31.729330
1606.000000	31.738526
1605.000000	31.744079
1604.000000	31.755721
1603.000000	31.794563
1602.000000	31.863967
1601.000000	31.939267
1600.000000	31.998377
1599.000000	32.041963
1598.000000	32.077451
1597.000000	32.107498
1596.000000	32.141836
1595.000000	32.197930
1594.000000	32.278707
1593.000000	32.367075
1592.000000	32.449815
1591.000000	32.528507
1590.000000	32.601044
1589.000000	32.655112
1588.000000	32.689666
1587.000000	32.723756
1586.000000	32.771886
1585.000000	32.831413
1584.000000	32.896977
1583.000000	32.964915
1582.000000	33.025224
1581.000000	33.068452
1580.000000	33.100971
1579.000000	33.137352
1578.000000	33.196637
1577.000000	33.281654
1576.000000	33.356257
1575.000000	33.390895
1574.000000	33.436127
1573.000000	33.456387
1572.000000	33.590325
1571.000000	33.671358
1570.000000	33.705600
1569.000000	33.752305
1568.000000	33.786010
1567.000000	33.841323
1566.000000	33.914357
1565.000000	33.992547
1564.000000	34.058783
1563.000000	34.119167
1562.000000	34.192996
1561.000000	34.283418
1560.000000	34.406063
1559.000000	34.531922
1558.000000	34.664671
1557.000000	34.631779
1556.000000	34.654322
1555.000000	34.737129
1554.000000	34.782862
1553.000000	34.822918
1552.000000	34.865366
1551.000000	34.960079
1550.000000	35.116186
1549.000000	35.302489
1548.000000	35.472225
1547.000000	35.602513
1546.000000	35.712327
1545.000000	35.844230
1544.000000	36.008876
1543.000000	36.188495
1542.000000	36.421334
1541.000000	36.813079
1540.000000	37.272950
1539.000000	37.605040
1538.000000	37.810108
1537.000000	37.973950
1536.000000	38.137956
1535.000000	38.351839
1534.000000	38.671285
1533.000000	39.054201
1532.000000	39.413624
1531.000000	39.734956
1530.000000	40.043116
1529.000000	40.355317
1528.000000	40.682167
1527.000000	41.031343
1526.000000	41.395155
1525.000000	41.757421
1524.000000	42.121332
1523.000000	42.547028
1522.000000	43.071882
1521.000000	43.584834
1520.000000	43.974488
1519.000000	44.287415
1518.000000	44.639929
1517.000000	45.071180
1516.000000	45.524247
1515.000000	45.953469
1514.000000	46.346933
1513.000000	46.689063
1512.000000	46.986819
1511.000000	47.256907
1510.000000	47.507915
1509.000000	47.784347
1508.000000	48.325964
1507.000000	49.134567
1506.000000	49.819712
1505.000000	50.231399
1504.000000	50.519553
1503.000000	50.819653
1502.000000	51.169964
1501.000000	51.550492
1500.000000	51.955687
1499.000000	52.415263
1498.000000	52.953456
1497.000000	53.521003
1496.000000	54.032500
1495.000000	54.464905
1494.000000	54.826346
1493.000000	55.094611
1492.000000	55.282180
1491.000000	55.511795
1490.000000	55.880903
1489.000000	56.335371
1488.000000	56.788921
1487.000000	57.213589
1486.000000	57.580516
1485.000000	57.848367
1484.000000	58.020970
1483.000000	58.148545
1482.000000	58.258822
1481.000000	58.330602
1480.000000	58.351136
1479.000000	58.327375
1478.000000	58.241234
1477.000000	58.059746
1476.000000	57.787057
1475.000000	57.440049
1474.000000	56.977422
1473.000000	56.283139
1472.000000	55.327966
1471.000000	54.264885
1470.000000	53.183962
1469.000000	52.016707
1468.000000	50.686251
1467.000000	49.129966
1466.000000	47.229473
1465.000000	44.901918
1464.000000	42.325589
1463.000000	39.825753
1462.000000	37.505911
1461.000000	35.276420
1460.000000	33.062973
1459.000000	30.809021
1458.000000	28.357298
1457.000000	25.684429
1456.000000	23.331131
1455.000000	21.754126
1454.000000	20.769234
1453.000000	20.081276
1452.000000	19.623022
1451.000000	19.431400
1450.000000	19.491193
1449.000000	19.765353
1448.000000	20.265256
1447.000000	20.963527
1446.000000	21.758190
1445.000000	22.587957
1444.000000	23.476357
1443.000000	24.438841
1442.000000	25.428198
1441.000000	26.392247
1440.000000	27.327562
1439.000000	28.262740
1438.000000	29.252133
1437.000000	30.347847
1436.000000	31.488723
1435.000000	32.533689
1434.000000	33.439392
1433.000000	34.266988
1432.000000	35.076450
1431.000000	35.873557
1430.000000	36.615510
1429.000000	37.255308
1428.000000	37.777905
1427.000000	38.198955
1426.000000	38.557747
1425.000000	38.913528
1424.000000	39.301704
1423.000000	39.701116
1422.000000	40.070908
1421.000000	40.405594
1420.000000	40.780862
1419.000000	41.267858
1418.000000	41.830726
1417.000000	42.419406
1416.000000	43.031450
1415.000000	43.665064
1414.000000	44.313429
1413.000000	44.985640
1412.000000	45.696146
1411.000000	46.438341
1410.000000	47.189772
1409.000000	47.932535
1408.000000	48.657393
1407.000000	49.366958
1406.000000	50.083967
1405.000000	50.822964
1404.000000	51.546965
1403.000000	52.200875
1402.000000	52.778910
1401.000000	53.331060
1400.000000	53.909023
1399.000000	54.504223
1398.000000	55.076157
1397.000000	55.625244
1396.000000	56.176669
1395.000000	56.717543
1394.000000	57.206963
1393.000000	57.636037
1392.000000	58.018276
1391.000000	58.348071
1390.000000	58.607311
1389.000000	58.778374
1388.000000	58.833478
1387.000000	58.753861
1386.000000	58.603747
1385.000000	58.519141
1384.000000	58.593449
1383.000000	58.830401
1382.000000	59.170716
1381.000000	59.521514
1380.000000	59.788014
1379.000000	59.916124
1378.000000	59.921621
1377.000000	59.865744
1376.000000	59.811632
1375.000000	59.806711
1374.000000	59.865070
1373.000000	59.961779
1372.000000	60.055474
1371.000000	60.119524
1370.000000	60.163205
1369.000000	60.206153
1368.000000	60.234278
1367.000000	60.210650
1366.000000	60.115889
1365.000000	59.957127
1364.000000	59.752451
1363.000000	59.506659
1362.000000	59.208700
1361.000000	58.852719
1360.000000	58.438873
1359.000000	57.976894
1358.000000	57.504810
1357.000000	57.079572
1356.000000	56.748757
1355.000000	56.542682
1354.000000	56.478055
1353.000000	56.545813
1352.000000	56.701044
1351.000000	56.883234
1350.000000	57.039248
1349.000000	57.116462
1348.000000	57.051253
1347.000000	56.788161
1346.000000	56.299268
1345.000000	55.574467
1344.000000	54.610252
1343.000000	53.414951
1342.000000	52.018119
1341.000000	50.459203
1340.000000	48.770553
1339.000000	46.982195
1338.000000	45.116090
1337.000000	43.162218
1336.000000	41.084502
1335.000000	38.864108
1334.000000	36.521114
1333.000000	34.092527
1332.000000	31.624185
1331.000000	29.187110
1330.000000	26.866084
1329.000000	24.722161
1328.000000	22.786340
1327.000000	21.076234
1326.000000	19.590241
1325.000000	18.297900
1324.000000	17.159295
1323.000000	16.154726
1322.000000	15.275071
1321.000000	14.502546
1320.000000	13.831803
1319.000000	13.287026
1318.000000	12.902119
1317.000000	12.692898
1316.000000	12.662327
1315.000000	12.818974
1314.000000	13.159360
1313.000000	13.652351
1312.000000	14.257361
1311.000000	14.944043
1310.000000	15.690502
1309.000000	16.472355
1308.000000	17.269609
1307.000000	18.073094
1306.000000	18.872064
1305.000000	19.647144
1304.000000	20.382260
1303.000000	21.075994
1302.000000	21.736633
1301.000000	22.375921
1300.000000	23.013037
1299.000000	23.673310
1298.000000	24.372098
1297.000000	25.103496
1296.000000	25.849827
1295.000000	26.597762
1294.000000	27.341957
1293.000000	28.082096
1292.000000	28.825239
1291.000000	29.587285
1290.000000	30.386176
1289.000000	31.231613
1288.000000	32.121563
1287.000000	33.045719
1286.000000	33.989029
1285.000000	34.935635
1284.000000	35.874210
1283.000000	36.802483
1282.000000	37.726501
1281.000000	38.652381
1280.000000	39.578075
1279.000000	40.494191
1278.000000	41.389955
1277.000000	42.254280
1276.000000	43.076300
1275.000000	43.853203
1274.000000	44.598649
1273.000000	45.336813
1272.000000	46.084910
1271.000000	46.846876
1270.000000	47.619394
1269.000000	48.393767
1268.000000	49.154190
1267.000000	49.885243
1266.000000	50.585544
1265.000000	51.265260
1264.000000	51.931241
1263.000000	52.585192
1262.000000	53.230708
1261.000000	53.867632
1260.000000	54.478627
1259.000000	55.037849
1258.000000	55.538189
1257.000000	55.994970
1256.000000	56.426350
1255.000000	56.843993
1254.000000	57.256274
1253.000000	57.663111
1252.000000	58.043588
1251.000000	58.365915
1250.000000	58.612956
1249.000000	58.787408
1248.000000	58.900563
1247.000000	58.968989
1246.000000	59.017890
1245.000000	59.066871
1244.000000	59.106583
1243.000000	59.105454
1242.000000	59.035935
1241.000000	58.885399
1240.000000	58.652284
1239.000000	58.349343
1238.000000	58.011241
1237.000000	57.678397
1236.000000	57.371398
1235.000000	57.089967
1234.000000	56.829014
1233.000000	56.584134
1232.000000	56.349032
1231.000000	56.125412
1230.000000	55.934113
1229.000000	55.805877
1228.000000	55.758413
1227.000000	55.790736
1226.000000	55.893360
1225.000000	56.049100
1224.000000	56.233607
1223.000000	56.428573
1222.000000	56.638457
1221.000000	56.886340
1220.000000	57.190379
1219.000000	57.553629
1218.000000	57.966949
1217.000000	58.407004
1216.000000	58.835287
1215.000000	59.216249
1214.000000	59.543821
1213.000000	59.841739
1212.000000	60.140937
1211.000000	60.466335
1210.000000	60.836047
1209.000000	61.251636
1208.000000	61.685906
1207.000000	62.095040
1206.000000	62.448301
1205.000000	62.741569
1204.000000	62.988322
1203.000000	63.214285
1202.000000	63.456506
1201.000000	63.744232
1200.000000	64.074688
1199.000000	64.417025
1198.000000	64.739349
1197.000000	65.023590
1196.000000	65.262444
1195.000000	65.463764
1194.000000	65.657488
1193.000000	65.877967
1192.000000	66.133713
1191.000000	66.402977
1190.000000	66.657040
1189.000000	66.874954
1188.000000	67.043093
1187.000000	67.165170
1186.000000	67.274726
1185.000000	67.418606
1184.000000	67.620599
1183.000000	67.866985
1182.000000	68.121450
1181.000000	68.340992
1180.000000	68.488324
1179.000000	68.555234
1178.000000	68.578079
1177.000000	68.615223
1176.000000	68.707897
1175.000000	68.868454
1174.000000	69.089790
1173.000000	69.343719
1172.000000	69.577815
1171.000000	69.740640
1170.000000	69.819150
1169.000000	69.842166
1168.000000	69.852105
1167.000000	69.887302
1166.000000	69.978546
1165.000000	70.133569
1164.000000	70.320549
1163.000000	70.485447
1162.000000	70.592809
1161.000000	70.641615
1160.000000	70.650871
1159.000000	70.651138
1158.000000	70.682347
1157.000000	70.771668
1156.000000	70.905884
1155.000000	71.039256
1154.000000	71.130214
1153.000000	71.160036
1152.000000	71.128103
1151.000000	71.055019
1150.000000	70.988077
1149.000000	70.976509
1148.000000	71.031694
1147.000000	71.122027
1146.000000	71.201992
1145.000000	71.232964
1144.000000	71.189144
1143.000000	71.072644
1142.000000	70.926789
1141.000000	70.813020
1140.000000	70.767243
1139.000000	70.785309
1138.000000	70.839050
1137.000000	70.887931
1136.000000	70.884597
1135.000000	70.799233
1134.000000	70.647848
1133.000000	70.481787
1132.000000	70.348109
1131.000000	70.268560
1130.000000	70.242129
1129.000000	70.243538
1128.000000	70.221403
1127.000000	70.124210
1126.000000	69.939337
1125.000000	69.696490
1124.000000	69.438771
1123.000000	69.202237
1122.000000	69.009902
1121.000000	68.857522
1120.000000	68.699649
1119.000000	68.472573
1118.000000	68.138430
1117.000000	67.701024
1116.000000	67.191021
1115.000000	66.650898
1114.000000	66.126676
1113.000000	65.643816
1112.000000	65.180827
1111.000000	64.681304
1110.000000	64.089340
1109.000000	63.372881
1108.000000	62.527279
1107.000000	61.575347
1106.000000	60.565358
1105.000000	59.541517
1104.000000	58.513051
1103.000000	57.454095
1102.000000	56.322968
1101.000000	55.081078
1100.000000	53.703490
1099.000000	52.192910
1098.000000	50.582907
1097.000000	48.913721
1096.000000	47.210039
1095.000000	45.475538
1094.000000	43.698056
1093.000000	41.857633
1092.000000	39.938304
1091.000000	37.947207
1090.000000	35.916997
1089.000000	33.890148
1088.000000	31.905166
1087.000000	29.991960
1086.000000	28.164043
1085.000000	26.417650
1084.000000	24.748378
1083.000000	23.161171
1082.000000	21.669476
1081.000000	20.286791
1080.000000	19.029628
1079.000000	17.917353
1078.000000	16.949183
1077.000000	16.103490
1076.000000	15.355317
1075.000000	14.687050
1074.000000	14.084788
1073.000000	13.533055
1072.000000	13.030600
1071.000000	12.589674
1070.000000	12.214778
1069.000000	11.898772
1068.000000	11.634615
1067.000000	11.421676
1066.000000	11.253761
1065.000000	11.118188
1064.000000	11.015459
1063.000000	10.958770
1062.000000	10.956100
1061.000000	11.004998
1060.000000	11.104565
1059.000000	11.258429
1058.000000	11.458184
1057.000000	11.684878
1056.000000	11.930257
1055.000000	12.201210
1054.000000	12.505473
1053.000000	12.844285
1052.000000	13.222556
1051.000000	13.648222
1050.000000	14.114998
1049.000000	14.603798
1048.000000	15.101443
1047.000000	15.607592
1046.000000	16.124545
1045.000000	16.653814
1044.000000	17.205666
1043.000000	17.794393
1042.000000	18.421713
1041.000000	19.074873
1040.000000	19.739696
1039.000000	20.408167
1038.000000	21.074258
1037.000000	21.736077
1036.000000	22.404342
1035.000000	23.096459
1034.000000	23.820880
1033.000000	24.571752
1032.000000	25.336896
1031.000000	26.103533
1030.000000	26.858178
1029.000000	27.593201
1028.000000	28.316039
1027.000000	29.045679
1026.000000	29.797770
1025.000000	30.575228
1024.000000	31.369161
1023.000000	32.162078
1022.000000	32.932269
1021.000000	33.663310
1020.000000	34.354950
1019.000000	35.024411
1018.000000	35.696562
1017.000000	36.391545
1016.000000	37.115917
1015.000000	37.859471
1014.000000	38.598208
1013.000000	39.304699
1012.000000	39.962089
1011.000000	40.572547
1010.000000	41.156247
1009.000000	41.740562
1008.000000	42.345761
1007.000000	42.976575
1006.000000	43.621276
1005.000000	44.257054
1004.000000	44.859926
1003.000000	45.417257
1002.000000	45.936245
1001.000000	46.439009
1000.000000	46.949062
999.000000	47.480333
998.000000	48.032278
997.000000	48.589328
996.000000	49.125139
995.000000	49.617238
994.000000	50.063583
993.000000	50.483138
992.000000	50.902555
991.000000	51.343776
990.000000	51.817588
989.000000	52.317356
988.000000	52.816626
987.000000	53.282503
986.000000	53.696525
985.000000	54.063320
984.000000	54.403754
983.000000	54.745999
982.000000	55.118559
981.000000	55.535778
980.000000	55.984518
979.000000	56.431694
978.000000	56.846587
977.000000	57.214880
976.000000	57.537989
975.000000	57.831632
974.000000	58.124436
973.000000	58.442896
972.000000	58.792296
971.000000	59.155539
970.000000	59.509714
969.000000	59.838513
968.000000	60.133137
967.000000	60.397038
966.000000	60.651457
965.000000	60.923412
964.000000	61.224140
963.000000	61.543141
962.000000	61.860326
961.000000	62.155403
960.000000	62.410329
959.000000	62.619944
958.000000	62.802973
957.000000	62.992169
956.000000	63.210248
955.000000	63.460328
954.000000	63.734024
953.000000	64.013671
952.000000	64.270391
951.000000	64.478628
950.000000	64.637764
949.000000	64.771196
948.000000	64.904715
947.000000	65.054866
946.000000	65.232324
945.000000	65.438023
944.000000	65.654749
943.000000	65.856497
942.000000	66.030662
941.000000	66.182553
940.000000	66.320288
939.000000	66.449472
938.000000	66.579261
937.000000	66.716763
936.000000	66.854134
935.000000	66.974171
934.000000	67.071066
933.000000	67.154779
932.000000	67.236344
931.000000	67.322641
930.000000	67.421771
929.000000	67.536845
928.000000	67.652327
927.000000	67.740650
926.000000	67.786023
925.000000	67.790909
924.000000	67.764453
923.000000	67.719765
922.000000	67.679246
921.000000	67.664829
920.000000	67.677680
919.000000	67.698316
918.000000	67.705979
917.000000	67.685975
916.000000	67.624488
915.000000	67.513849
914.000000	67.364824
913.000000	67.199078
912.000000	67.027160
911.000000	66.847232
910.000000	66.659679
909.000000	66.467813
908.000000	66.266577
907.000000	66.045020
906.000000	65.801154
905.000000	65.538374
904.000000	65.248488
903.000000	64.914757
902.000000	64.530064
901.000000	64.101098
900.000000	63.636585
899.000000	63.145174
898.000000	62.643723
897.000000	62.148328
896.000000	61.656100
895.000000	61.145565
894.000000	60.593473
893.000000	59.983646
892.000000	59.302160
891.000000	58.543679
890.000000	57.723458
889.000000	56.868982
888.000000	55.999830
887.000000	55.118717
886.000000	54.218402
885.000000	53.285972
884.000000	52.302316
883.000000	51.253080
882.000000	50.139887
881.000000	48.976678
880.000000	47.776798
879.000000	46.547462
878.000000	45.293812
877.000000	44.017668
876.000000	42.715854
875.000000	41.386810
874.000000	40.037188
873.000000	38.680074
872.000000	37.328280
871.000000	35.990448
870.000000	34.668501
869.000000	33.356801
868.000000	32.046781
867.000000	30.734819
866.000000	29.426194
865.000000	28.133185
864.000000	26.873027
863.000000	25.661687
862.000000	24.505100
861.000000	23.398434
860.000000	22.333248
859.000000	21.306487
858.000000	20.321290
857.000000	19.390281
856.000000	18.542705
855.000000	17.814742
854.000000	17.234035
853.000000	16.809102
852.000000	16.529928
851.000000	16.370302
850.000000	16.285605
849.000000	16.229592
848.000000	16.175397
847.000000	16.118648
846.000000	16.065612
845.000000	16.023119
844.000000	16.000273
843.000000	16.005134
842.000000	16.037594
841.000000	16.094224
840.000000	16.177967
839.000000	16.298554
838.000000	16.464305
837.000000	16.680318
836.000000	16.953288
835.000000	17.285636
834.000000	17.667009
833.000000	18.078383
832.000000	18.504089
831.000000	18.937704
830.000000	19.379332
829.000000	19.836845
828.000000	20.326260
827.000000	20.861105
826.000000	21.441527
825.000000	22.055371
824.000000	22.687321
823.000000	23.323895
822.000000	23.956288
821.000000	24.587417
820.000000	25.232212
819.000000	25.905407
818.000000	26.608685
817.000000	27.328823
816.000000	28.043000
815.000000	28.725324
814.000000	29.357790
813.000000	29.942208
812.000000	30.501315
811.000000	31.066436
810.000000	31.662433
809.000000	32.297218
808.000000	32.956386
807.000000	33.607555
806.000000	34.217231
805.000000	34.770911
804.000000	35.280204
803.000000	35.775431
802.000000	36.293561
801.000000	36.863139
800.000000	37.487614
799.000000	38.139489
798.000000	38.774529
797.000000	39.355556
796.000000	39.868145
795.000000	40.326373
794.000000	40.769857
793.000000	41.245723
792.000000	41.780570
791.000000	42.364105
790.000000	42.957178
789.000000	43.512620
788.000000	43.993950
787.000000	44.393218
786.000000	44.742312
785.000000	45.099107
784.000000	45.511692
783.000000	45.991568
782.000000	46.513674
781.000000	47.029546
780.000000	47.482739
779.000000	47.834620
778.000000	48.093541
777.000000	48.316259
776.000000	48.573147
775.000000	48.910562
774.000000	49.336479
773.000000	49.819535
772.000000	50.294173
771.000000	50.686851
770.000000	50.960780
769.000000	51.140147
768.000000	51.290881
767.000000	51.484191
766.000000	51.769937
765.000000	52.156510
764.000000	52.598146
763.000000	53.011774
762.000000	53.326599
761.000000	53.525269
760.000000	53.644194
759.000000	53.749696
758.000000	53.912438
757.000000	54.176218
756.000000	54.527347
755.000000	54.895182
754.000000	55.194756
753.000000	55.374876
752.000000	55.437919
751.000000	55.436555
750.000000	55.456458
749.000000	55.576796
748.000000	55.820966
747.000000	56.139152
746.000000	56.439582
745.000000	56.635577
744.000000	56.678626
743.000000	56.580666
742.000000	56.421098
741.000000	56.313143
740.000000	56.339017
739.000000	56.507235
738.000000	56.759960
737.000000	57.004550
736.000000	57.146061
735.000000	57.129866
734.000000	56.982767
733.000000	56.804600
732.000000	56.706255
731.000000	56.752849
730.000000	56.949112
729.000000	57.244362
728.000000	57.544025
727.000000	57.751218
726.000000	57.830221
725.000000	57.831338
724.000000	57.849323
723.000000	57.966077
722.000000	58.221941
721.000000	58.601661
720.000000	59.025309
719.000000	59.378174
718.000000	59.584110
717.000000	59.655342
716.000000	59.673092
715.000000	59.738673
714.000000	59.937734
713.000000	60.305277
712.000000	60.789534
711.000000	61.262216
710.000000	61.593968
709.000000	61.729433
708.000000	61.703040
707.000000	61.615344
706.000000	61.598004
705.000000	61.760121
704.000000	62.124089
703.000000	62.603975
702.000000	63.059436
701.000000	63.372319
700.000000	63.486752
699.000000	63.428212
698.000000	63.307215
697.000000	63.272867
696.000000	63.422701
695.000000	63.746129
694.000000	64.151867
693.000000	64.525394
692.000000	64.763500
691.000000	64.815622
690.000000	64.731449
689.000000	64.648487
688.000000	64.696951
687.000000	64.913632
686.000000	65.250062
685.000000	65.616637
684.000000	65.897361
683.000000	65.988730
682.000000	65.886930
681.000000	65.714878
680.000000	65.630094
679.000000	65.719604
678.000000	65.991770
677.000000	66.389472
676.000000	66.776488
675.000000	66.998709
674.000000	66.989576
673.000000	66.813738
672.000000	66.619456
671.000000	66.560144
670.000000	66.747237
669.000000	67.216227
668.000000	67.794462
667.000000	68.156865
666.000000	68.181030
665.000000	67.969304
664.000000	67.653614
663.000000	67.368272
662.000000	67.237757
661.000000	67.332822
660.000000	67.627072
659.000000	68.008223
658.000000	68.328738
657.000000	68.465174
656.000000	68.378611
655.000000	68.159558
654.000000	67.969973
653.000000	67.932397
652.000000	68.087712
651.000000	68.396809
650.000000	68.740120
649.000000	68.953842
648.000000	68.929432
647.000000	68.692142
646.000000	68.377615
645.000000	68.143799
644.000000	68.100162
643.000000	68.272538
642.000000	68.585081
641.000000	68.879798
640.000000	68.996307
639.000000	68.864654
638.000000	68.536659
637.000000	68.148376
636.000000	67.857078
635.000000	67.776245
634.000000	67.916539
633.000000	68.170275
632.000000	68.369329
631.000000	68.381028
630.000000	68.172988
629.000000	67.816140
628.000000	67.447628
627.000000	67.214462
626.000000	67.199622
625.000000	67.368701
624.000000	67.586352
623.000000	67.694527
622.000000	67.598963
621.000000	67.311203
620.000000	66.936512
619.000000	66.625887
618.000000	66.506461
617.000000	66.615627
616.000000	66.879642
615.000000	67.149843
614.000000	67.272126
613.000000	67.160705
612.000000	66.844471
611.000000	66.458177
610.000000	66.173735
609.000000	66.109302
608.000000	66.274693
607.000000	66.574877
606.000000	66.854403
605.000000	66.966125
604.000000	66.841290
603.000000	66.525794
602.000000	66.154457
601.000000	65.873252
600.000000	65.762764
599.000000	65.802381
598.000000	65.887388
597.000000	65.887500
596.000000	65.720255
595.000000	65.403424
594.000000	65.055186
593.000000	64.831895
592.000000	64.847163
591.000000	65.116057
590.000000	65.544387
589.000000	65.972425
588.000000	66.250225
587.000000	66.307927
586.000000	66.188224
585.000000	66.020322
584.000000	65.950702
583.000000	66.076778
582.000000	66.408243
581.000000	66.855496
580.000000	67.256000
579.000000	67.452432
578.000000	67.387482
577.000000	67.135062
576.000000	66.855039
575.000000	66.712233
574.000000	66.797465
573.000000	67.090520
572.000000	67.479078
571.000000	67.811859
570.000000	67.968125
569.000000	67.914029
568.000000	67.710752
567.000000	67.483459
566.000000	67.364142
565.000000	67.421913
564.000000	67.625406
563.000000	67.868147
562.000000	68.033124
561.000000	68.053228
560.000000	67.937410
559.000000	67.764248
558.000000	67.645566
557.000000	67.663267
556.000000	67.818575
555.000000	68.032256
554.000000	68.190370
553.000000	68.203742
552.000000	68.051597
551.000000	67.801034
550.000000	67.584874
549.000000	67.531092
548.000000	67.693128
547.000000	68.029800
546.000000	68.425066
545.000000	68.731419
544.000000	68.829995
543.000000	68.694034
542.000000	68.416194
541.000000	68.161028
540.000000	68.071207
539.000000	68.205725
538.000000	68.529253
537.000000	68.931207
536.000000	69.268191
535.000000	69.430865
534.000000	69.405087
533.000000	69.272888
532.000000	69.152904
531.000000	69.139049
530.000000	69.266909
529.000000	69.502867
528.000000	69.760892
527.000000	69.951637
526.000000	70.038742
525.000000	70.049063
524.000000	70.035842
523.000000	70.048671
522.000000	70.121827
521.000000	70.254454
520.000000	70.392006
519.000000	70.449604
518.000000	70.376277
517.000000	70.193112
516.000000	69.967124
515.000000	69.771863
514.000000	69.665141
513.000000	69.662324
512.000000	69.709522
511.000000	69.694037
510.000000	69.505541
509.000000	69.097794
508.000000	68.505117
507.000000	67.830516
506.000000	67.209600
505.000000	66.742526
504.000000	66.450059
503.000000	66.292002
502.000000	66.199845
501.000000	66.089699
500.000000	65.893231
499.000000	65.606958
498.000000	65.313860
497.000000	65.136225
496.000000	65.156233
495.000000	65.376240
494.000000	65.741040
493.000000	66.183745
492.000000	66.643580
491.000000	67.075509
490.000000	67.471800
489.000000	67.859956
488.000000	68.272620
487.000000	68.723446
486.000000	69.204027
485.000000	69.675962
484.000000	70.063394
483.000000	70.285509
482.000000	70.329369
481.000000	70.273701
480.000000	70.224612
479.000000	70.250714
478.000000	70.368812
477.000000	70.546906
476.000000	70.712064
475.000000	70.790539
474.000000	70.771301
473.000000	70.729386
472.000000	70.755066
471.000000	70.877109
470.000000	71.099861
469.000000	71.439234
468.000000	71.879274
467.000000	72.332165
466.000000	72.684902
465.000000	72.890079
464.000000	72.974851
463.000000	73.002100
462.000000	73.049949
461.000000	73.177323
460.000000	73.370948
459.000000	73.561956
458.000000	73.708001
457.000000	73.804091
456.000000	73.833936
455.000000	73.801294
454.000000	73.770562
453.000000	73.840838
452.000000	74.059195
451.000000	74.356286
450.000000	74.614937
449.000000	74.767261
448.000000	74.803002
447.000000	74.746996
446.000000	74.665541
445.000000	74.654512
444.000000	74.784698
443.000000	75.068591
442.000000	75.463114
441.000000	75.881577
440.000000	76.209397
439.000000	76.355733
438.000000	76.324365
437.000000	76.227392
436.000000	76.191156
435.000000	76.264150
434.000000	76.437629
433.000000	76.699124
432.000000	77.009243
431.000000	77.285359
430.000000	77.469958
429.000000	77.576050
428.000000	77.632037
427.000000	77.648924
426.000000	77.670818
425.000000	77.771778
424.000000	77.959300
423.000000	78.142282
422.000000	78.240804
421.000000	78.240357
420.000000	78.159789
419.000000	78.136325
418.000000	78.321939
417.000000	78.676670
416.000000	79.075691
415.000000	79.371827
414.000000	79.459824
413.000000	79.373664
412.000000	79.215381
411.000000	79.054514
410.000000	78.985678
409.000000	79.138979
408.000000	79.507838
407.000000	79.894515
406.000000	80.119329
405.000000	80.182916
404.000000	80.115939
403.000000	79.887693
402.000000	79.545168
401.000000	79.329558
400.000000	79.357345
