PE IR       SUBTECH     SPECTRUM    ASCII       PEDS        4.00        
   -1
23ms233_nitrito.asc
24/09/02
16:21:40.00
24/09/02
16:21:40.00
Administrator
Sample 1078 By Administrator Date Monday, September 02 2024
400.000000
#HDR
-1
-1
#GR
cm-1
%T
1.0
0.0
4000.000000
-1.000000
3601
8
87.165033
5.742466
#DATA
4000.000000	72.071569
3999.000000	72.125678
3998.000000	72.176426
3997.000000	72.222742
3996.000000	72.264829
3995.000000	72.304444
3994.000000	72.344834
3993.000000	72.389220
3992.000000	72.438467
3991.000000	72.490184
3990.000000	72.540511
3989.000000	72.586865
3988.000000	72.629115
3987.000000	72.668762
3986.000000	72.707942
3985.000000	72.748838
3984.000000	72.793088
3983.000000	72.840983
3982.000000	72.891167
3981.000000	72.941394
3980.000000	72.989532
3979.000000	73.034364
3978.000000	73.075713
3977.000000	73.114290
3976.000000	73.151782
3975.000000	73.190149
3974.000000	73.230456
3973.000000	73.272454
3972.000000	73.314843
3971.000000	73.356122
3970.000000	73.394854
3969.000000	73.430243
3968.000000	73.462994
3967.000000	73.495139
3966.000000	73.529316
3965.000000	73.567490
3964.000000	73.609784
3963.000000	73.653978
3962.000000	73.696694
3961.000000	73.735731
3960.000000	73.771290
3959.000000	73.805099
3958.000000	73.838199
3957.000000	73.870873
3956.000000	73.904064
3955.000000	73.939032
3954.000000	73.976811
3953.000000	74.017563
3952.000000	74.060892
3951.000000	74.106100
3950.000000	74.151559
3949.000000	74.194844
3948.000000	74.234375
3947.000000	74.272336
3946.000000	74.314044
3945.000000	74.362471
3944.000000	74.413810
3943.000000	74.459967
3942.000000	74.497412
3941.000000	74.530980
3940.000000	74.566762
3939.000000	74.605686
3938.000000	74.644164
3937.000000	74.680441
3936.000000	74.718670
3935.000000	74.763671
3934.000000	74.815763
3933.000000	74.869761
3932.000000	74.919824
3931.000000	74.963524
3930.000000	75.000494
3929.000000	75.033597
3928.000000	75.068196
3927.000000	75.109108
3926.000000	75.155070
3925.000000	75.198310
3924.000000	75.235750
3923.000000	75.273597
3922.000000	75.316861
3921.000000	75.362682
3920.000000	75.406236
3919.000000	75.447523
3918.000000	75.487462
3917.000000	75.522804
3916.000000	75.551625
3915.000000	75.578535
3914.000000	75.609671
3913.000000	75.645469
3912.000000	75.681411
3911.000000	75.715577
3910.000000	75.749941
3909.000000	75.788193
3908.000000	75.836095
3907.000000	75.895960
3906.000000	75.963450
3905.000000	76.025971
3904.000000	76.074113
3903.000000	76.114475
3902.000000	76.159438
3901.000000	76.208877
3900.000000	76.248319
3899.000000	76.266796
3898.000000	76.271787
3897.000000	76.280331
3896.000000	76.301540
3895.000000	76.337418
3894.000000	76.386570
3893.000000	76.442944
3892.000000	76.490618
3891.000000	76.515195
3890.000000	76.526616
3889.000000	76.550047
3888.000000	76.599494
3887.000000	76.664036
3886.000000	76.717044
3885.000000	76.748311
3884.000000	76.778114
3883.000000	76.826699
3882.000000	76.886224
3881.000000	76.931446
3880.000000	76.947953
3879.000000	76.949398
3878.000000	76.962856
3877.000000	76.999952
3876.000000	77.050313
3875.000000	77.093722
3874.000000	77.120497
3873.000000	77.144855
3872.000000	77.187956
3871.000000	77.245287
3870.000000	77.287997
3869.000000	77.307996
3868.000000	77.330879
3867.000000	77.373201
3866.000000	77.420827
3865.000000	77.454081
3864.000000	77.475981
3863.000000	77.503013
3862.000000	77.535901
3861.000000	77.565123
3860.000000	77.590506
3859.000000	77.619741
3858.000000	77.661036
3857.000000	77.717299
3856.000000	77.788564
3855.000000	77.859158
3854.000000	77.897547
3853.000000	77.904445
3852.000000	77.921708
3851.000000	77.964737
3850.000000	78.007027
3849.000000	78.028999
3848.000000	78.037330
3847.000000	78.053075
3846.000000	78.087279
3845.000000	78.135682
3844.000000	78.188073
3843.000000	78.235725
3842.000000	78.276995
3841.000000	78.318673
3840.000000	78.362501
3839.000000	78.402663
3838.000000	78.440184
3837.000000	78.481703
3836.000000	78.531060
3835.000000	78.582696
3834.000000	78.628002
3833.000000	78.662117
3832.000000	78.683605
3831.000000	78.698848
3830.000000	78.722348
3829.000000	78.763994
3828.000000	78.818836
3827.000000	78.870810
3826.000000	78.907599
3825.000000	78.937536
3824.000000	78.979229
3823.000000	79.037637
3822.000000	79.094757
3821.000000	79.126986
3820.000000	79.144211
3819.000000	79.177894
3818.000000	79.235334
3817.000000	79.292697
3816.000000	79.324376
3815.000000	79.339022
3814.000000	79.368424
3813.000000	79.416465
3812.000000	79.458423
3811.000000	79.484803
3810.000000	79.512770
3809.000000	79.559411
3808.000000	79.615531
3807.000000	79.655950
3806.000000	79.678490
3805.000000	79.709511
3804.000000	79.762276
3803.000000	79.826486
3802.000000	79.877203
3801.000000	79.904692
3800.000000	79.937755
3799.000000	79.997879
3798.000000	80.066200
3797.000000	80.113124
3796.000000	80.133019
3795.000000	80.146769
3794.000000	80.175432
3793.000000	80.218569
3792.000000	80.262891
3791.000000	80.302908
3790.000000	80.341417
3789.000000	80.380276
3788.000000	80.419739
3787.000000	80.461532
3786.000000	80.506242
3785.000000	80.550166
3784.000000	80.590018
3783.000000	80.630885
3782.000000	80.679716
3781.000000	80.733644
3780.000000	80.780802
3779.000000	80.814868
3778.000000	80.843750
3777.000000	80.878642
3776.000000	80.919132
3775.000000	80.956397
3774.000000	80.988678
3773.000000	81.024628
3772.000000	81.070740
3771.000000	81.120713
3770.000000	81.164323
3769.000000	81.204970
3768.000000	81.254906
3767.000000	81.314060
3766.000000	81.367742
3765.000000	81.402290
3764.000000	81.423224
3763.000000	81.450018
3762.000000	81.491395
3761.000000	81.539645
3760.000000	81.585447
3759.000000	81.630698
3758.000000	81.677958
3757.000000	81.719810
3756.000000	81.752198
3755.000000	81.778524
3754.000000	81.803420
3753.000000	81.829917
3752.000000	81.864956
3751.000000	81.919012
3750.000000	81.987430
3749.000000	82.054709
3748.000000	82.120398
3747.000000	82.195821
3746.000000	82.279536
3745.000000	82.338027
3744.000000	82.350277
3743.000000	82.363774
3742.000000	82.416980
3741.000000	82.480951
3740.000000	82.520052
3739.000000	82.540812
3738.000000	82.574714
3737.000000	82.630994
3736.000000	82.695196
3735.000000	82.754984
3734.000000	82.810607
3733.000000	82.860298
3732.000000	82.896003
3731.000000	82.922794
3730.000000	82.955340
3729.000000	82.998878
3728.000000	83.046288
3727.000000	83.087072
3726.000000	83.121883
3725.000000	83.162486
3724.000000	83.214197
3723.000000	83.268110
3722.000000	83.312763
3721.000000	83.348883
3720.000000	83.382508
3719.000000	83.416892
3718.000000	83.449856
3717.000000	83.478399
3716.000000	83.508666
3715.000000	83.547657
3714.000000	83.594177
3713.000000	83.642605
3712.000000	83.692666
3711.000000	83.749882
3710.000000	83.813704
3709.000000	83.874493
3708.000000	83.923221
3707.000000	83.958705
3706.000000	83.988445
3705.000000	84.021822
3704.000000	84.063245
3703.000000	84.109450
3702.000000	84.153180
3701.000000	84.191555
3700.000000	84.228979
3699.000000	84.270550
3698.000000	84.313577
3697.000000	84.348903
3696.000000	84.374569
3695.000000	84.400506
3694.000000	84.433793
3693.000000	84.472483
3692.000000	84.513566
3691.000000	84.558478
3690.000000	84.606076
3689.000000	84.649693
3688.000000	84.688633
3687.000000	84.730479
3686.000000	84.776902
3685.000000	84.816043
3684.000000	84.836738
3683.000000	84.844599
3682.000000	84.857464
3681.000000	84.881291
3680.000000	84.906238
3679.000000	84.925258
3678.000000	84.947584
3677.000000	84.983427
3676.000000	85.020043
3675.000000	85.046841
3674.000000	85.078230
3673.000000	85.124219
3672.000000	85.169401
3671.000000	85.196529
3670.000000	85.204019
3669.000000	85.208941
3668.000000	85.227668
3667.000000	85.252272
3666.000000	85.264714
3665.000000	85.262084
3664.000000	85.254933
3663.000000	85.254153
3662.000000	85.259684
3661.000000	85.260802
3660.000000	85.252685
3659.000000	85.239519
3658.000000	85.226494
3657.000000	85.211882
3656.000000	85.194214
3655.000000	85.186067
3654.000000	85.195948
3653.000000	85.209816
3652.000000	85.203536
3651.000000	85.168627
3650.000000	85.124674
3649.000000	85.102940
3648.000000	85.111861
3647.000000	85.128797
3646.000000	85.127798
3645.000000	85.101310
3644.000000	85.055963
3643.000000	85.001316
3642.000000	84.943124
3641.000000	84.884980
3640.000000	84.832169
3639.000000	84.786832
3638.000000	84.746540
3637.000000	84.708434
3636.000000	84.671942
3635.000000	84.635014
3634.000000	84.592831
3633.000000	84.547262
3632.000000	84.505646
3631.000000	84.470219
3630.000000	84.431687
3629.000000	84.381567
3628.000000	84.333170
3627.000000	84.306257
3626.000000	84.287607
3625.000000	84.247918
3624.000000	84.181105
3623.000000	84.105416
3622.000000	84.039001
3621.000000	83.982106
3620.000000	83.924534
3619.000000	83.863967
3618.000000	83.808024
3617.000000	83.760458
3616.000000	83.716345
3615.000000	83.667846
3614.000000	83.609747
3613.000000	83.544715
3612.000000	83.483045
3611.000000	83.432004
3610.000000	83.388262
3609.000000	83.345375
3608.000000	83.301944
3607.000000	83.260537
3606.000000	83.219413
3605.000000	83.171101
3604.000000	83.112433
3603.000000	83.047197
3602.000000	82.980810
3601.000000	82.915470
3600.000000	82.852365
3599.000000	82.793580
3598.000000	82.739504
3597.000000	82.688151
3596.000000	82.639720
3595.000000	82.594056
3594.000000	82.546577
3593.000000	82.494618
3592.000000	82.439893
3591.000000	82.386467
3590.000000	82.337744
3589.000000	82.296552
3588.000000	82.263995
3587.000000	82.236270
3586.000000	82.204610
3585.000000	82.160713
3584.000000	82.101409
3583.000000	82.029599
3582.000000	81.951782
3581.000000	81.874795
3580.000000	81.804382
3579.000000	81.743044
3578.000000	81.687591
3577.000000	81.632386
3576.000000	81.574393
3575.000000	81.515103
3574.000000	81.456511
3573.000000	81.400093
3572.000000	81.347646
3571.000000	81.299428
3570.000000	81.252517
3569.000000	81.203347
3568.000000	81.152390
3567.000000	81.103426
3566.000000	81.056870
3565.000000	81.008084
3564.000000	80.952176
3563.000000	80.888068
3562.000000	80.817052
3561.000000	80.741268
3560.000000	80.663273
3559.000000	80.585190
3558.000000	80.507223
3557.000000	80.428890
3556.000000	80.352070
3555.000000	80.280283
3554.000000	80.214228
3553.000000	80.150108
3552.000000	80.084363
3551.000000	80.016730
3550.000000	79.947980
3549.000000	79.878600
3548.000000	79.810120
3547.000000	79.745096
3546.000000	79.682745
3545.000000	79.618600
3544.000000	79.549072
3543.000000	79.473079
3542.000000	79.389815
3541.000000	79.300468
3540.000000	79.211526
3539.000000	79.130720
3538.000000	79.059448
3537.000000	78.991885
3536.000000	78.923401
3535.000000	78.854418
3534.000000	78.786144
3533.000000	78.717296
3532.000000	78.646462
3531.000000	78.575289
3530.000000	78.506455
3529.000000	78.442446
3528.000000	78.386169
3527.000000	78.339354
3526.000000	78.298294
3525.000000	78.254193
3524.000000	78.199754
3523.000000	78.134365
3522.000000	78.063012
3521.000000	77.992249
3520.000000	77.927270
3519.000000	77.869099
3518.000000	77.814529
3517.000000	77.759851
3516.000000	77.703972
3515.000000	77.646267
3514.000000	77.584445
3513.000000	77.518022
3512.000000	77.451161
3511.000000	77.388429
3510.000000	77.328779
3509.000000	77.267180
3508.000000	77.201170
3507.000000	77.132625
3506.000000	77.063507
3505.000000	76.994112
3504.000000	76.924748
3503.000000	76.855469
3502.000000	76.784284
3501.000000	76.708934
3500.000000	76.629638
3499.000000	76.546810
3498.000000	76.458387
3497.000000	76.363246
3496.000000	76.266022
3495.000000	76.173640
3494.000000	76.087547
3493.000000	76.003387
3492.000000	75.917202
3491.000000	75.827709
3490.000000	75.733698
3489.000000	75.634073
3488.000000	75.530438
3487.000000	75.426171
3486.000000	75.322922
3485.000000	75.220809
3484.000000	75.121228
3483.000000	75.025292
3482.000000	74.929522
3481.000000	74.827315
3480.000000	74.715165
3479.000000	74.595296
3478.000000	74.472509
3477.000000	74.351413
3476.000000	74.235508
3475.000000	74.125220
3474.000000	74.017226
3473.000000	73.907924
3472.000000	73.796828
3471.000000	73.684212
3470.000000	73.567510
3469.000000	73.443676
3468.000000	73.313434
3467.000000	73.179947
3466.000000	73.044829
3465.000000	72.908208
3464.000000	72.771215
3463.000000	72.634823
3462.000000	72.497314
3461.000000	72.356276
3460.000000	72.212137
3459.000000	72.067114
3458.000000	71.921827
3457.000000	71.775526
3456.000000	71.628571
3455.000000	71.481324
3454.000000	71.332249
3453.000000	71.179768
3452.000000	71.025139
3451.000000	70.870899
3450.000000	70.716388
3449.000000	70.557952
3448.000000	70.393460
3447.000000	70.224311
3446.000000	70.053181
3445.000000	69.881813
3444.000000	69.710560
3443.000000	69.538269
3442.000000	69.362990
3441.000000	69.184543
3440.000000	69.005132
3439.000000	68.825615
3438.000000	68.642959
3437.000000	68.453353
3436.000000	68.256721
3435.000000	68.055697
3434.000000	67.851811
3433.000000	67.644772
3432.000000	67.433455
3431.000000	67.215607
3430.000000	66.987867
3429.000000	66.749716
3428.000000	66.506388
3427.000000	66.264506
3426.000000	66.025893
3425.000000	65.787614
3424.000000	65.545937
3423.000000	65.297174
3422.000000	65.036887
3421.000000	64.763264
3420.000000	64.480795
3419.000000	64.196835
3418.000000	63.915230
3417.000000	63.635266
3416.000000	63.354492
3415.000000	63.068898
3414.000000	62.772123
3413.000000	62.459584
3412.000000	62.132811
3411.000000	61.797063
3410.000000	61.455714
3409.000000	61.109508
3408.000000	60.759669
3407.000000	60.407264
3406.000000	60.050655
3405.000000	59.686959
3404.000000	59.314965
3403.000000	58.933919
3402.000000	58.541061
3401.000000	58.134024
3400.000000	57.714628
3399.000000	57.287120
3398.000000	56.854067
3397.000000	56.416252
3396.000000	55.974013
3395.000000	55.525785
3394.000000	55.066816
3393.000000	54.593092
3392.000000	54.105389
3391.000000	53.607015
3390.000000	53.100158
3389.000000	52.585886
3388.000000	52.065442
3387.000000	51.538556
3386.000000	51.002543
3385.000000	50.456149
3384.000000	49.901301
3383.000000	49.339440
3382.000000	48.768986
3381.000000	48.188684
3380.000000	47.600662
3379.000000	47.007165
3378.000000	46.407293
3377.000000	45.799601
3376.000000	45.184693
3375.000000	44.563248
3374.000000	43.934058
3373.000000	43.296370
3372.000000	42.651708
3371.000000	42.000959
3370.000000	41.343301
3369.000000	40.679206
3368.000000	40.011237
3367.000000	39.340374
3366.000000	38.664821
3365.000000	37.984148
3364.000000	37.300534
3363.000000	36.614675
3362.000000	35.924958
3361.000000	35.232202
3360.000000	34.540970
3359.000000	33.853979
3358.000000	33.169109
3357.000000	32.483896
3356.000000	31.798613
3355.000000	31.113354
3354.000000	30.426585
3353.000000	29.738818
3352.000000	29.054007
3351.000000	28.375504
3350.000000	27.703882
3349.000000	27.039595
3348.000000	26.383625
3347.000000	25.734155
3346.000000	25.087415
3345.000000	24.443084
3344.000000	23.805037
3343.000000	23.176103
3342.000000	22.555983
3341.000000	21.945227
3340.000000	21.346209
3339.000000	20.759158
3338.000000	20.182022
3337.000000	19.614688
3336.000000	19.059354
3335.000000	18.516050
3334.000000	17.982398
3333.000000	17.458769
3332.000000	16.948176
3331.000000	16.451174
3330.000000	15.965353
3329.000000	15.489983
3328.000000	15.027244
3327.000000	14.577870
3326.000000	14.140992
3325.000000	13.718191
3324.000000	13.312338
3323.000000	12.922940
3322.000000	12.546616
3321.000000	12.182331
3320.000000	11.831771
3319.000000	11.494190
3318.000000	11.167248
3317.000000	10.851543
3316.000000	10.549624
3315.000000	10.260930
3314.000000	9.982138
3313.000000	9.712715
3312.000000	9.454551
3311.000000	9.206771
3310.000000	8.966887
3309.000000	8.735998
3308.000000	8.518454
3307.000000	8.316340
3306.000000	8.129000
3305.000000	7.957389
3304.000000	7.802199
3303.000000	7.659411
3302.000000	7.522839
3301.000000	7.390649
3300.000000	7.264875
3299.000000	7.145240
3298.000000	7.029524
3297.000000	6.918960
3296.000000	6.817008
3295.000000	6.723840
3294.000000	6.637202
3293.000000	6.558315
3292.000000	6.491083
3291.000000	6.435135
3290.000000	6.385881
3289.000000	6.340505
3288.000000	6.299206
3287.000000	6.261248
3286.000000	6.224896
3285.000000	6.191449
3284.000000	6.163718
3283.000000	6.141200
3282.000000	6.121329
3281.000000	6.104386
3280.000000	6.092423
3279.000000	6.084085
3278.000000	6.075958
3277.000000	6.068236
3276.000000	6.063712
3275.000000	6.062077
3274.000000	6.060448
3273.000000	6.059328
3272.000000	6.062893
3271.000000	6.073397
3270.000000	6.089762
3269.000000	6.110815
3268.000000	6.135345
3267.000000	6.159980
3266.000000	6.181617
3265.000000	6.201494
3264.000000	6.222856
3263.000000	6.245647
3262.000000	6.267875
3261.000000	6.290307
3260.000000	6.315016
3259.000000	6.340723
3258.000000	6.364596
3257.000000	6.387641
3256.000000	6.413301
3255.000000	6.441915
3254.000000	6.471124
3253.000000	6.500554
3252.000000	6.531202
3251.000000	6.561438
3250.000000	6.588622
3249.000000	6.613895
3248.000000	6.640818
3247.000000	6.670169
3246.000000	6.700374
3245.000000	6.731632
3244.000000	6.765059
3243.000000	6.798916
3242.000000	6.830478
3241.000000	6.860480
3240.000000	6.891388
3239.000000	6.922352
3238.000000	6.950362
3237.000000	6.975173
3236.000000	6.998970
3235.000000	7.022626
3234.000000	7.046493
3233.000000	7.073227
3232.000000	7.105041
3231.000000	7.139307
3230.000000	7.171242
3229.000000	7.199681
3228.000000	7.226196
3227.000000	7.250508
3226.000000	7.271375
3225.000000	7.290473
3224.000000	7.310563
3223.000000	7.331042
3222.000000	7.349494
3221.000000	7.366268
3220.000000	7.383233
3219.000000	7.399503
3218.000000	7.412889
3217.000000	7.424095
3216.000000	7.435168
3215.000000	7.445358
3214.000000	7.452678
3213.000000	7.458080
3212.000000	7.463653
3211.000000	7.468302
3210.000000	7.469563
3209.000000	7.468026
3208.000000	7.465868
3207.000000	7.462590
3206.000000	7.456395
3205.000000	7.448246
3204.000000	7.440225
3203.000000	7.431605
3202.000000	7.420594
3201.000000	7.408140
3200.000000	7.395914
3199.000000	7.382282
3198.000000	7.364669
3197.000000	7.344185
3196.000000	7.323719
3195.000000	7.303306
3194.000000	7.281433
3193.000000	7.258930
3192.000000	7.237292
3191.000000	7.215018
3190.000000	7.190000
3189.000000	7.163680
3188.000000	7.138661
3187.000000	7.114144
3186.000000	7.087943
3185.000000	7.061086
3184.000000	7.036032
3183.000000	7.012211
3182.000000	6.987597
3181.000000	6.962842
3180.000000	6.939659
3179.000000	6.917076
3178.000000	6.893453
3177.000000	6.870303
3176.000000	6.849961
3175.000000	6.831375
3174.000000	6.812316
3173.000000	6.793681
3172.000000	6.777518
3171.000000	6.762961
3170.000000	6.748223
3169.000000	6.734540
3168.000000	6.724054
3167.000000	6.715786
3166.000000	6.707854
3165.000000	6.701430
3164.000000	6.698413
3163.000000	6.697513
3162.000000	6.696644
3161.000000	6.697057
3160.000000	6.700872
3159.000000	6.706802
3158.000000	6.712455
3157.000000	6.718488
3156.000000	6.726582
3155.000000	6.735831
3154.000000	6.745524
3153.000000	6.759078
3152.000000	6.780347
3151.000000	6.808064
3150.000000	6.838101
3149.000000	6.869188
3148.000000	6.902416
3147.000000	6.937230
3146.000000	6.972502
3145.000000	7.009569
3144.000000	7.049895
3143.000000	7.091689
3142.000000	7.132754
3141.000000	7.175025
3140.000000	7.222367
3139.000000	7.275577
3138.000000	7.333277
3137.000000	7.395304
3136.000000	7.461446
3135.000000	7.529077
3134.000000	7.595914
3133.000000	7.663561
3132.000000	7.734633
3131.000000	7.808687
3130.000000	7.884448
3129.000000	7.963311
3128.000000	8.046978
3127.000000	8.133845
3126.000000	8.221453
3125.000000	8.310165
3124.000000	8.400763
3123.000000	8.491369
3122.000000	8.580661
3121.000000	8.671627
3120.000000	8.768113
3119.000000	8.869726
3118.000000	8.974184
3117.000000	9.082158
3116.000000	9.195660
3115.000000	9.313838
3114.000000	9.434126
3113.000000	9.555715
3112.000000	9.678315
3111.000000	9.800000
3110.000000	9.920183
3109.000000	10.042362
3108.000000	10.170102
3107.000000	10.302259
3106.000000	10.435535
3105.000000	10.569495
3104.000000	10.705302
3103.000000	10.842104
3102.000000	10.978686
3101.000000	11.116713
3100.000000	11.258636
3099.000000	11.403814
3098.000000	11.550204
3097.000000	11.697910
3096.000000	11.847646
3095.000000	11.997849
3094.000000	12.146722
3093.000000	12.295434
3092.000000	12.446165
3091.000000	12.598795
3090.000000	12.752482
3089.000000	12.908181
3088.000000	13.066520
3087.000000	13.225470
3086.000000	13.383365
3085.000000	13.542129
3084.000000	13.704140
3083.000000	13.868066
3082.000000	14.031230
3081.000000	14.194012
3080.000000	14.358672
3079.000000	14.525658
3078.000000	14.694361
3077.000000	14.865543
3076.000000	15.039608
3075.000000	15.214248
3074.000000	15.386997
3073.000000	15.558439
3072.000000	15.730084
3071.000000	15.901019
3070.000000	16.069823
3069.000000	16.237976
3068.000000	16.408167
3067.000000	16.580727
3066.000000	16.754512
3065.000000	16.929680
3064.000000	17.106729
3063.000000	17.284388
3062.000000	17.461193
3061.000000	17.637571
3060.000000	17.813963
3059.000000	17.988767
3058.000000	18.160771
3057.000000	18.331811
3056.000000	18.504328
3055.000000	18.678036
3054.000000	18.851545
3053.000000	19.025353
3052.000000	19.200467
3051.000000	19.375827
3050.000000	19.549791
3049.000000	19.722569
3048.000000	19.894784
3047.000000	20.065472
3046.000000	20.234130
3045.000000	20.402918
3044.000000	20.574148
3043.000000	20.747232
3042.000000	20.920450
3041.000000	21.093818
3040.000000	21.267570
3039.000000	21.439774
3038.000000	21.608468
3037.000000	21.774709
3036.000000	21.941035
3035.000000	22.108342
3034.000000	22.276411
3033.000000	22.445652
3032.000000	22.615667
3031.000000	22.783952
3030.000000	22.948803
3029.000000	23.111896
3028.000000	23.275677
3027.000000	23.440064
3026.000000	23.604135
3025.000000	23.768875
3024.000000	23.935204
3023.000000	24.101096
3022.000000	24.263715
3021.000000	24.423137
3020.000000	24.581317
3019.000000	24.738799
3018.000000	24.895153
3017.000000	25.051254
3016.000000	25.208296
3015.000000	25.365679
3014.000000	25.522415
3013.000000	25.679530
3012.000000	25.838574
3011.000000	25.998963
3010.000000	26.159129
3009.000000	26.319045
3008.000000	26.479235
3007.000000	26.638619
3006.000000	26.795810
3005.000000	26.951403
3004.000000	27.106699
3003.000000	27.261198
3002.000000	27.413605
3001.000000	27.564175
3000.000000	27.713987
2999.000000	27.863081
2998.000000	28.011419
2997.000000	28.160328
2996.000000	28.310634
2995.000000	28.460718
2994.000000	28.608901
2993.000000	28.756540
2992.000000	28.906171
2991.000000	29.057540
2990.000000	29.208007
2989.000000	29.356110
2988.000000	29.502398
2987.000000	29.647572
2986.000000	29.792096
2985.000000	29.936970
2984.000000	30.082652
2983.000000	30.227742
2982.000000	30.370721
2981.000000	30.512209
2980.000000	30.653718
2979.000000	30.795165
2978.000000	30.935736
2977.000000	31.076274
2976.000000	31.218532
2975.000000	31.362625
2974.000000	31.507137
2973.000000	31.650949
2972.000000	31.793179
2971.000000	31.932311
2970.000000	32.067712
2969.000000	32.201421
2968.000000	32.336261
2967.000000	32.472776
2966.000000	32.609700
2965.000000	32.746509
2964.000000	32.883296
2963.000000	33.018906
2962.000000	33.151688
2961.000000	33.281715
2960.000000	33.410420
2959.000000	33.538665
2958.000000	33.666785
2957.000000	33.795579
2956.000000	33.925123
2955.000000	34.053627
2954.000000	34.179540
2953.000000	34.303847
2952.000000	34.428279
2951.000000	34.552286
2950.000000	34.674216
2949.000000	34.794515
2948.000000	34.915394
2947.000000	35.037926
2946.000000	35.161633
2945.000000	35.286227
2944.000000	35.411439
2943.000000	35.535608
2942.000000	35.656701
2941.000000	35.774618
2940.000000	35.890724
2939.000000	36.005703
2938.000000	36.119618
2937.000000	36.233346
2936.000000	36.347806
2935.000000	36.462197
2934.000000	36.575050
2933.000000	36.686409
2932.000000	36.796996
2931.000000	36.906010
2930.000000	37.012145
2929.000000	37.116390
2928.000000	37.221433
2927.000000	37.328520
2926.000000	37.436940
2925.000000	37.546047
2924.000000	37.655584
2923.000000	37.764481
2922.000000	37.871732
2921.000000	37.978133
2920.000000	38.085122
2919.000000	38.192501
2918.000000	38.299391
2917.000000	38.406587
2916.000000	38.515187
2915.000000	38.623119
2914.000000	38.725670
2913.000000	38.819901
2912.000000	38.906808
2911.000000	38.989328
2910.000000	39.070456
2909.000000	39.153346
2908.000000	39.240817
2907.000000	39.333455
2906.000000	39.429121
2905.000000	39.524559
2904.000000	39.616705
2903.000000	39.702942
2902.000000	39.782622
2901.000000	39.858030
2900.000000	39.933280
2899.000000	40.011502
2898.000000	40.093195
2897.000000	40.176668
2896.000000	40.258666
2895.000000	40.335544
2894.000000	40.405644
2893.000000	40.470617
2892.000000	40.533356
2891.000000	40.595254
2890.000000	40.656555
2889.000000	40.718167
2888.000000	40.780868
2887.000000	40.842928
2886.000000	40.900443
2885.000000	40.950083
2884.000000	40.990159
2883.000000	41.019738
2882.000000	41.038800
2881.000000	41.049261
2880.000000	41.054020
2879.000000	41.054821
2878.000000	41.052388
2877.000000	41.048158
2876.000000	41.043824
2875.000000	41.039315
2874.000000	41.033995
2873.000000	41.030493
2872.000000	41.035840
2871.000000	41.058140
2870.000000	41.102881
2869.000000	41.172114
2868.000000	41.264726
2867.000000	41.376846
2866.000000	41.503474
2865.000000	41.640682
2864.000000	41.785913
2863.000000	41.936691
2862.000000	42.090342
2861.000000	42.244840
2860.000000	42.398904
2859.000000	42.551118
2858.000000	42.700260
2857.000000	42.846428
2856.000000	42.990391
2855.000000	43.131840
2854.000000	43.269343
2853.000000	43.402022
2852.000000	43.530228
2851.000000	43.654640
2850.000000	43.775859
2849.000000	43.894754
2848.000000	44.011943
2847.000000	44.126854
2846.000000	44.238294
2845.000000	44.345744
2844.000000	44.449266
2843.000000	44.548656
2842.000000	44.644071
2841.000000	44.737211
2840.000000	44.830415
2839.000000	44.924650
2838.000000	45.019468
2837.000000	45.114435
2836.000000	45.208922
2835.000000	45.300787
2834.000000	45.387346
2833.000000	45.468283
2832.000000	45.546308
2831.000000	45.624721
2830.000000	45.705543
2829.000000	45.789799
2828.000000	45.877555
2827.000000	45.966888
2826.000000	46.054199
2825.000000	46.136531
2824.000000	46.213154
2823.000000	46.285115
2822.000000	46.354587
2821.000000	46.424816
2820.000000	46.498937
2819.000000	46.577801
2818.000000	46.659515
2817.000000	46.741234
2816.000000	46.820580
2815.000000	46.895664
2814.000000	46.965717
2813.000000	47.032502
2812.000000	47.099899
2811.000000	47.171286
2810.000000	47.247778
2809.000000	47.328666
2808.000000	47.411972
2807.000000	47.494372
2806.000000	47.572468
2805.000000	47.645296
2804.000000	47.714856
2803.000000	47.783871
2802.000000	47.854052
2801.000000	47.926513
2800.000000	48.002024
2799.000000	48.079861
2798.000000	48.157507
2797.000000	48.232420
2796.000000	48.303534
2795.000000	48.370939
2794.000000	48.435397
2793.000000	48.498698
2792.000000	48.563185
2791.000000	48.630072
2790.000000	48.698957
2789.000000	48.769127
2788.000000	48.840047
2787.000000	48.910169
2786.000000	48.976864
2785.000000	49.038580
2784.000000	49.096234
2783.000000	49.152053
2782.000000	49.208001
2781.000000	49.265651
2780.000000	49.325964
2779.000000	49.388182
2778.000000	49.449924
2777.000000	49.509144
2776.000000	49.565355
2775.000000	49.618759
2774.000000	49.669600
2773.000000	49.719155
2772.000000	49.770059
2771.000000	49.824620
2770.000000	49.883327
2769.000000	49.945179
2768.000000	50.008229
2767.000000	50.069482
2766.000000	50.125931
2765.000000	50.176857
2764.000000	50.224433
2763.000000	50.271637
2762.000000	50.320577
2761.000000	50.372882
2760.000000	50.429640
2759.000000	50.489654
2758.000000	50.549047
2757.000000	50.603861
2756.000000	50.652671
2755.000000	50.696536
2754.000000	50.737894
2753.000000	50.780228
2752.000000	50.827079
2751.000000	50.879788
2750.000000	50.936509
2749.000000	50.993862
2748.000000	51.048786
2747.000000	51.098822
2746.000000	51.142693
2745.000000	51.181927
2744.000000	51.220666
2743.000000	51.262610
2742.000000	51.308668
2741.000000	51.357729
2740.000000	51.407997
2739.000000	51.456705
2738.000000	51.500486
2737.000000	51.537830
2736.000000	51.570552
2735.000000	51.602030
2734.000000	51.634826
2733.000000	51.670410
2732.000000	51.709375
2731.000000	51.750460
2730.000000	51.790562
2729.000000	51.827035
2728.000000	51.859406
2727.000000	51.888414
2726.000000	51.914826
2725.000000	51.940176
2724.000000	51.966997
2723.000000	51.996883
2722.000000	52.029196
2721.000000	52.062547
2720.000000	52.096353
2719.000000	52.130009
2718.000000	52.162118
2717.000000	52.191975
2716.000000	52.220731
2715.000000	52.249866
2714.000000	52.279620
2713.000000	52.309942
2712.000000	52.341582
2711.000000	52.374792
2710.000000	52.408061
2709.000000	52.439327
2708.000000	52.467487
2707.000000	52.491760
2706.000000	52.510893
2705.000000	52.524616
2704.000000	52.534802
2703.000000	52.543922
2702.000000	52.553236
2701.000000	52.563079
2700.000000	52.573422
2699.000000	52.582626
2698.000000	52.587038
2697.000000	52.583792
2696.000000	52.573285
2695.000000	52.558155
2694.000000	52.541110
2693.000000	52.524778
2692.000000	52.511871
2691.000000	52.503061
2690.000000	52.495372
2689.000000	52.484148
2688.000000	52.466210
2687.000000	52.440713
2686.000000	52.408610
2685.000000	52.373074
2684.000000	52.339248
2683.000000	52.311305
2682.000000	52.289624
2681.000000	52.271277
2680.000000	52.252265
2679.000000	52.228650
2678.000000	52.197462
2677.000000	52.158943
2676.000000	52.117638
2675.000000	52.079866
2674.000000	52.050190
2673.000000	52.030444
2672.000000	52.020237
2671.000000	52.016952
2670.000000	52.016483
2669.000000	52.016074
2668.000000	52.017061
2667.000000	52.023992
2666.000000	52.042018
2665.000000	52.075356
2664.000000	52.126030
2663.000000	52.192614
2662.000000	52.270023
2661.000000	52.352019
2660.000000	52.434187
2659.000000	52.514413
2658.000000	52.592728
2657.000000	52.671530
2656.000000	52.754657
2655.000000	52.844493
2654.000000	52.939733
2653.000000	53.036600
2652.000000	53.131237
2651.000000	53.220367
2650.000000	53.301503
2649.000000	53.374473
2648.000000	53.442081
2647.000000	53.507868
2646.000000	53.573492
2645.000000	53.638641
2644.000000	53.702323
2643.000000	53.762731
2642.000000	53.817251
2641.000000	53.864378
2640.000000	53.904901
2639.000000	53.940602
2638.000000	53.972543
2637.000000	54.001713
2636.000000	54.029978
2635.000000	54.058567
2634.000000	54.086782
2633.000000	54.113359
2632.000000	54.138094
2631.000000	54.160938
2630.000000	54.180522
2629.000000	54.195406
2628.000000	54.205827
2627.000000	54.212935
2626.000000	54.217488
2625.000000	54.220511
2624.000000	54.224096
2623.000000	54.229617
2622.000000	54.235824
2621.000000	54.240161
2620.000000	54.241010
2619.000000	54.237699
2618.000000	54.229799
2617.000000	54.218315
2616.000000	54.206753
2615.000000	54.198966
2614.000000	54.196100
2613.000000	54.196375
2612.000000	54.196531
2611.000000	54.192431
2610.000000	54.179667
2609.000000	54.156057
2608.000000	54.123482
2607.000000	54.085913
2606.000000	54.046402
2605.000000	54.006123
2604.000000	53.964647
2603.000000	53.919358
2602.000000	53.865321
2601.000000	53.798354
2600.000000	53.718068
2599.000000	53.627674
2598.000000	53.532346
2597.000000	53.438440
2596.000000	53.352535
2595.000000	53.278824
2594.000000	53.217644
2593.000000	53.167377
2592.000000	53.127496
2591.000000	53.098860
2590.000000	53.083374
2589.000000	53.084962
2588.000000	53.108754
2587.000000	53.158469
2586.000000	53.233501
2585.000000	53.329455
2584.000000	53.440643
2583.000000	53.560429
2582.000000	53.682447
2581.000000	53.803143
2580.000000	53.923286
2579.000000	54.046206
2578.000000	54.174324
2577.000000	54.308456
2576.000000	54.448192
2575.000000	54.591008
2574.000000	54.732087
2573.000000	54.866894
2572.000000	54.993982
2571.000000	55.114539
2570.000000	55.230508
2569.000000	55.344371
2568.000000	55.459323
2567.000000	55.577132
2566.000000	55.696205
2565.000000	55.813174
2564.000000	55.925473
2563.000000	56.031588
2562.000000	56.130283
2561.000000	56.221812
2560.000000	56.309119
2559.000000	56.395542
2558.000000	56.482168
2557.000000	56.568516
2556.000000	56.654459
2555.000000	56.739642
2554.000000	56.821867
2553.000000	56.898625
2552.000000	56.969448
2551.000000	57.035057
2550.000000	57.095589
2549.000000	57.151459
2548.000000	57.205109
2547.000000	57.259265
2546.000000	57.313791
2545.000000	57.366235
2544.000000	57.414011
2543.000000	57.454599
2542.000000	57.484933
2541.000000	57.503168
2540.000000	57.511104
2539.000000	57.512169
2538.000000	57.508092
2537.000000	57.498866
2536.000000	57.483937
2535.000000	57.461515
2534.000000	57.426892
2533.000000	57.374927
2532.000000	57.304403
2531.000000	57.218307
2530.000000	57.121980
2529.000000	57.022454
2528.000000	56.928145
2527.000000	56.845791
2526.000000	56.777311
2525.000000	56.721096
2524.000000	56.675783
2523.000000	56.641426
2522.000000	56.618532
2521.000000	56.609411
2520.000000	56.618642
2519.000000	56.650486
2518.000000	56.705487
2517.000000	56.779879
2516.000000	56.868270
2515.000000	56.964064
2514.000000	57.059899
2513.000000	57.150982
2512.000000	57.237683
2511.000000	57.324022
2510.000000	57.413474
2509.000000	57.507614
2508.000000	57.606838
2507.000000	57.709256
2506.000000	57.809561
2505.000000	57.901745
2504.000000	57.983252
2503.000000	58.055232
2502.000000	58.120253
2501.000000	58.181629
2500.000000	58.243658
2499.000000	58.309240
2498.000000	58.377015
2497.000000	58.443099
2496.000000	58.504660
2495.000000	58.560314
2494.000000	58.608666
2493.000000	58.649327
2492.000000	58.685072
2491.000000	58.720018
2490.000000	58.756086
2489.000000	58.793152
2488.000000	58.831238
2487.000000	58.870094
2486.000000	58.907288
2485.000000	58.939739
2484.000000	58.966976
2483.000000	58.990502
2482.000000	59.011008
2481.000000	59.028775
2480.000000	59.046051
2479.000000	59.066132
2478.000000	59.090018
2477.000000	59.116219
2476.000000	59.143032
2475.000000	59.168743
2474.000000	59.190536
2473.000000	59.206109
2472.000000	59.216474
2471.000000	59.225110
2470.000000	59.234897
2469.000000	59.247727
2468.000000	59.265599
2467.000000	59.288959
2466.000000	59.314284
2465.000000	59.335975
2464.000000	59.350782
2463.000000	59.358887
2462.000000	59.362131
2461.000000	59.363889
2460.000000	59.369543
2459.000000	59.383587
2458.000000	59.405787
2457.000000	59.431731
2456.000000	59.456495
2455.000000	59.476110
2454.000000	59.487399
2453.000000	59.490094
2452.000000	59.488972
2451.000000	59.491162
2450.000000	59.501051
2449.000000	59.518927
2448.000000	59.542810
2447.000000	59.568764
2446.000000	59.590709
2445.000000	59.603626
2444.000000	59.607613
2443.000000	59.607299
2442.000000	59.608015
2441.000000	59.614067
2440.000000	59.628658
2439.000000	59.651836
2438.000000	59.678720
2437.000000	59.702593
2436.000000	59.719820
2435.000000	59.730430
2434.000000	59.735784
2433.000000	59.738620
2432.000000	59.744062
2431.000000	59.756837
2430.000000	59.777162
2429.000000	59.801269
2428.000000	59.825209
2427.000000	59.846177
2426.000000	59.861772
2425.000000	59.871494
2424.000000	59.878562
2423.000000	59.887494
2422.000000	59.900131
2421.000000	59.915948
2420.000000	59.934779
2419.000000	59.956343
2418.000000	59.978135
2417.000000	59.997001
2416.000000	60.012503
2415.000000	60.026257
2414.000000	60.038782
2413.000000	60.049769
2412.000000	60.060569
2411.000000	60.073427
2410.000000	60.088706
2409.000000	60.105380
2408.000000	60.123435
2407.000000	60.143085
2406.000000	60.162375
2405.000000	60.178427
2404.000000	60.190668
2403.000000	60.200622
2402.000000	60.209623
2401.000000	60.219364
2400.000000	60.233400
2399.000000	60.254741
2398.000000	60.282130
2397.000000	60.311114
2396.000000	60.337995
2395.000000	60.360711
2394.000000	60.377707
2393.000000	60.389526
2392.000000	60.401025
2391.000000	60.418707
2390.000000	60.445829
2389.000000	60.481861
2388.000000	60.524939
2387.000000	60.571807
2386.000000	60.616932
2385.000000	60.655903
2384.000000	60.690021
2383.000000	60.725117
2382.000000	60.766450
2381.000000	60.816923
2380.000000	60.878086
2379.000000	60.948618
2378.000000	61.022196
2377.000000	61.090261
2376.000000	61.148138
2375.000000	61.196421
2374.000000	61.238168
2373.000000	61.278389
2372.000000	61.324511
2371.000000	61.382292
2370.000000	61.450943
2369.000000	61.524828
2368.000000	61.598541
2367.000000	61.668026
2366.000000	61.730507
2365.000000	61.785704
2364.000000	61.837297
2363.000000	61.892351
2362.000000	61.953633
2361.000000	62.019481
2360.000000	62.089604
2359.000000	62.160894
2358.000000	62.228179
2357.000000	62.285778
2356.000000	62.332946
2355.000000	62.373587
2354.000000	62.412809
2353.000000	62.461205
2352.000000	62.523672
2351.000000	62.593989
2350.000000	62.660640
2349.000000	62.718050
2348.000000	62.774759
2347.000000	62.835918
2346.000000	62.899452
2345.000000	62.957667
2344.000000	63.008135
2343.000000	63.057626
2342.000000	63.108610
2341.000000	63.162598
2340.000000	63.220065
2339.000000	63.283079
2338.000000	63.349024
2337.000000	63.414341
2336.000000	63.476931
2335.000000	63.537878
2334.000000	63.594030
2333.000000	63.645511
2332.000000	63.695181
2331.000000	63.750107
2330.000000	63.813981
2329.000000	63.882797
2328.000000	63.955186
2327.000000	64.026057
2326.000000	64.091209
2325.000000	64.145198
2324.000000	64.188947
2323.000000	64.229435
2322.000000	64.270818
2321.000000	64.317763
2320.000000	64.372971
2319.000000	64.438618
2318.000000	64.507600
2317.000000	64.570312
2316.000000	64.620925
2315.000000	64.660994
2314.000000	64.694244
2313.000000	64.725677
2312.000000	64.763157
2311.000000	64.812781
2310.000000	64.873652
2309.000000	64.938105
2308.000000	64.999550
2307.000000	65.053816
2306.000000	65.097826
2305.000000	65.131288
2304.000000	65.160502
2303.000000	65.195374
2302.000000	65.241471
2301.000000	65.298257
2300.000000	65.362917
2299.000000	65.430806
2298.000000	65.494277
2297.000000	65.545702
2296.000000	65.584985
2295.000000	65.617929
2294.000000	65.650874
2293.000000	65.687622
2292.000000	65.732435
2291.000000	65.787450
2290.000000	65.848896
2289.000000	65.908952
2288.000000	65.962797
2287.000000	66.009679
2286.000000	66.049176
2285.000000	66.081643
2284.000000	66.111990
2283.000000	66.147782
2282.000000	66.192551
2281.000000	66.244933
2280.000000	66.302617
2279.000000	66.363019
2278.000000	66.420140
2277.000000	66.467155
2276.000000	66.502524
2275.000000	66.530216
2274.000000	66.554759
2273.000000	66.580201
2272.000000	66.612564
2271.000000	66.656846
2270.000000	66.710974
2269.000000	66.766716
2268.000000	66.816425
2267.000000	66.855568
2266.000000	66.881044
2265.000000	66.893178
2264.000000	66.899867
2263.000000	66.912826
2262.000000	66.939021
2261.000000	66.978137
2260.000000	67.026100
2259.000000	67.075977
2258.000000	67.116719
2257.000000	67.138624
2256.000000	67.141329
2255.000000	67.133548
2254.000000	67.125500
2253.000000	67.125396
2252.000000	67.140065
2251.000000	67.171212
2250.000000	67.210597
2249.000000	67.243404
2248.000000	67.258568
2247.000000	67.253073
2246.000000	67.229237
2245.000000	67.194464
2244.000000	67.161941
2243.000000	67.144315
2242.000000	67.144317
2241.000000	67.154434
2240.000000	67.164164
2239.000000	67.163674
2238.000000	67.143610
2237.000000	67.099569
2236.000000	67.038209
2235.000000	66.973911
2234.000000	66.918692
2233.000000	66.877906
2232.000000	66.852107
2231.000000	66.836353
2230.000000	66.818441
2229.000000	66.785019
2228.000000	66.731356
2227.000000	66.662235
2226.000000	66.585352
2225.000000	66.508758
2224.000000	66.442188
2223.000000	66.392885
2222.000000	66.358707
2221.000000	66.329811
2220.000000	66.297174
2219.000000	66.255835
2218.000000	66.202376
2217.000000	66.136380
2216.000000	66.064796
2215.000000	65.999072
2214.000000	65.946904
2213.000000	65.909873
2212.000000	65.887005
2211.000000	65.874719
2210.000000	65.864148
2209.000000	65.845030
2208.000000	65.813589
2207.000000	65.773357
2206.000000	65.729667
2205.000000	65.688371
2204.000000	65.658102
2203.000000	65.646556
2202.000000	65.653169
2201.000000	65.669397
2200.000000	65.685908
2199.000000	65.695765
2198.000000	65.693030
2197.000000	65.675596
2196.000000	65.650305
2195.000000	65.630027
2194.000000	65.624644
2193.000000	65.637446
2192.000000	65.667435
2191.000000	65.708626
2190.000000	65.748013
2189.000000	65.771350
2188.000000	65.773291
2187.000000	65.759016
2186.000000	65.737681
2185.000000	65.719282
2184.000000	65.715055
2183.000000	65.732345
2182.000000	65.766734
2181.000000	65.803615
2180.000000	65.828395
2179.000000	65.832644
2178.000000	65.813727
2177.000000	65.776113
2176.000000	65.733515
2175.000000	65.702894
2174.000000	65.693560
2173.000000	65.703934
2172.000000	65.726415
2171.000000	65.750163
2170.000000	65.761451
2169.000000	65.749800
2168.000000	65.716596
2167.000000	65.674075
2166.000000	65.636063
2165.000000	65.612783
2164.000000	65.610913
2163.000000	65.630496
2162.000000	65.660916
2161.000000	65.685823
2160.000000	65.693902
2159.000000	65.682728
2158.000000	65.655269
2157.000000	65.619197
2156.000000	65.588092
2155.000000	65.575300
2154.000000	65.584181
2153.000000	65.607476
2152.000000	65.634849
2151.000000	65.656465
2150.000000	65.662155
2149.000000	65.645662
2148.000000	65.611502
2147.000000	65.572650
2146.000000	65.540836
2145.000000	65.522370
2144.000000	65.520344
2143.000000	65.533119
2142.000000	65.550550
2141.000000	65.558439
2140.000000	65.548531
2139.000000	65.520948
2138.000000	65.479438
2137.000000	65.430820
2136.000000	65.387580
2135.000000	65.362778
2134.000000	65.360017
2133.000000	65.372151
2132.000000	65.388502
2131.000000	65.398760
2130.000000	65.392468
2129.000000	65.363447
2128.000000	65.316919
2127.000000	65.267282
2126.000000	65.228019
2125.000000	65.206800
2124.000000	65.206853
2123.000000	65.224777
2122.000000	65.246876
2121.000000	65.255184
2120.000000	65.239798
2119.000000	65.202746
2118.000000	65.152457
2117.000000	65.101007
2116.000000	65.064441
2115.000000	65.056228
2114.000000	65.076934
2113.000000	65.113850
2112.000000	65.150966
2111.000000	65.175918
2110.000000	65.181094
2109.000000	65.167415
2108.000000	65.148638
2107.000000	65.145326
2106.000000	65.171718
2105.000000	65.230519
2104.000000	65.316885
2103.000000	65.420073
2102.000000	65.522712
2101.000000	65.607985
2100.000000	65.671593
2099.000000	65.723516
2098.000000	65.778503
2097.000000	65.849396
2096.000000	65.946508
2095.000000	66.073195
2094.000000	66.219150
2093.000000	66.364077
2092.000000	66.490834
2091.000000	66.592418
2090.000000	66.669385
2089.000000	66.728730
2088.000000	66.785067
2087.000000	66.853992
2086.000000	66.940807
2085.000000	67.038825
2084.000000	67.137123
2083.000000	67.224789
2082.000000	67.289833
2081.000000	67.323863
2080.000000	67.330492
2079.000000	67.323310
2078.000000	67.314747
2077.000000	67.311299
2076.000000	67.316939
2075.000000	67.332267
2074.000000	67.349314
2073.000000	67.354842
2072.000000	67.340921
2071.000000	67.308142
2070.000000	67.260743
2069.000000	67.205009
2068.000000	67.151191
2067.000000	67.109504
2066.000000	67.083257
2065.000000	67.070172
2064.000000	67.067709
2063.000000	67.071206
2062.000000	67.070065
2061.000000	67.054308
2060.000000	67.025584
2059.000000	66.995953
2058.000000	66.976694
2057.000000	66.974317
2056.000000	66.994301
2055.000000	67.038526
2054.000000	67.098538
2053.000000	67.159103
2052.000000	67.209683
2051.000000	67.248230
2050.000000	67.276618
2049.000000	67.300989
2048.000000	67.335299
2047.000000	67.395201
2046.000000	67.486125
2045.000000	67.600799
2044.000000	67.726941
2043.000000	67.851685
2042.000000	67.962059
2041.000000	68.051900
2040.000000	68.129707
2039.000000	68.213371
2038.000000	68.316850
2037.000000	68.445754
2036.000000	68.601359
2035.000000	68.778863
2034.000000	68.962424
2033.000000	69.132137
2032.000000	69.278815
2031.000000	69.407341
2030.000000	69.527616
2029.000000	69.650410
2028.000000	69.789332
2027.000000	69.954550
2026.000000	70.141671
2025.000000	70.334029
2024.000000	70.516433
2023.000000	70.681294
2022.000000	70.825068
2021.000000	70.949090
2020.000000	71.064097
2019.000000	71.184817
2018.000000	71.319085
2017.000000	71.467109
2016.000000	71.626519
2015.000000	71.790094
2014.000000	71.942582
2013.000000	72.070148
2012.000000	72.173823
2011.000000	72.266477
2010.000000	72.358387
2009.000000	72.454132
2008.000000	72.559499
2007.000000	72.678755
2006.000000	72.804864
2005.000000	72.923481
2004.000000	73.027320
2003.000000	73.117964
2002.000000	73.196212
2001.000000	73.262114
2000.000000	73.323713
1999.000000	73.393419
1998.000000	73.475068
1997.000000	73.564492
1996.000000	73.659194
1995.000000	73.755902
1994.000000	73.842284
1993.000000	73.906732
1992.000000	73.956158
1991.000000	74.006220
1990.000000	74.058291
1989.000000	74.105212
1988.000000	74.152181
1987.000000	74.212781
1986.000000	74.287173
1985.000000	74.360889
1984.000000	74.424332
1983.000000	74.477996
1982.000000	74.520282
1981.000000	74.547831
1980.000000	74.568925
1979.000000	74.599988
1978.000000	74.646853
1977.000000	74.703136
1976.000000	74.764882
1975.000000	74.830712
1974.000000	74.889965
1973.000000	74.929139
1972.000000	74.951214
1971.000000	74.972684
1970.000000	75.001240
1969.000000	75.031323
1968.000000	75.062198
1967.000000	75.103453
1966.000000	75.155897
1965.000000	75.204882
1964.000000	75.239413
1963.000000	75.260377
1962.000000	75.269883
1961.000000	75.270925
1960.000000	75.277016
1959.000000	75.304282
1958.000000	75.351248
1957.000000	75.400433
1956.000000	75.440477
1955.000000	75.471935
1954.000000	75.493317
1953.000000	75.500131
1952.000000	75.499368
1951.000000	75.508024
1950.000000	75.533032
1949.000000	75.566033
1948.000000	75.599758
1947.000000	75.634058
1946.000000	75.663800
1945.000000	75.677304
1944.000000	75.671277
1943.000000	75.659900
1942.000000	75.660870
1941.000000	75.674857
1940.000000	75.693203
1939.000000	75.712972
1938.000000	75.730863
1937.000000	75.741048
1936.000000	75.745521
1935.000000	75.752268
1934.000000	75.761728
1933.000000	75.767177
1932.000000	75.768285
1931.000000	75.771368
1930.000000	75.774478
1929.000000	75.768662
1928.000000	75.757677
1927.000000	75.757777
1926.000000	75.774255
1925.000000	75.790738
1924.000000	75.788676
1923.000000	75.771664
1922.000000	75.751564
1921.000000	75.725450
1920.000000	75.689309
1919.000000	75.651964
1918.000000	75.628074
1917.000000	75.622850
1916.000000	75.627990
1915.000000	75.635585
1914.000000	75.640329
1913.000000	75.634075
1912.000000	75.610789
1911.000000	75.570692
1910.000000	75.517669
1909.000000	75.461075
1908.000000	75.417529
1907.000000	75.399313
1906.000000	75.400994
1905.000000	75.403522
1904.000000	75.393683
1903.000000	75.372793
1902.000000	75.345270
1901.000000	75.314038
1900.000000	75.290375
1899.000000	75.290688
1898.000000	75.316757
1897.000000	75.350117
1896.000000	75.373049
1895.000000	75.385705
1894.000000	75.392801
1893.000000	75.390182
1892.000000	75.376923
1891.000000	75.361118
1890.000000	75.354764
1889.000000	75.369371
1888.000000	75.403615
1887.000000	75.442830
1886.000000	75.469855
1885.000000	75.474101
1884.000000	75.461430
1883.000000	75.448446
1882.000000	75.442419
1881.000000	75.438311
1880.000000	75.435390
1879.000000	75.439663
1878.000000	75.448937
1877.000000	75.452198
1876.000000	75.445926
1875.000000	75.437203
1874.000000	75.428821
1873.000000	75.417014
1872.000000	75.406940
1871.000000	75.409941
1870.000000	75.413682
1869.000000	75.394872
1868.000000	75.361867
1867.000000	75.335716
1866.000000	75.317590
1865.000000	75.299105
1864.000000	75.279758
1863.000000	75.263915
1862.000000	75.247379
1861.000000	75.219732
1860.000000	75.180499
1859.000000	75.141145
1858.000000	75.109401
1857.000000	75.084415
1856.000000	75.066398
1855.000000	75.056846
1854.000000	75.047232
1853.000000	75.023257
1852.000000	74.984601
1851.000000	74.942412
1850.000000	74.899354
1849.000000	74.853582
1848.000000	74.815686
1847.000000	74.797423
1846.000000	74.788582
1845.000000	74.763178
1844.000000	74.717113
1843.000000	74.665395
1842.000000	74.606686
1841.000000	74.535893
1840.000000	74.464651
1839.000000	74.409212
1838.000000	74.369314
1837.000000	74.330173
1836.000000	74.283728
1835.000000	74.231659
1834.000000	74.169238
1833.000000	74.090935
1832.000000	74.007349
1831.000000	73.923238
1830.000000	73.840443
1829.000000	73.771235
1828.000000	73.713598
1827.000000	73.658433
1826.000000	73.596962
1825.000000	73.525421
1824.000000	73.453852
1823.000000	73.385593
1822.000000	73.310938
1821.000000	73.227408
1820.000000	73.148170
1819.000000	73.083812
1818.000000	73.026179
1817.000000	72.962246
1816.000000	72.893600
1815.000000	72.827164
1814.000000	72.756971
1813.000000	72.671587
1812.000000	72.573516
1811.000000	72.480133
1810.000000	72.401230
1809.000000	72.328098
1808.000000	72.252862
1807.000000	72.177640
1806.000000	72.101002
1805.000000	72.016169
1804.000000	71.925386
1803.000000	71.837029
1802.000000	71.749914
1801.000000	71.664473
1800.000000	71.595403
1799.000000	71.549184
1798.000000	71.508000
1797.000000	71.453032
1796.000000	71.387077
1795.000000	71.320099
1794.000000	71.242583
1793.000000	71.129849
1792.000000	70.997019
1791.000000	70.893300
1790.000000	70.824250
1789.000000	70.759934
1788.000000	70.688684
1787.000000	70.620810
1786.000000	70.561751
1785.000000	70.504355
1784.000000	70.445925
1783.000000	70.386798
1782.000000	70.313054
1781.000000	70.217975
1780.000000	70.129454
1779.000000	70.075281
1778.000000	70.048211
1777.000000	70.035763
1776.000000	70.041749
1775.000000	70.053247
1774.000000	70.009012
1773.000000	69.846614
1772.000000	69.621604
1771.000000	69.451375
1770.000000	69.352956
1769.000000	69.274875
1768.000000	69.194882
1767.000000	69.121172
1766.000000	69.044657
1765.000000	68.942446
1764.000000	68.818846
1763.000000	68.700425
1762.000000	68.605937
1761.000000	68.534059
1760.000000	68.469634
1759.000000	68.400514
1758.000000	68.309803
1757.000000	68.192771
1756.000000	68.088364
1755.000000	68.030781
1754.000000	67.995101
1753.000000	67.932247
1752.000000	67.832607
1751.000000	67.724729
1750.000000	67.614215
1749.000000	67.477702
1748.000000	67.325642
1747.000000	67.188037
1746.000000	67.054756
1745.000000	66.896119
1744.000000	66.721405
1743.000000	66.570530
1742.000000	66.450751
1741.000000	66.324327
1740.000000	66.172779
1739.000000	66.038761
1738.000000	65.964911
1737.000000	65.928260
1736.000000	65.878526
1735.000000	65.753495
1734.000000	65.521483
1733.000000	65.215445
1732.000000	64.882761
1731.000000	64.580663
1730.000000	64.323303
1729.000000	64.082695
1728.000000	63.851849
1727.000000	63.638988
1726.000000	63.432092
1725.000000	63.202347
1724.000000	62.945239
1723.000000	62.693706
1722.000000	62.490159
1721.000000	62.357813
1720.000000	62.290544
1719.000000	62.196466
1718.000000	61.935880
1717.000000	61.503564
1716.000000	61.020288
1715.000000	60.596661
1714.000000	60.263559
1713.000000	59.976925
1712.000000	59.695204
1711.000000	59.414436
1710.000000	59.131798
1709.000000	58.833620
1708.000000	58.519998
1707.000000	58.187489
1706.000000	57.821760
1705.000000	57.458276
1704.000000	57.159730
1703.000000	56.910119
1702.000000	56.662803
1701.000000	56.397386
1700.000000	56.138793
1699.000000	55.946044
1698.000000	55.750945
1697.000000	55.383627
1696.000000	54.823525
1695.000000	54.239512
1694.000000	53.759012
1693.000000	53.386501
1692.000000	53.065527
1691.000000	52.737279
1690.000000	52.392239
1689.000000	52.082689
1688.000000	51.859394
1687.000000	51.673994
1686.000000	51.388243
1685.000000	50.830627
1684.000000	50.110623
1683.000000	49.548340
1682.000000	49.157531
1681.000000	48.782248
1680.000000	48.364074
1679.000000	47.939009
1678.000000	47.536855
1677.000000	47.123383
1676.000000	46.677434
1675.000000	46.246553
1674.000000	45.877690
1673.000000	45.545483
1672.000000	45.205317
1671.000000	44.821425
1670.000000	44.369136
1669.000000	43.879481
1668.000000	43.424930
1667.000000	43.049323
1666.000000	42.732387
1665.000000	42.418094
1664.000000	42.065707
1663.000000	41.681905
1662.000000	41.301747
1661.000000	40.932477
1660.000000	40.568413
1659.000000	40.224162
1658.000000	39.934608
1657.000000	39.736344
1656.000000	39.631010
1655.000000	39.551170
1654.000000	39.285515
1653.000000	38.779946
1652.000000	38.238258
1651.000000	37.784669
1650.000000	37.465081
1649.000000	37.229716
1648.000000	36.946097
1647.000000	36.584513
1646.000000	36.239906
1645.000000	35.939233
1644.000000	35.659247
1643.000000	35.410622
1642.000000	35.179491
1641.000000	34.936876
1640.000000	34.699626
1639.000000	34.507929
1638.000000	34.345026
1637.000000	34.113340
1636.000000	33.782542
1635.000000	33.474043
1634.000000	33.248669
1633.000000	33.057234
1632.000000	32.868760
1631.000000	32.682820
1630.000000	32.496620
1629.000000	32.294351
1628.000000	32.084848
1627.000000	31.909396
1626.000000	31.780726
1625.000000	31.665576
1624.000000	31.532112
1623.000000	31.393897
1622.000000	31.281069
1621.000000	31.201989
1620.000000	31.162058
1619.000000	31.153092
1618.000000	31.119433
1617.000000	31.003151
1616.000000	30.838194
1615.000000	30.710294
1614.000000	30.647456
1613.000000	30.616162
1612.000000	30.582608
1611.000000	30.547500
1610.000000	30.519979
1609.000000	30.492597
1608.000000	30.469600
1607.000000	30.478255
1606.000000	30.526311
1605.000000	30.587459
1604.000000	30.639640
1603.000000	30.684061
1602.000000	30.721616
1601.000000	30.743124
1600.000000	30.755035
1599.000000	30.783933
1598.000000	30.843379
1597.000000	30.920278
1596.000000	31.001438
1595.000000	31.088850
1594.000000	31.177706
1593.000000	31.247341
1592.000000	31.289193
1591.000000	31.319884
1590.000000	31.356148
1589.000000	31.399840
1588.000000	31.454673
1587.000000	31.533034
1586.000000	31.631810
1585.000000	31.725676
1584.000000	31.798738
1583.000000	31.856467
1582.000000	31.905942
1581.000000	31.958986
1580.000000	32.049182
1579.000000	32.201890
1578.000000	32.379558
1577.000000	32.492382
1576.000000	32.510191
1575.000000	32.489877
1574.000000	32.479711
1573.000000	32.490182
1572.000000	32.515607
1571.000000	32.550477
1570.000000	32.593966
1569.000000	32.652532
1568.000000	32.730325
1567.000000	32.828574
1566.000000	32.945549
1565.000000	33.074795
1564.000000	33.215099
1563.000000	33.381112
1562.000000	33.536258
1561.000000	33.684630
1560.000000	33.780109
1559.000000	33.800821
1558.000000	33.913799
1557.000000	34.065442
1556.000000	34.183557
1555.000000	34.309152
1554.000000	34.439777
1553.000000	34.558697
1552.000000	34.662150
1551.000000	34.779570
1550.000000	34.933513
1549.000000	35.124477
1548.000000	35.338842
1547.000000	35.582787
1546.000000	35.871027
1545.000000	36.187164
1544.000000	36.509429
1543.000000	36.851112
1542.000000	37.229773
1541.000000	37.580132
1540.000000	37.879433
1539.000000	38.179652
1538.000000	38.436861
1537.000000	38.648203
1536.000000	38.890837
1535.000000	39.211350
1534.000000	39.601979
1533.000000	40.014771
1532.000000	40.404384
1531.000000	40.762398
1530.000000	41.127431
1529.000000	41.541022
1528.000000	42.016256
1527.000000	42.546510
1526.000000	43.106481
1525.000000	43.653359
1524.000000	44.169334
1523.000000	44.663973
1522.000000	45.139751
1521.000000	45.593015
1520.000000	46.010902
1519.000000	46.426578
1518.000000	46.903029
1517.000000	47.439816
1516.000000	47.989533
1515.000000	48.500922
1514.000000	48.955052
1513.000000	49.375948
1512.000000	49.799791
1511.000000	50.274777
1510.000000	50.829557
1509.000000	51.470144
1508.000000	52.094560
1507.000000	52.683526
1506.000000	53.328099
1505.000000	53.826534
1504.000000	54.098141
1503.000000	54.327013
1502.000000	54.614337
1501.000000	54.980083
1500.000000	55.437821
1499.000000	56.002382
1498.000000	56.625901
1497.000000	57.214095
1496.000000	57.703028
1495.000000	58.083354
1494.000000	58.380247
1493.000000	58.639653
1492.000000	58.932190
1491.000000	59.311293
1490.000000	59.751220
1489.000000	60.186837
1488.000000	60.590242
1487.000000	60.975679
1486.000000	61.328856
1485.000000	61.596422
1484.000000	61.772812
1483.000000	61.904924
1482.000000	62.009884
1481.000000	62.064580
1480.000000	62.071338
1479.000000	62.061707
1478.000000	62.027366
1477.000000	61.916735
1476.000000	61.701781
1475.000000	61.361167
1474.000000	60.758033
1473.000000	59.729142
1472.000000	58.397370
1471.000000	57.026881
1470.000000	55.635077
1469.000000	54.079723
1468.000000	52.263264
1467.000000	50.080529
1466.000000	47.303770
1465.000000	43.819389
1464.000000	39.993098
1463.000000	36.348399
1462.000000	33.027932
1461.000000	29.928033
1460.000000	26.982870
1459.000000	24.092731
1458.000000	21.000189
1457.000000	17.782211
1456.000000	15.166099
1455.000000	13.543342
1454.000000	12.577737
1453.000000	11.934306
1452.000000	11.572215
1451.000000	11.542464
1450.000000	11.818235
1449.000000	12.371639
1448.000000	13.238122
1447.000000	14.372445
1446.000000	15.620027
1445.000000	16.902625
1444.000000	18.270613
1443.000000	19.754102
1442.000000	21.287573
1441.000000	22.796103
1440.000000	24.273171
1439.000000	25.777210
1438.000000	27.420373
1437.000000	29.290067
1436.000000	31.247149
1435.000000	33.000394
1434.000000	34.480341
1433.000000	35.857852
1432.000000	37.286486
1431.000000	38.780603
1430.000000	40.265526
1429.000000	41.675686
1428.000000	42.959908
1427.000000	44.084631
1426.000000	45.079399
1425.000000	46.012295
1424.000000	46.907623
1423.000000	47.731803
1422.000000	48.477186
1421.000000	49.216719
1420.000000	50.030869
1419.000000	50.889732
1418.000000	51.702545
1417.000000	52.450936
1416.000000	53.175979
1415.000000	53.905657
1414.000000	54.657439
1413.000000	55.455508
1412.000000	56.303835
1411.000000	57.173724
1410.000000	58.040708
1409.000000	58.898522
1408.000000	59.726427
1407.000000	60.493154
1406.000000	61.199782
1405.000000	61.876100
1404.000000	62.518542
1403.000000	63.086637
1402.000000	63.591652
1401.000000	64.112591
1400.000000	64.695370
1399.000000	65.296280
1398.000000	65.850614
1397.000000	66.337698
1396.000000	66.754449
1395.000000	67.102723
1394.000000	67.413809
1393.000000	67.719278
1392.000000	68.018759
1391.000000	68.309729
1390.000000	68.613769
1389.000000	68.942542
1388.000000	69.244461
1387.000000	69.441930
1386.000000	69.527378
1385.000000	69.554289
1384.000000	69.559156
1383.000000	69.554461
1382.000000	69.564935
1381.000000	69.608079
1380.000000	69.649978
1379.000000	69.635456
1378.000000	69.551310
1377.000000	69.417473
1376.000000	69.235320
1375.000000	69.004378
1374.000000	68.788828
1373.000000	68.674036
1372.000000	68.654661
1371.000000	68.663658
1370.000000	68.658490
1369.000000	68.612422
1368.000000	68.480386
1367.000000	68.222953
1366.000000	67.845809
1365.000000	67.370780
1364.000000	66.778818
1363.000000	66.044432
1362.000000	65.214780
1361.000000	64.358470
1360.000000	63.477572
1359.000000	62.557735
1358.000000	61.651374
1357.000000	60.863720
1356.000000	60.293338
1355.000000	60.013685
1354.000000	60.070792
1353.000000	60.447268
1352.000000	61.038205
1351.000000	61.698929
1350.000000	62.302955
1349.000000	62.744911
1348.000000	62.929563
1347.000000	62.798057
1346.000000	62.351571
1345.000000	61.627647
1344.000000	60.666100
1343.000000	59.497193
1342.000000	58.135849
1341.000000	56.555451
1340.000000	54.702362
1339.000000	52.571248
1338.000000	50.208088
1337.000000	47.635228
1336.000000	44.833245
1335.000000	41.801189
1334.000000	38.590535
1333.000000	35.271361
1332.000000	31.922625
1331.000000	28.667364
1330.000000	25.662694
1329.000000	23.030391
1328.000000	20.818123
1327.000000	19.006188
1326.000000	17.511697
1325.000000	16.209846
1324.000000	14.993539
1323.000000	13.826319
1322.000000	12.719008
1321.000000	11.680112
1320.000000	10.727894
1319.000000	9.920264
1318.000000	9.338918
1317.000000	9.043668
1316.000000	9.064346
1315.000000	9.424379
1314.000000	10.124843
1313.000000	11.126165
1312.000000	12.368385
1311.000000	13.796408
1310.000000	15.363137
1309.000000	17.012883
1308.000000	18.686448
1307.000000	20.339139
1306.000000	21.940734
1305.000000	23.468067
1304.000000	24.906514
1303.000000	26.254994
1302.000000	27.518754
1301.000000	28.695456
1300.000000	29.767103
1299.000000	30.707150
1298.000000	31.487807
1297.000000	32.086281
1296.000000	32.510177
1295.000000	32.825949
1294.000000	33.155525
1293.000000	33.633828
1292.000000	34.361040
1291.000000	35.375789
1290.000000	36.653538
1289.000000	38.120294
1288.000000	39.680202
1287.000000	41.253759
1286.000000	42.799284
1285.000000	44.305408
1284.000000	45.768173
1283.000000	47.180622
1282.000000	48.534363
1281.000000	49.813722
1280.000000	50.987211
1279.000000	52.022844
1278.000000	52.916051
1277.000000	53.689152
1276.000000	54.374843
1275.000000	55.012939
1274.000000	55.653363
1273.000000	56.338357
1272.000000	57.074334
1271.000000	57.836861
1270.000000	58.597399
1269.000000	59.331254
1268.000000	60.012853
1267.000000	60.630141
1266.000000	61.206545
1265.000000	61.786950
1264.000000	62.400273
1263.000000	63.049187
1262.000000	63.722719
1261.000000	64.393314
1260.000000	65.007046
1259.000000	65.508931
1258.000000	65.887396
1257.000000	66.174102
1256.000000	66.410299
1255.000000	66.635571
1254.000000	66.890916
1253.000000	67.197660
1252.000000	67.527360
1251.000000	67.816446
1250.000000	68.011297
1249.000000	68.085465
1248.000000	68.033226
1247.000000	67.875071
1246.000000	67.666471
1245.000000	67.470424
1244.000000	67.311810
1243.000000	67.172932
1242.000000	67.019210
1241.000000	66.810050
1240.000000	66.501132
1239.000000	66.069500
1238.000000	65.543817
1237.000000	64.989422
1236.000000	64.467092
1235.000000	64.018491
1234.000000	63.671764
1233.000000	63.431119
1232.000000	63.264774
1231.000000	63.126158
1230.000000	62.989379
1229.000000	62.858868
1228.000000	62.752086
1227.000000	62.695781
1226.000000	62.731478
1225.000000	62.893936
1224.000000	63.184041
1223.000000	63.570187
1222.000000	64.012075
1221.000000	64.471498
1220.000000	64.908868
1219.000000	65.300351
1218.000000	65.659585
1217.000000	66.025943
1216.000000	66.432451
1215.000000	66.894481
1214.000000	67.418371
1213.000000	67.994448
1212.000000	68.582664
1211.000000	69.128870
1210.000000	69.601771
1209.000000	70.001333
1208.000000	70.340519
1207.000000	70.643939
1206.000000	70.956973
1205.000000	71.325921
1204.000000	71.761498
1203.000000	72.235898
1202.000000	72.709983
1201.000000	73.144331
1200.000000	73.497643
1199.000000	73.747772
1198.000000	73.920587
1197.000000	74.077630
1196.000000	74.272775
1195.000000	74.534597
1194.000000	74.873555
1193.000000	75.272816
1192.000000	75.674404
1191.000000	76.004271
1190.000000	76.222986
1189.000000	76.340381
1188.000000	76.392619
1187.000000	76.431573
1186.000000	76.522694
1185.000000	76.714105
1184.000000	76.996952
1183.000000	77.311034
1182.000000	77.588510
1181.000000	77.777982
1180.000000	77.846681
1179.000000	77.799876
1178.000000	77.698979
1177.000000	77.629136
1176.000000	77.641266
1175.000000	77.736396
1174.000000	77.887194
1173.000000	78.044614
1172.000000	78.137993
1171.000000	78.107305
1170.000000	77.948558
1169.000000	77.711542
1168.000000	77.456641
1167.000000	77.233253
1166.000000	77.081263
1165.000000	77.013911
1164.000000	76.994571
1163.000000	76.954383
1162.000000	76.840971
1161.000000	76.637300
1160.000000	76.347705
1159.000000	75.997836
1158.000000	75.642827
1157.000000	75.342621
1156.000000	75.121422
1155.000000	74.964009
1154.000000	74.842063
1153.000000	74.721979
1152.000000	74.558771
1151.000000	74.316779
1150.000000	74.003461
1149.000000	73.663395
1148.000000	73.342835
1147.000000	73.076621
1146.000000	72.895037
1145.000000	72.810030
1144.000000	72.791287
1143.000000	72.779013
1142.000000	72.723665
1141.000000	72.602518
1140.000000	72.411740
1139.000000	72.170464
1138.000000	71.929919
1137.000000	71.749343
1136.000000	71.655091
1135.000000	71.631677
1134.000000	71.642044
1133.000000	71.636806
1132.000000	71.556397
1131.000000	71.359131
1130.000000	71.055515
1129.000000	70.700227
1128.000000	70.351698
1127.000000	70.050953
1126.000000	69.821746
1125.000000	69.655639
1124.000000	69.498291
1123.000000	69.273500
1122.000000	68.930069
1121.000000	68.461093
1120.000000	67.889685
1119.000000	67.261704
1118.000000	66.640826
1117.000000	66.077075
1116.000000	65.572518
1115.000000	65.082587
1114.000000	64.548890
1113.000000	63.920085
1112.000000	63.156497
1111.000000	62.248919
1110.000000	61.230849
1109.000000	60.157595
1108.000000	59.069775
1107.000000	57.977847
1106.000000	56.871268
1105.000000	55.716243
1104.000000	54.457654
1103.000000	53.045982
1102.000000	51.461472
1101.000000	49.716746
1100.000000	47.838310
1099.000000	45.856815
1098.000000	43.804268
1097.000000	41.694737
1096.000000	39.521062
1095.000000	37.267786
1094.000000	34.925819
1093.000000	32.498964
1092.000000	30.009021
1091.000000	27.502147
1090.000000	25.038747
1089.000000	22.675749
1088.000000	20.458453
1087.000000	18.424199
1086.000000	16.590609
1085.000000	14.952583
1084.000000	13.501953
1083.000000	12.231786
1082.000000	11.132756
1081.000000	10.186467
1080.000000	9.377848
1079.000000	8.702949
1078.000000	8.146943
1077.000000	7.684778
1076.000000	7.296955
1075.000000	6.973426
1074.000000	6.701951
1073.000000	6.463155
1072.000000	6.250128
1071.000000	6.071277
1070.000000	5.931140
1069.000000	5.826835
1068.000000	5.760684
1067.000000	5.742466
1066.000000	5.772906
1065.000000	5.841019
1064.000000	5.943697
1063.000000	6.087351
1062.000000	6.272407
1061.000000	6.491733
1060.000000	6.745973
1059.000000	7.045893
1058.000000	7.393186
1057.000000	7.777612
1056.000000	8.193515
1055.000000	8.642118
1054.000000	9.118298
1053.000000	9.608669
1052.000000	10.108512
1051.000000	10.626983
1050.000000	11.171836
1049.000000	11.745740
1048.000000	12.354888
1047.000000	13.006868
1046.000000	13.697891
1045.000000	14.413075
1044.000000	15.142981
1043.000000	15.887588
1042.000000	16.647806
1041.000000	17.426344
1040.000000	18.234329
1039.000000	19.088165
1038.000000	19.994601
1037.000000	20.945584
1036.000000	21.926562
1035.000000	22.919457
1034.000000	23.902189
1033.000000	24.856064
1032.000000	25.778491
1031.000000	26.685293
1030.000000	27.599346
1029.000000	28.538685
1028.000000	29.509999
1027.000000	30.505291
1026.000000	31.501495
1025.000000	32.468580
1024.000000	33.381992
1023.000000	34.233454
1022.000000	35.035363
1021.000000	35.814766
1020.000000	36.601863
1019.000000	37.418047
1018.000000	38.268116
1017.000000	39.138151
1016.000000	39.997834
1015.000000	40.812510
1014.000000	41.559729
1013.000000	42.238689
1012.000000	42.868692
1011.000000	43.482209
1010.000000	44.115818
1009.000000	44.794607
1008.000000	45.517436
1007.000000	46.258769
1006.000000	46.982759
1005.000000	47.656403
1004.000000	48.257570
1003.000000	48.785267
1002.000000	49.266734
1001.000000	49.745418
1000.000000	50.257799
999.000000	50.820817
998.000000	51.431841
997.000000	52.068599
996.000000	52.688955
995.000000	53.247656
994.000000	53.723394
993.000000	54.127432
992.000000	54.491318
991.000000	54.855406
990.000000	55.261574
989.000000	55.735744
988.000000	56.266871
987.000000	56.810790
986.000000	57.315173
985.000000	57.740288
984.000000	58.067599
983.000000	58.309466
982.000000	58.515313
981.000000	58.751660
980.000000	59.065784
979.000000	59.468365
978.000000	59.939023
977.000000	60.432766
976.000000	60.886023
975.000000	61.243288
974.000000	61.493489
973.000000	61.675771
972.000000	61.852198
971.000000	62.081832
970.000000	62.406626
969.000000	62.833820
968.000000	63.321113
967.000000	63.793023
966.000000	64.182940
965.000000	64.461208
964.000000	64.635793
963.000000	64.749043
962.000000	64.871605
961.000000	65.072057
960.000000	65.375812
959.000000	65.756792
958.000000	66.160258
957.000000	66.524762
956.000000	66.795551
955.000000	66.948390
954.000000	67.012448
953.000000	67.056067
952.000000	67.143856
951.000000	67.311371
950.000000	67.566123
949.000000	67.886849
948.000000	68.218948
947.000000	68.495958
946.000000	68.680232
945.000000	68.776784
944.000000	68.815332
943.000000	68.837597
942.000000	68.894694
941.000000	69.027875
940.000000	69.240200
939.000000	69.497377
938.000000	69.754358
937.000000	69.970750
936.000000	70.110721
935.000000	70.156695
934.000000	70.131226
933.000000	70.088095
932.000000	70.076770
931.000000	70.125851
930.000000	70.247923
929.000000	70.432817
928.000000	70.633068
927.000000	70.779757
926.000000	70.825763
925.000000	70.765629
924.000000	70.624384
923.000000	70.449264
922.000000	70.306455
921.000000	70.254502
920.000000	70.304984
919.000000	70.414816
918.000000	70.515273
917.000000	70.538163
916.000000	70.430938
915.000000	70.181936
914.000000	69.842624
913.000000	69.504516
912.000000	69.243120
911.000000	69.087630
910.000000	69.022997
909.000000	68.993444
908.000000	68.910204
907.000000	68.689049
906.000000	68.302965
905.000000	67.793635
904.000000	67.236508
903.000000	66.707268
902.000000	66.263217
901.000000	65.919742
900.000000	65.629480
899.000000	65.301296
898.000000	64.855300
897.000000	64.255977
896.000000	63.512368
895.000000	62.671319
894.000000	61.805989
893.000000	60.983125
892.000000	60.223308
891.000000	59.496370
890.000000	58.748151
889.000000	57.922291
888.000000	56.972759
887.000000	55.880695
886.000000	54.670093
885.000000	53.393931
884.000000	52.099264
883.000000	50.812551
882.000000	49.541765
881.000000	48.274920
880.000000	46.978372
879.000000	45.611307
878.000000	44.151346
877.000000	42.602325
876.000000	40.986285
875.000000	39.337047
874.000000	37.693810
873.000000	36.087417
872.000000	34.527522
871.000000	33.003852
870.000000	31.497014
869.000000	29.988501
868.000000	28.468058
867.000000	26.940118
866.000000	25.424706
865.000000	23.948743
864.000000	22.537813
863.000000	21.207949
862.000000	19.960758
861.000000	18.787906
860.000000	17.679932
859.000000	16.636661
858.000000	15.668538
857.000000	14.797996
856.000000	14.061884
855.000000	13.494879
854.000000	13.112175
853.000000	12.900239
852.000000	12.822370
851.000000	12.829581
850.000000	12.866398
849.000000	12.887712
848.000000	12.872587
847.000000	12.823731
846.000000	12.758435
845.000000	12.701188
844.000000	12.680517
843.000000	12.719390
842.000000	12.825555
841.000000	12.995818
840.000000	13.224322
839.000000	13.504640
838.000000	13.829152
837.000000	14.194575
836.000000	14.609689
835.000000	15.088179
834.000000	15.638338
833.000000	16.260330
832.000000	16.946816
831.000000	17.682474
830.000000	18.444595
829.000000	19.212677
828.000000	19.977710
827.000000	20.742378
826.000000	21.519441
825.000000	22.328512
824.000000	23.186494
823.000000	24.094426
822.000000	25.034592
821.000000	25.978810
820.000000	26.896507
819.000000	27.762277
818.000000	28.567907
817.000000	29.328840
816.000000	30.073906
815.000000	30.829184
814.000000	31.610126
813.000000	32.417870
812.000000	33.234855
811.000000	34.028102
810.000000	34.768058
809.000000	35.446013
808.000000	36.073760
807.000000	36.676836
806.000000	37.290992
805.000000	37.951043
804.000000	38.669472
803.000000	39.427113
802.000000	40.188920
801.000000	40.922393
800.000000	41.602508
799.000000	42.217124
798.000000	42.780299
797.000000	43.330861
796.000000	43.907480
795.000000	44.528230
794.000000	45.192437
793.000000	45.884957
792.000000	46.572711
791.000000	47.212963
790.000000	47.779980
789.000000	48.279399
788.000000	48.735846
787.000000	49.179795
786.000000	49.645905
785.000000	50.161593
784.000000	50.725126
783.000000	51.303109
782.000000	51.855593
781.000000	52.354962
780.000000	52.783838
779.000000	53.138319
778.000000	53.443292
777.000000	53.747870
776.000000	54.093754
775.000000	54.494463
774.000000	54.943127
773.000000	55.419929
772.000000	55.887124
771.000000	56.298761
770.000000	56.631564
769.000000	56.899683
768.000000	57.137781
767.000000	57.384434
766.000000	57.679554
765.000000	58.050454
764.000000	58.485754
763.000000	58.934673
762.000000	59.341161
761.000000	59.671117
760.000000	59.912389
759.000000	60.076514
758.000000	60.209466
757.000000	60.376314
756.000000	60.618652
755.000000	60.932178
754.000000	61.283282
753.000000	61.627528
752.000000	61.913017
751.000000	62.097329
750.000000	62.180953
749.000000	62.212006
748.000000	62.249816
747.000000	62.334230
746.000000	62.484641
745.000000	62.698083
744.000000	62.936266
743.000000	63.136368
742.000000	63.252164
741.000000	63.278170
740.000000	63.236537
739.000000	63.163539
738.000000	63.110539
737.000000	63.127679
736.000000	63.229054
735.000000	63.385249
734.000000	63.555477
733.000000	63.711050
732.000000	63.829617
731.000000	63.897266
730.000000	63.931893
729.000000	63.983446
728.000000	64.097527
727.000000	64.290926
726.000000	64.562244
725.000000	64.900096
724.000000	65.270722
723.000000	65.622580
722.000000	65.919939
721.000000	66.160862
720.000000	66.361218
719.000000	66.544583
718.000000	66.750554
717.000000	67.022309
716.000000	67.369702
715.000000	67.760033
714.000000	68.149701
713.000000	68.505639
712.000000	68.796802
711.000000	69.000322
710.000000	69.133137
709.000000	69.253772
708.000000	69.419785
707.000000	69.657027
706.000000	69.967371
705.000000	70.333072
704.000000	70.702392
703.000000	71.003680
702.000000	71.196844
701.000000	71.298094
700.000000	71.353198
699.000000	71.413727
698.000000	71.537463
697.000000	71.770204
696.000000	72.102600
695.000000	72.465734
694.000000	72.782002
693.000000	73.005137
692.000000	73.117034
691.000000	73.129250
690.000000	73.103478
689.000000	73.135638
688.000000	73.289934
687.000000	73.557786
686.000000	73.885602
685.000000	74.210150
684.000000	74.462995
683.000000	74.589564
682.000000	74.594920
681.000000	74.549693
680.000000	74.537360
679.000000	74.609986
678.000000	74.787323
677.000000	75.058362
676.000000	75.364239
675.000000	75.615910
674.000000	75.762382
673.000000	75.820099
672.000000	75.834283
671.000000	75.845472
670.000000	75.904588
669.000000	76.051331
668.000000	76.257285
667.000000	76.471610
666.000000	76.663264
665.000000	76.806106
664.000000	76.890658
663.000000	76.914327
662.000000	76.896417
661.000000	76.884246
660.000000	76.920064
659.000000	77.017721
658.000000	77.175425
657.000000	77.383328
656.000000	77.607023
655.000000	77.788323
654.000000	77.889379
653.000000	77.916441
652.000000	77.894154
651.000000	77.848467
650.000000	77.823149
649.000000	77.871870
648.000000	78.012276
647.000000	78.209382
646.000000	78.411092
645.000000	78.575286
644.000000	78.658144
643.000000	78.623438
642.000000	78.489406
641.000000	78.335755
640.000000	78.244659
639.000000	78.255728
638.000000	78.373663
637.000000	78.573730
636.000000	78.784338
635.000000	78.903405
634.000000	78.869738
633.000000	78.706093
632.000000	78.488141
631.000000	78.303224
630.000000	78.238026
629.000000	78.347463
628.000000	78.604261
627.000000	78.898527
626.000000	79.107402
625.000000	79.157563
624.000000	79.030508
623.000000	78.763389
622.000000	78.463625
621.000000	78.272174
620.000000	78.273507
619.000000	78.450820
618.000000	78.720846
617.000000	78.981678
616.000000	79.131671
615.000000	79.106651
614.000000	78.939342
613.000000	78.753854
612.000000	78.679150
611.000000	78.781056
610.000000	79.064679
609.000000	79.482383
608.000000	79.922487
607.000000	80.242697
606.000000	80.363715
605.000000	80.315397
604.000000	80.186235
603.000000	80.068397
602.000000	80.052619
601.000000	80.202824
600.000000	80.494608
599.000000	80.810549
598.000000	81.025523
597.000000	81.078133
596.000000	80.962551
595.000000	80.718983
594.000000	80.455029
593.000000	80.312905
592.000000	80.372720
591.000000	80.609174
590.000000	80.943173
589.000000	81.294807
588.000000	81.579418
587.000000	81.717399
586.000000	81.696522
585.000000	81.592403
584.000000	81.498559
583.000000	81.471538
582.000000	81.549624
581.000000	81.756096
580.000000	82.051776
579.000000	82.331658
578.000000	82.505132
577.000000	82.547278
576.000000	82.467383
575.000000	82.294113
574.000000	82.110604
573.000000	82.032846
572.000000	82.121777
571.000000	82.345086
570.000000	82.625700
569.000000	82.885710
568.000000	83.035356
567.000000	82.993106
566.000000	82.770003
565.000000	82.486939
564.000000	82.276073
563.000000	82.208527
562.000000	82.309602
561.000000	82.565603
560.000000	82.885596
559.000000	83.115053
558.000000	83.143577
557.000000	82.976567
556.000000	82.693388
555.000000	82.397353
554.000000	82.219706
553.000000	82.277682
552.000000	82.577618
551.000000	82.990028
550.000000	83.348410
549.000000	83.545258
548.000000	83.532045
547.000000	83.313997
546.000000	82.999632
545.000000	82.778172
544.000000	82.787277
543.000000	83.031823
542.000000	83.424617
541.000000	83.841441
540.000000	84.130497
539.000000	84.160653
538.000000	83.930529
537.000000	83.589191
536.000000	83.314550
535.000000	83.213351
534.000000	83.329501
533.000000	83.652943
532.000000	84.077007
531.000000	84.413506
530.000000	84.521714
529.000000	84.395328
528.000000	84.109925
527.000000	83.765122
526.000000	83.502943
525.000000	83.468963
524.000000	83.685166
523.000000	84.018599
522.000000	84.304725
521.000000	84.440315
520.000000	84.360947
519.000000	84.032720
518.000000	83.522451
517.000000	83.005292
516.000000	82.632663
515.000000	82.433813
514.000000	82.355353
513.000000	82.308582
512.000000	82.155347
511.000000	81.739817
510.000000	81.010259
509.000000	80.060557
508.000000	79.029496
507.000000	78.035691
506.000000	77.196627
505.000000	76.593338
504.000000	76.187910
503.000000	75.835429
502.000000	75.411493
501.000000	74.905022
500.000000	74.375949
499.000000	73.898846
498.000000	73.600752
497.000000	73.641829
496.000000	74.095229
495.000000	74.883711
494.000000	75.845323
493.000000	76.809906
492.000000	77.604814
491.000000	78.103956
490.000000	78.335380
489.000000	78.482810
488.000000	78.736887
487.000000	79.186937
486.000000	79.837079
485.000000	80.617080
484.000000	81.346128
483.000000	81.781188
482.000000	81.797410
481.000000	81.477815
480.000000	81.010177
479.000000	80.578256
478.000000	80.354635
477.000000	80.465727
476.000000	80.884703
475.000000	81.417656
474.000000	81.849948
473.000000	82.063252
472.000000	82.037412
471.000000	81.845121
470.000000	81.652282
469.000000	81.654046
468.000000	81.953190
467.000000	82.485403
466.000000	83.088248
465.000000	83.618513
464.000000	83.957858
463.000000	83.997989
462.000000	83.750188
461.000000	83.397798
460.000000	83.147571
459.000000	83.110971
458.000000	83.333663
457.000000	83.793481
456.000000	84.320481
455.000000	84.659776
454.000000	84.688701
453.000000	84.482297
452.000000	84.186128
451.000000	83.908557
450.000000	83.757527
449.000000	83.870028
448.000000	84.283445
447.000000	84.833164
446.000000	85.291971
445.000000	85.556712
444.000000	85.594957
443.000000	85.363610
442.000000	84.947375
441.000000	84.617284
440.000000	84.584428
439.000000	84.831250
438.000000	85.249380
437.000000	85.763131
436.000000	86.224552
435.000000	86.375731
434.000000	86.117403
433.000000	85.653901
432.000000	85.260477
431.000000	85.075222
430.000000	85.166291
429.000000	85.590133
428.000000	86.237523
427.000000	86.769568
426.000000	86.897220
425.000000	86.638076
424.000000	86.172588
423.000000	85.641816
422.000000	85.214236
421.000000	85.138240
420.000000	85.570865
419.000000	86.294110
418.000000	86.830555
417.000000	87.022518
416.000000	86.917732
415.000000	86.484193
414.000000	85.836380
413.000000	85.372046
412.000000	85.389385
411.000000	85.778221
410.000000	86.283842
409.000000	86.795711
408.000000	87.165033
407.000000	87.077353
406.000000	86.473197
405.000000	85.785762
404.000000	85.414897
403.000000	85.330541
402.000000	85.417495
401.000000	85.797398
400.000000	86.462282
