PE IR       SUBTECH     SPECTRUM    ASCII       PEDS        4.00        
   -1
23ms262_268_nitro.asc
24/09/09
17:13:25.00
24/09/09
17:13:25.00
Administrator
Sample 1150 By Administrator Date Monday, September 09 2024
400.000000
#HDR
-1
-1
#GR
cm-1
%T
1.0
0.0
4000.000000
-1.000000
3601
8
84.914332
0.480607
#DATA
4000.000000	61.774642
3999.000000	61.830039
3998.000000	61.887478
3997.000000	61.946120
3996.000000	62.004467
3995.000000	62.060636
3994.000000	62.113375
3993.000000	62.163154
3992.000000	62.212005
3991.000000	62.262053
3990.000000	62.314003
3989.000000	62.367116
3988.000000	62.420375
3987.000000	62.473243
3986.000000	62.525395
3985.000000	62.576116
3984.000000	62.624529
3983.000000	62.670339
3982.000000	62.714139
3981.000000	62.757124
3980.000000	62.800741
3979.000000	62.846313
3978.000000	62.894394
3977.000000	62.944240
3976.000000	62.993809
3975.000000	63.040766
3974.000000	63.083934
3973.000000	63.124131
3972.000000	63.163760
3971.000000	63.205345
3970.000000	63.250182
3969.000000	63.297573
3968.000000	63.345198
3967.000000	63.390666
3966.000000	63.432899
3965.000000	63.472680
3964.000000	63.511909
3963.000000	63.551954
3962.000000	63.592738
3961.000000	63.633488
3960.000000	63.674426
3959.000000	63.717022
3958.000000	63.762529
3957.000000	63.810173
3956.000000	63.857148
3955.000000	63.900640
3954.000000	63.939562
3953.000000	63.975087
3952.000000	64.009936
3951.000000	64.047436
3950.000000	64.090010
3949.000000	64.136486
3948.000000	64.182020
3947.000000	64.222245
3946.000000	64.258102
3945.000000	64.296065
3944.000000	64.342309
3943.000000	64.396309
3942.000000	64.450572
3941.000000	64.498279
3940.000000	64.540366
3939.000000	64.582620
3938.000000	64.627474
3937.000000	64.671141
3936.000000	64.708863
3935.000000	64.741565
3934.000000	64.775788
3933.000000	64.817259
3932.000000	64.865021
3931.000000	64.912646
3930.000000	64.954762
3929.000000	64.991443
3928.000000	65.027269
3927.000000	65.067554
3926.000000	65.113839
3925.000000	65.161952
3924.000000	65.204550
3923.000000	65.237479
3922.000000	65.263926
3921.000000	65.291408
3920.000000	65.326494
3919.000000	65.371582
3918.000000	65.424270
3917.000000	65.478729
3916.000000	65.528534
3915.000000	65.571068
3914.000000	65.609598
3913.000000	65.649910
3912.000000	65.695460
3911.000000	65.743915
3910.000000	65.789394
3909.000000	65.827605
3908.000000	65.858880
3907.000000	65.886788
3906.000000	65.913563
3905.000000	65.937902
3904.000000	65.956636
3903.000000	65.969659
3902.000000	65.984794
3901.000000	66.013735
3900.000000	66.061099
3899.000000	66.119796
3898.000000	66.176557
3897.000000	66.223672
3896.000000	66.263296
3895.000000	66.302052
3894.000000	66.345903
3893.000000	66.397255
3892.000000	66.452392
3891.000000	66.501007
3890.000000	66.533697
3889.000000	66.552764
3888.000000	66.570313
3887.000000	66.598168
3886.000000	66.638475
3885.000000	66.678696
3884.000000	66.705449
3883.000000	66.724038
3882.000000	66.753688
3881.000000	66.806451
3880.000000	66.871862
3879.000000	66.926051
3878.000000	66.958349
3877.000000	66.978824
3876.000000	67.002632
3875.000000	67.035815
3874.000000	67.070881
3873.000000	67.096842
3872.000000	67.114217
3871.000000	67.136733
3870.000000	67.175235
3869.000000	67.221507
3868.000000	67.260504
3867.000000	67.290229
3866.000000	67.319073
3865.000000	67.355817
3864.000000	67.401797
3863.000000	67.448794
3862.000000	67.489661
3861.000000	67.524756
3860.000000	67.560216
3859.000000	67.602739
3858.000000	67.653331
3857.000000	67.704523
3856.000000	67.743159
3855.000000	67.761294
3854.000000	67.767250
3853.000000	67.772554
3852.000000	67.780903
3851.000000	67.801744
3850.000000	67.845259
3849.000000	67.907663
3848.000000	67.978271
3847.000000	68.046487
3846.000000	68.104165
3845.000000	68.147887
3844.000000	68.178988
3843.000000	68.201271
3842.000000	68.219711
3841.000000	68.238004
3840.000000	68.258312
3839.000000	68.282709
3838.000000	68.312790
3837.000000	68.348961
3836.000000	68.389474
3835.000000	68.431317
3834.000000	68.472871
3833.000000	68.515412
3832.000000	68.561437
3831.000000	68.610202
3830.000000	68.657730
3829.000000	68.702785
3828.000000	68.748168
3827.000000	68.794463
3826.000000	68.836583
3825.000000	68.868004
3824.000000	68.887248
3823.000000	68.900953
3822.000000	68.921712
3821.000000	68.955036
3820.000000	68.989722
3819.000000	69.015515
3818.000000	69.036716
3817.000000	69.064398
3816.000000	69.106525
3815.000000	69.158989
3814.000000	69.211065
3813.000000	69.259071
3812.000000	69.306437
3811.000000	69.356239
3810.000000	69.406861
3809.000000	69.452875
3808.000000	69.489810
3807.000000	69.517099
3806.000000	69.536252
3805.000000	69.548877
3804.000000	69.558256
3803.000000	69.568738
3802.000000	69.587455
3801.000000	69.617526
3800.000000	69.652681
3799.000000	69.690579
3798.000000	69.735694
3797.000000	69.789726
3796.000000	69.847493
3795.000000	69.900914
3794.000000	69.946526
3793.000000	69.988180
3792.000000	70.031805
3791.000000	70.079495
3790.000000	70.127890
3789.000000	70.172047
3788.000000	70.210165
3787.000000	70.244233
3786.000000	70.276989
3785.000000	70.308582
3784.000000	70.337062
3783.000000	70.361768
3782.000000	70.386054
3781.000000	70.415959
3780.000000	70.455586
3779.000000	70.501536
3778.000000	70.545385
3777.000000	70.582779
3776.000000	70.616345
3775.000000	70.649602
3774.000000	70.682395
3773.000000	70.712760
3772.000000	70.740510
3771.000000	70.767888
3770.000000	70.796424
3769.000000	70.824654
3768.000000	70.852443
3767.000000	70.884903
3766.000000	70.926232
3765.000000	70.972611
3764.000000	71.014492
3763.000000	71.045801
3762.000000	71.069331
3761.000000	71.092743
3760.000000	71.122522
3759.000000	71.157619
3758.000000	71.191219
3757.000000	71.219513
3756.000000	71.243427
3755.000000	71.263855
3754.000000	71.279365
3753.000000	71.289699
3752.000000	71.299603
3751.000000	71.314184
3750.000000	71.331961
3749.000000	71.349708
3748.000000	71.370217
3747.000000	71.397316
3746.000000	71.432134
3745.000000	71.480316
3744.000000	71.539014
3743.000000	71.590621
3742.000000	71.633178
3741.000000	71.675880
3740.000000	71.717451
3739.000000	71.751198
3738.000000	71.775529
3737.000000	71.800677
3736.000000	71.841308
3735.000000	71.899288
3734.000000	71.959052
3733.000000	72.006400
3732.000000	72.043306
3731.000000	72.080077
3730.000000	72.122065
3729.000000	72.167134
3728.000000	72.213050
3727.000000	72.262139
3726.000000	72.314319
3725.000000	72.363140
3724.000000	72.404213
3723.000000	72.441287
3722.000000	72.480155
3721.000000	72.520515
3720.000000	72.559336
3719.000000	72.595944
3718.000000	72.631125
3717.000000	72.665293
3716.000000	72.697468
3715.000000	72.725107
3714.000000	72.745332
3713.000000	72.759015
3712.000000	72.774720
3711.000000	72.801608
3710.000000	72.840266
3709.000000	72.884655
3708.000000	72.929390
3707.000000	72.973675
3706.000000	73.017409
3705.000000	73.059784
3704.000000	73.101383
3703.000000	73.145448
3702.000000	73.193285
3701.000000	73.239052
3700.000000	73.275465
3699.000000	73.302968
3698.000000	73.327431
3697.000000	73.352129
3696.000000	73.376033
3695.000000	73.396050
3694.000000	73.411356
3693.000000	73.424750
3692.000000	73.441278
3691.000000	73.463506
3690.000000	73.488926
3689.000000	73.512565
3688.000000	73.531851
3687.000000	73.551738
3686.000000	73.579652
3685.000000	73.616586
3684.000000	73.657116
3683.000000	73.696130
3682.000000	73.730747
3681.000000	73.759261
3680.000000	73.778853
3679.000000	73.785091
3678.000000	73.773972
3677.000000	73.750344
3676.000000	73.735854
3675.000000	73.744469
3674.000000	73.761938
3673.000000	73.773503
3672.000000	73.782442
3671.000000	73.804815
3670.000000	73.854682
3669.000000	73.920044
3668.000000	73.974896
3667.000000	74.012002
3666.000000	74.041043
3665.000000	74.071140
3664.000000	74.105246
3663.000000	74.142326
3662.000000	74.179450
3661.000000	74.211449
3660.000000	74.230666
3659.000000	74.231684
3658.000000	74.216055
3657.000000	74.192711
3656.000000	74.169945
3655.000000	74.149330
3654.000000	74.130600
3653.000000	74.113276
3652.000000	74.093395
3651.000000	74.067131
3650.000000	74.035994
3649.000000	74.006293
3648.000000	73.987634
3647.000000	73.986345
3646.000000	73.999519
3645.000000	74.018631
3644.000000	74.039653
3643.000000	74.063374
3642.000000	74.088279
3641.000000	74.106840
3640.000000	74.110483
3639.000000	74.097388
3638.000000	74.070820
3637.000000	74.034600
3636.000000	73.992932
3635.000000	73.952041
3634.000000	73.916274
3633.000000	73.881964
3632.000000	73.840350
3631.000000	73.786682
3630.000000	73.730934
3629.000000	73.689827
3628.000000	73.660180
3627.000000	73.628320
3626.000000	73.595978
3625.000000	73.570198
3624.000000	73.551122
3623.000000	73.534686
3622.000000	73.514261
3621.000000	73.483708
3620.000000	73.442305
3619.000000	73.392657
3618.000000	73.333456
3617.000000	73.264141
3616.000000	73.191234
3615.000000	73.125510
3614.000000	73.074397
3613.000000	73.034881
3612.000000	72.996064
3611.000000	72.950631
3610.000000	72.901991
3609.000000	72.860289
3608.000000	72.831247
3607.000000	72.809338
3606.000000	72.783917
3605.000000	72.749546
3604.000000	72.708131
3603.000000	72.665579
3602.000000	72.625293
3601.000000	72.585191
3600.000000	72.540455
3599.000000	72.486811
3598.000000	72.422795
3597.000000	72.352668
3596.000000	72.286014
3595.000000	72.231254
3594.000000	72.187949
3593.000000	72.146246
3592.000000	72.096518
3591.000000	72.035941
3590.000000	71.969290
3589.000000	71.908420
3588.000000	71.865711
3587.000000	71.839578
3586.000000	71.813873
3585.000000	71.777681
3584.000000	71.735194
3583.000000	71.696486
3582.000000	71.665564
3581.000000	71.637928
3580.000000	71.606523
3579.000000	71.567103
3578.000000	71.518825
3577.000000	71.462612
3576.000000	71.402259
3575.000000	71.343080
3574.000000	71.288768
3573.000000	71.238719
3572.000000	71.188852
3571.000000	71.133734
3570.000000	71.069037
3569.000000	70.997529
3568.000000	70.931870
3567.000000	70.883806
3566.000000	70.849844
3565.000000	70.818827
3564.000000	70.787431
3563.000000	70.760600
3562.000000	70.741641
3561.000000	70.726814
3560.000000	70.708469
3559.000000	70.680658
3558.000000	70.641374
3557.000000	70.591586
3556.000000	70.535272
3555.000000	70.478810
3554.000000	70.428008
3553.000000	70.384844
3552.000000	70.346104
3551.000000	70.305634
3550.000000	70.259044
3549.000000	70.208015
3548.000000	70.160131
3547.000000	70.122291
3546.000000	70.092717
3545.000000	70.062391
3544.000000	70.025414
3543.000000	69.983683
3542.000000	69.941406
3541.000000	69.899673
3540.000000	69.858116
3539.000000	69.817550
3538.000000	69.777924
3537.000000	69.735884
3536.000000	69.686567
3535.000000	69.628528
3534.000000	69.565128
3533.000000	69.502089
3532.000000	69.443906
3531.000000	69.391322
3530.000000	69.341309
3529.000000	69.290366
3528.000000	69.238418
3527.000000	69.188440
3526.000000	69.142580
3525.000000	69.099870
3524.000000	69.057407
3523.000000	69.011859
3522.000000	68.960953
3521.000000	68.905597
3520.000000	68.849993
3519.000000	68.797563
3518.000000	68.746996
3517.000000	68.694441
3516.000000	68.638274
3515.000000	68.579130
3514.000000	68.516090
3513.000000	68.446924
3512.000000	68.372907
3511.000000	68.299781
3510.000000	68.231711
3509.000000	68.166672
3508.000000	68.099415
3507.000000	68.027644
3506.000000	67.953995
3505.000000	67.883618
3504.000000	67.820104
3503.000000	67.761617
3502.000000	67.701297
3501.000000	67.633472
3500.000000	67.558931
3499.000000	67.481757
3498.000000	67.402775
3497.000000	67.319108
3496.000000	67.229346
3495.000000	67.135706
3494.000000	67.040815
3493.000000	66.945452
3492.000000	66.850211
3491.000000	66.756536
3490.000000	66.664956
3489.000000	66.574150
3488.000000	66.482017
3487.000000	66.385928
3486.000000	66.282725
3485.000000	66.171608
3484.000000	66.057244
3483.000000	65.947312
3482.000000	65.845369
3481.000000	65.747485
3480.000000	65.646073
3479.000000	65.535614
3478.000000	65.415155
3477.000000	65.287935
3476.000000	65.159419
3475.000000	65.033520
3474.000000	64.910526
3473.000000	64.789647
3472.000000	64.671842
3471.000000	64.557447
3470.000000	64.442104
3469.000000	64.318513
3468.000000	64.182544
3467.000000	64.035438
3466.000000	63.881002
3465.000000	63.723735
3464.000000	63.568969
3463.000000	63.420641
3462.000000	63.277410
3461.000000	63.133250
3460.000000	62.982740
3459.000000	62.824620
3458.000000	62.661014
3457.000000	62.495544
3456.000000	62.331796
3455.000000	62.171148
3454.000000	62.011602
3453.000000	61.850072
3452.000000	61.685242
3451.000000	61.516873
3450.000000	61.343944
3449.000000	61.165908
3448.000000	60.985019
3447.000000	60.804517
3446.000000	60.625007
3445.000000	60.445023
3444.000000	60.264101
3443.000000	60.082711
3442.000000	59.900238
3441.000000	59.715784
3440.000000	59.530234
3439.000000	59.344866
3438.000000	59.158100
3437.000000	58.965793
3436.000000	58.764628
3435.000000	58.553886
3434.000000	58.334865
3433.000000	58.110708
3432.000000	57.885077
3431.000000	57.658646
3430.000000	57.427622
3429.000000	57.187817
3428.000000	56.939868
3427.000000	56.688171
3426.000000	56.436143
3425.000000	56.184563
3424.000000	55.932965
3423.000000	55.679961
3422.000000	55.422460
3421.000000	55.157356
3420.000000	54.883979
3419.000000	54.603495
3418.000000	54.317313
3417.000000	54.027528
3416.000000	53.737206
3415.000000	53.447304
3414.000000	53.153968
3413.000000	52.851608
3412.000000	52.537700
3411.000000	52.212954
3410.000000	51.878141
3409.000000	51.533304
3408.000000	51.179930
3407.000000	50.821146
3406.000000	50.460066
3405.000000	50.099216
3404.000000	49.739714
3403.000000	49.378835
3402.000000	49.008722
3401.000000	48.620299
3400.000000	48.209350
3399.000000	47.778445
3398.000000	47.334779
3397.000000	46.886968
3396.000000	46.441506
3395.000000	45.999600
3394.000000	45.556552
3393.000000	45.105089
3392.000000	44.638936
3391.000000	44.153910
3390.000000	43.649556
3389.000000	43.130561
3388.000000	42.604457
3387.000000	42.075973
3386.000000	41.544758
3385.000000	41.009425
3384.000000	40.469884
3383.000000	39.924871
3382.000000	39.370398
3381.000000	38.802982
3380.000000	38.222686
3379.000000	37.631083
3378.000000	37.029046
3377.000000	36.418245
3376.000000	35.801844
3375.000000	35.182100
3374.000000	34.558868
3373.000000	33.931532
3372.000000	33.299857
3371.000000	32.661280
3370.000000	32.011333
3369.000000	31.348272
3368.000000	30.675057
3367.000000	29.995850
3366.000000	29.313061
3365.000000	28.628887
3364.000000	27.945615
3363.000000	27.262731
3362.000000	26.576974
3361.000000	25.886552
3360.000000	25.192866
3359.000000	24.497401
3358.000000	23.800407
3357.000000	23.103753
3356.000000	22.411110
3355.000000	21.724052
3354.000000	21.041259
3353.000000	20.362231
3352.000000	19.688207
3351.000000	19.018952
3350.000000	18.352589
3349.000000	17.689695
3348.000000	17.033964
3347.000000	16.387741
3346.000000	15.750983
3345.000000	15.124726
3344.000000	14.511302
3343.000000	13.910642
3342.000000	13.320058
3341.000000	12.739049
3340.000000	12.170274
3339.000000	11.615315
3338.000000	11.073934
3337.000000	10.547134
3336.000000	10.037308
3335.000000	9.544539
3334.000000	9.066593
3333.000000	8.603450
3332.000000	8.156869
3331.000000	7.726277
3330.000000	7.309216
3329.000000	6.905627
3328.000000	6.518491
3327.000000	6.149157
3326.000000	5.796937
3325.000000	5.462727
3324.000000	5.147991
3323.000000	4.851144
3322.000000	4.568464
3321.000000	4.298868
3320.000000	4.044137
3319.000000	3.803997
3318.000000	3.576702
3317.000000	3.362706
3316.000000	3.163733
3315.000000	2.978751
3314.000000	2.804557
3313.000000	2.640504
3312.000000	2.487838
3311.000000	2.345195
3310.000000	2.209930
3309.000000	2.082617
3308.000000	1.966564
3307.000000	1.863061
3306.000000	1.771157
3305.000000	1.691397
3304.000000	1.624049
3303.000000	1.565307
3302.000000	1.509643
3301.000000	1.455365
3300.000000	1.404084
3299.000000	1.355648
3298.000000	1.308655
3297.000000	1.264750
3296.000000	1.227019
3295.000000	1.195072
3294.000000	1.166190
3293.000000	1.140662
3292.000000	1.121188
3291.000000	1.107305
3290.000000	1.095603
3289.000000	1.084628
3288.000000	1.075239
3287.000000	1.066905
3286.000000	1.057970
3285.000000	1.049308
3284.000000	1.043066
3283.000000	1.038590
3282.000000	1.033676
3281.000000	1.028781
3280.000000	1.025847
3279.000000	1.023916
3278.000000	1.020546
3277.000000	1.016555
3276.000000	1.014716
3275.000000	1.014612
3274.000000	1.013418
3273.000000	1.011350
3272.000000	1.011759
3271.000000	1.016171
3270.000000	1.023327
3269.000000	1.032378
3268.000000	1.042962
3267.000000	1.052921
3266.000000	1.060051
3265.000000	1.065554
3264.000000	1.072106
3263.000000	1.079399
3262.000000	1.085399
3261.000000	1.090589
3260.000000	1.096885
3259.000000	1.103685
3258.000000	1.109216
3257.000000	1.114755
3256.000000	1.123103
3255.000000	1.133894
3254.000000	1.144432
3253.000000	1.154183
3252.000000	1.164271
3251.000000	1.173707
3250.000000	1.180517
3249.000000	1.185928
3248.000000	1.193314
3247.000000	1.203509
3246.000000	1.214836
3245.000000	1.226752
3244.000000	1.239773
3243.000000	1.252738
3242.000000	1.264009
3241.000000	1.274483
3240.000000	1.285911
3239.000000	1.297216
3238.000000	1.306008
3237.000000	1.312571
3236.000000	1.319073
3235.000000	1.326234
3234.000000	1.334113
3233.000000	1.344488
3232.000000	1.358563
3231.000000	1.373771
3230.000000	1.386611
3229.000000	1.397232
3228.000000	1.407731
3227.000000	1.417765
3226.000000	1.425716
3225.000000	1.432565
3224.000000	1.440453
3223.000000	1.448824
3222.000000	1.455789
3221.000000	1.461935
3220.000000	1.468980
3219.000000	1.476112
3218.000000	1.481484
3217.000000	1.485889
3216.000000	1.491194
3215.000000	1.496620
3214.000000	1.500254
3213.000000	1.502778
3212.000000	1.505938
3211.000000	1.508869
3210.000000	1.509724
3209.000000	1.509378
3208.000000	1.509807
3207.000000	1.510300
3206.000000	1.508966
3205.000000	1.506519
3204.000000	1.504824
3203.000000	1.503258
3202.000000	1.500115
3201.000000	1.496105
3200.000000	1.492877
3199.000000	1.489606
3198.000000	1.484596
3197.000000	1.478698
3196.000000	1.473593
3195.000000	1.468403
3194.000000	1.461504
3193.000000	1.453965
3192.000000	1.447718
3191.000000	1.442007
3190.000000	1.435164
3189.000000	1.428068
3188.000000	1.422328
3187.000000	1.416899
3186.000000	1.410034
3185.000000	1.402752
3184.000000	1.396829
3183.000000	1.391301
3182.000000	1.384513
3181.000000	1.377689
3180.000000	1.372761
3179.000000	1.368634
3178.000000	1.363294
3177.000000	1.357736
3176.000000	1.354063
3175.000000	1.351531
3174.000000	1.348245
3173.000000	1.344949
3172.000000	1.343445
3171.000000	1.342983
3170.000000	1.341851
3169.000000	1.340837
3168.000000	1.341641
3167.000000	1.343530
3166.000000	1.345006
3165.000000	1.346968
3164.000000	1.350843
3163.000000	1.355519
3162.000000	1.359487
3161.000000	1.364074
3160.000000	1.371119
3159.000000	1.379410
3158.000000	1.386793
3157.000000	1.393732
3156.000000	1.401543
3155.000000	1.409375
3154.000000	1.416590
3153.000000	1.425975
3152.000000	1.440594
3151.000000	1.459268
3150.000000	1.478610
3149.000000	1.497673
3148.000000	1.517253
3147.000000	1.536726
3146.000000	1.555321
3145.000000	1.574605
3144.000000	1.596044
3143.000000	1.617977
3142.000000	1.638411
3141.000000	1.659123
3140.000000	1.683498
3139.000000	1.711978
3138.000000	1.742938
3137.000000	1.776012
3136.000000	1.811209
3135.000000	1.846690
3134.000000	1.880794
3133.000000	1.914881
3132.000000	1.951069
3131.000000	1.989022
3130.000000	2.027826
3129.000000	2.068724
3128.000000	2.112988
3127.000000	2.159114
3126.000000	2.205172
3125.000000	2.251805
3124.000000	2.299926
3123.000000	2.348053
3122.000000	2.395123
3121.000000	2.443573
3120.000000	2.496326
3119.000000	2.552870
3118.000000	2.611708
3117.000000	2.674130
3116.000000	2.741909
3115.000000	2.813462
3114.000000	2.885707
3113.000000	2.957998
3112.000000	3.031103
3111.000000	3.104548
3110.000000	3.178356
3109.000000	3.255172
3108.000000	3.337321
3107.000000	3.423474
3106.000000	3.511093
3105.000000	3.600181
3104.000000	3.691610
3103.000000	3.784284
3102.000000	3.877246
3101.000000	3.972381
3100.000000	4.071928
3099.000000	4.175069
3098.000000	4.280069
3097.000000	4.387573
3096.000000	4.498560
3095.000000	4.611423
3094.000000	4.724192
3093.000000	4.837840
3092.000000	4.954446
3091.000000	5.073906
3090.000000	5.195365
3089.000000	5.319601
3088.000000	5.447198
3087.000000	5.576583
3086.000000	5.706653
3085.000000	5.839276
3084.000000	5.976168
3083.000000	6.115558
3082.000000	6.255075
3081.000000	6.395623
3080.000000	6.539550
3079.000000	6.686984
3078.000000	6.836970
3077.000000	6.990101
3076.000000	7.146794
3075.000000	7.305036
3074.000000	7.462805
3073.000000	7.620857
3072.000000	7.780472
3071.000000	7.940470
3070.000000	8.099600
3069.000000	8.259825
3068.000000	8.424047
3067.000000	8.592315
3066.000000	8.762924
3065.000000	8.935546
3064.000000	9.110341
3063.000000	9.285697
3062.000000	9.459870
3061.000000	9.633443
3060.000000	9.807819
3059.000000	9.982936
3058.000000	10.158691
3057.000000	10.336691
3056.000000	10.517933
3055.000000	10.700551
3054.000000	10.882450
3053.000000	11.064416
3052.000000	11.248216
3051.000000	11.433338
3050.000000	11.618153
3049.000000	11.802640
3048.000000	11.987543
3047.000000	12.172546
3046.000000	12.357620
3045.000000	12.544475
3044.000000	12.734336
3043.000000	12.925813
3042.000000	13.117132
3041.000000	13.308632
3040.000000	13.500877
3039.000000	13.692368
3038.000000	13.881709
3037.000000	14.070394
3036.000000	14.260950
3035.000000	14.453747
3034.000000	14.647807
3033.000000	14.843044
3032.000000	15.039310
3031.000000	15.234816
3030.000000	15.427982
3029.000000	15.619662
3028.000000	15.811581
3027.000000	16.004058
3026.000000	16.197139
3025.000000	16.392083
3024.000000	16.589365
3023.000000	16.786803
3022.000000	16.981983
3021.000000	17.175163
3020.000000	17.367759
3019.000000	17.559598
3018.000000	17.749999
3017.000000	17.940094
3016.000000	18.131676
3015.000000	18.324939
3014.000000	18.519376
3013.000000	18.715572
3012.000000	18.913852
3011.000000	19.112407
3010.000000	19.308906
3009.000000	19.503086
3008.000000	19.696059
3007.000000	19.888371
3006.000000	20.080502
3005.000000	20.273840
3004.000000	20.469055
3003.000000	20.664474
3002.000000	20.857937
3001.000000	21.049291
3000.000000	21.239562
2999.000000	21.428959
2998.000000	21.617413
2997.000000	21.805874
2996.000000	21.995287
2995.000000	22.185352
2994.000000	22.375829
2993.000000	22.567719
2992.000000	22.761418
2991.000000	22.954966
2990.000000	23.146000
2989.000000	23.334401
2988.000000	23.521397
2987.000000	23.707329
2986.000000	23.892109
2985.000000	24.076740
2984.000000	24.262441
2983.000000	24.449075
2982.000000	24.636062
2981.000000	24.823721
2980.000000	25.012004
2979.000000	25.199038
2978.000000	25.382961
2977.000000	25.564495
2976.000000	25.745961
2975.000000	25.928501
2974.000000	26.111909
2973.000000	26.296203
2972.000000	26.481463
2971.000000	26.666642
2970.000000	26.850290
2969.000000	27.032121
2968.000000	27.212466
2967.000000	27.391031
2966.000000	27.567661
2965.000000	27.743666
2964.000000	27.920746
2963.000000	28.099035
2962.000000	28.277591
2961.000000	28.455996
2960.000000	28.634048
2959.000000	28.810677
2958.000000	28.984736
2957.000000	29.156394
2956.000000	29.326529
2955.000000	29.495605
2954.000000	29.664307
2953.000000	29.834018
2952.000000	30.005141
2951.000000	30.175864
2950.000000	30.344174
2949.000000	30.510188
2948.000000	30.675041
2947.000000	30.838685
2946.000000	31.000608
2945.000000	31.161780
2944.000000	31.323907
2943.000000	31.487229
2942.000000	31.650824
2941.000000	31.814481
2940.000000	31.978352
2939.000000	32.141227
2938.000000	32.301039
2937.000000	32.457032
2936.000000	32.610026
2935.000000	32.761031
2934.000000	32.911371
2933.000000	33.063615
2932.000000	33.220101
2931.000000	33.380177
2930.000000	33.540334
2929.000000	33.697231
2928.000000	33.849316
2927.000000	33.996129
2926.000000	34.138071
2925.000000	34.277149
2924.000000	34.416335
2923.000000	34.557713
2922.000000	34.702178
2921.000000	34.850290
2920.000000	35.001683
2919.000000	35.153799
2918.000000	35.303037
2917.000000	35.447490
2916.000000	35.587299
2915.000000	35.722672
2914.000000	35.853409
2913.000000	35.980725
2912.000000	36.107711
2911.000000	36.237012
2910.000000	36.368896
2909.000000	36.501863
2908.000000	36.634064
2907.000000	36.763768
2906.000000	36.889719
2905.000000	37.012042
2904.000000	37.132440
2903.000000	37.253215
2902.000000	37.376178
2901.000000	37.502458
2900.000000	37.631984
2899.000000	37.762592
2898.000000	37.890943
2897.000000	38.013982
2896.000000	38.130115
2895.000000	38.239502
2894.000000	38.344517
2893.000000	38.449544
2892.000000	38.558740
2891.000000	38.673387
2890.000000	38.791665
2889.000000	38.910673
2888.000000	39.027751
2887.000000	39.140570
2886.000000	39.248017
2885.000000	39.351633
2884.000000	39.455135
2883.000000	39.562065
2882.000000	39.674458
2881.000000	39.793388
2880.000000	39.919004
2879.000000	40.049704
2878.000000	40.182866
2877.000000	40.317000
2876.000000	40.451863
2875.000000	40.586021
2874.000000	40.716172
2873.000000	40.840454
2872.000000	40.961460
2871.000000	41.084476
2870.000000	41.213070
2869.000000	41.346863
2868.000000	41.482407
2867.000000	41.615126
2866.000000	41.741366
2865.000000	41.860659
2864.000000	41.976558
2863.000000	42.094278
2862.000000	42.216953
2861.000000	42.343972
2860.000000	42.472244
2859.000000	42.598417
2858.000000	42.720297
2857.000000	42.837194
2856.000000	42.949405
2855.000000	43.057572
2854.000000	43.163093
2853.000000	43.269146
2852.000000	43.380098
2851.000000	43.498680
2850.000000	43.623451
2849.000000	43.749162
2848.000000	43.869508
2847.000000	43.980135
2846.000000	44.080369
2845.000000	44.173297
2844.000000	44.264492
2843.000000	44.360097
2842.000000	44.464959
2841.000000	44.580581
2840.000000	44.703350
2839.000000	44.825468
2838.000000	44.939778
2837.000000	45.044390
2836.000000	45.141991
2835.000000	45.235444
2834.000000	45.326019
2833.000000	45.415861
2832.000000	45.509422
2831.000000	45.610658
2830.000000	45.719976
2829.000000	45.834792
2828.000000	45.951686
2827.000000	46.067010
2826.000000	46.177176
2825.000000	46.280546
2824.000000	46.378849
2823.000000	46.475764
2822.000000	46.574610
2821.000000	46.677668
2820.000000	46.786007
2819.000000	46.898251
2818.000000	47.010254
2817.000000	47.117567
2816.000000	47.218232
2815.000000	47.312927
2814.000000	47.403765
2813.000000	47.493996
2812.000000	47.587364
2811.000000	47.685707
2810.000000	47.787341
2809.000000	47.888777
2808.000000	47.987232
2807.000000	48.080631
2806.000000	48.166793
2805.000000	48.244731
2804.000000	48.316593
2803.000000	48.386986
2802.000000	48.460530
2801.000000	48.540437
2800.000000	48.627723
2799.000000	48.719950
2798.000000	48.811471
2797.000000	48.896803
2796.000000	48.973952
2795.000000	49.044069
2794.000000	49.109401
2793.000000	49.173148
2792.000000	49.239871
2791.000000	49.313356
2790.000000	49.393823
2789.000000	49.478357
2788.000000	49.563538
2787.000000	49.646463
2786.000000	49.724442
2785.000000	49.796005
2784.000000	49.862320
2783.000000	49.926290
2782.000000	49.990354
2781.000000	50.056045
2780.000000	50.124550
2779.000000	50.195798
2778.000000	50.267256
2777.000000	50.334938
2776.000000	50.395631
2775.000000	50.447491
2774.000000	50.489863
2773.000000	50.524366
2772.000000	50.555099
2771.000000	50.585804
2770.000000	50.616727
2769.000000	50.645222
2768.000000	50.668572
2767.000000	50.684653
2766.000000	50.691284
2765.000000	50.687351
2764.000000	50.674507
2763.000000	50.656393
2762.000000	50.636259
2761.000000	50.616468
2760.000000	50.599118
2759.000000	50.584851
2758.000000	50.571471
2757.000000	50.555274
2756.000000	50.533765
2755.000000	50.506344
2754.000000	50.473387
2753.000000	50.436433
2752.000000	50.398358
2751.000000	50.361491
2750.000000	50.325630
2749.000000	50.288793
2748.000000	50.249180
2747.000000	50.205118
2746.000000	50.154421
2745.000000	50.095981
2744.000000	50.031524
2743.000000	49.964561
2742.000000	49.898385
2741.000000	49.836224
2740.000000	49.782199
2739.000000	49.740186
2738.000000	49.712063
2737.000000	49.698882
2736.000000	49.702896
2735.000000	49.726665
2734.000000	49.771328
2733.000000	49.836622
2732.000000	49.922287
2731.000000	50.027881
2730.000000	50.151058
2729.000000	50.288220
2728.000000	50.435862
2727.000000	50.590260
2726.000000	50.747183
2725.000000	50.903237
2724.000000	51.057497
2723.000000	51.210153
2722.000000	51.360041
2721.000000	51.505147
2720.000000	51.644631
2719.000000	51.778389
2718.000000	51.905362
2717.000000	52.024087
2716.000000	52.134198
2715.000000	52.235965
2714.000000	52.328663
2713.000000	52.411397
2712.000000	52.484980
2711.000000	52.550611
2710.000000	52.607890
2709.000000	52.655757
2708.000000	52.694862
2707.000000	52.727211
2706.000000	52.753565
2705.000000	52.773680
2704.000000	52.788092
2703.000000	52.797478
2702.000000	52.801018
2701.000000	52.797111
2700.000000	52.785771
2699.000000	52.768371
2698.000000	52.745770
2697.000000	52.719009
2696.000000	52.690773
2695.000000	52.663937
2694.000000	52.638781
2693.000000	52.613370
2692.000000	52.586163
2691.000000	52.556200
2690.000000	52.521791
2689.000000	52.481652
2688.000000	52.437148
2687.000000	52.391586
2686.000000	52.347539
2685.000000	52.306517
2684.000000	52.270180
2683.000000	52.239216
2682.000000	52.211215
2681.000000	52.181880
2680.000000	52.148453
2679.000000	52.110751
2678.000000	52.069968
2677.000000	52.028699
2676.000000	51.991635
2675.000000	51.963499
2674.000000	51.945809
2673.000000	51.937029
2672.000000	51.935050
2671.000000	51.937995
2670.000000	51.943451
2669.000000	51.949356
2668.000000	51.956241
2667.000000	51.966666
2666.000000	51.982772
2665.000000	52.005607
2664.000000	52.035592
2663.000000	52.071634
2662.000000	52.109802
2661.000000	52.144951
2660.000000	52.173979
2659.000000	52.196558
2658.000000	52.214110
2657.000000	52.230070
2656.000000	52.250455
2655.000000	52.281555
2654.000000	52.326244
2653.000000	52.383674
2652.000000	52.451287
2651.000000	52.525519
2650.000000	52.601913
2649.000000	52.677180
2648.000000	52.752274
2647.000000	52.831852
2646.000000	52.920973
2645.000000	53.023619
2644.000000	53.142105
2643.000000	53.275352
2642.000000	53.417431
2641.000000	53.559693
2640.000000	53.694999
2639.000000	53.819139
2638.000000	53.930284
2637.000000	54.030002
2636.000000	54.124059
2635.000000	54.218981
2634.000000	54.317239
2633.000000	54.416554
2632.000000	54.512686
2631.000000	54.600737
2630.000000	54.674639
2629.000000	54.729810
2628.000000	54.767024
2627.000000	54.792018
2626.000000	54.811904
2625.000000	54.832904
2624.000000	54.860174
2623.000000	54.895608
2622.000000	54.935122
2621.000000	54.970677
2620.000000	54.995099
2619.000000	55.004458
2618.000000	54.997611
2617.000000	54.976888
2616.000000	54.949363
2615.000000	54.923737
2614.000000	54.904957
2613.000000	54.892528
2612.000000	54.882431
2611.000000	54.868566
2610.000000	54.843264
2609.000000	54.800732
2608.000000	54.741646
2607.000000	54.673006
2606.000000	54.604086
2605.000000	54.543699
2604.000000	54.499302
2603.000000	54.474566
2602.000000	54.466867
2601.000000	54.468816
2600.000000	54.473030
2599.000000	54.474840
2598.000000	54.472357
2597.000000	54.467915
2596.000000	54.468739
2595.000000	54.483659
2594.000000	54.517902
2593.000000	54.571047
2592.000000	54.638927
2591.000000	54.714514
2590.000000	54.788532
2589.000000	54.853189
2588.000000	54.906573
2587.000000	54.953050
2586.000000	54.999820
2585.000000	55.054744
2584.000000	55.125388
2583.000000	55.215540
2582.000000	55.321959
2581.000000	55.436125
2580.000000	55.549569
2579.000000	55.656823
2578.000000	55.755165
2577.000000	55.845864
2576.000000	55.935546
2575.000000	56.033287
2574.000000	56.145202
2573.000000	56.272119
2572.000000	56.410815
2571.000000	56.554367
2570.000000	56.692342
2569.000000	56.814851
2568.000000	56.918200
2567.000000	57.005623
2566.000000	57.083644
2565.000000	57.159788
2564.000000	57.241447
2563.000000	57.332385
2562.000000	57.428615
2561.000000	57.520092
2560.000000	57.596979
2559.000000	57.652924
2558.000000	57.685454
2557.000000	57.697544
2556.000000	57.699400
2555.000000	57.705311
2554.000000	57.727137
2553.000000	57.771434
2552.000000	57.840289
2551.000000	57.930946
2550.000000	58.034839
2549.000000	58.141657
2548.000000	58.245487
2547.000000	58.346266
2546.000000	58.446867
2545.000000	58.551216
2544.000000	58.664601
2543.000000	58.790524
2542.000000	58.925890
2541.000000	59.061555
2540.000000	59.187593
2539.000000	59.296443
2538.000000	59.383183
2537.000000	59.447564
2536.000000	59.496068
2535.000000	59.539097
2534.000000	59.584579
2533.000000	59.635778
2532.000000	59.693153
2531.000000	59.753782
2530.000000	59.810266
2529.000000	59.854292
2528.000000	59.883015
2527.000000	59.900356
2526.000000	59.913104
2525.000000	59.929055
2524.000000	59.957204
2523.000000	60.004263
2522.000000	60.069343
2521.000000	60.144567
2520.000000	60.220776
2519.000000	60.290795
2518.000000	60.349160
2517.000000	60.393798
2516.000000	60.429061
2515.000000	60.463636
2514.000000	60.504571
2513.000000	60.554826
2512.000000	60.614719
2511.000000	60.681368
2510.000000	60.747153
2509.000000	60.803103
2508.000000	60.845176
2507.000000	60.875441
2506.000000	60.898187
2505.000000	60.918485
2504.000000	60.943065
2503.000000	60.977363
2502.000000	61.020673
2501.000000	61.066777
2500.000000	61.109407
2499.000000	61.144594
2498.000000	61.169220
2497.000000	61.182392
2496.000000	61.188622
2495.000000	61.195982
2494.000000	61.210361
2493.000000	61.233378
2492.000000	61.264452
2491.000000	61.300598
2490.000000	61.334783
2489.000000	61.359068
2488.000000	61.370417
2487.000000	61.371397
2486.000000	61.366344
2485.000000	61.360373
2484.000000	61.360575
2483.000000	61.372837
2482.000000	61.396541
2481.000000	61.425294
2480.000000	61.452650
2479.000000	61.474319
2478.000000	61.486364
2477.000000	61.486543
2476.000000	61.478070
2475.000000	61.468240
2474.000000	61.462826
2473.000000	61.464213
2472.000000	61.473594
2471.000000	61.490542
2470.000000	61.510542
2469.000000	61.527226
2468.000000	61.537663
2467.000000	61.542893
2466.000000	61.544279
2465.000000	61.543095
2464.000000	61.542821
2463.000000	61.547265
2462.000000	61.556200
2461.000000	61.566126
2460.000000	61.574954
2459.000000	61.582530
2458.000000	61.587610
2457.000000	61.588855
2456.000000	61.588646
2455.000000	61.591808
2454.000000	61.600325
2453.000000	61.612550
2452.000000	61.626804
2451.000000	61.641760
2450.000000	61.653940
2449.000000	61.659435
2448.000000	61.658561
2447.000000	61.655546
2446.000000	61.653938
2445.000000	61.655682
2444.000000	61.663463
2443.000000	61.679246
2442.000000	61.700372
2441.000000	61.720953
2440.000000	61.737242
2439.000000	61.748558
2438.000000	61.754215
2437.000000	61.753962
2436.000000	61.751172
2435.000000	61.751331
2434.000000	61.757106
2433.000000	61.767941
2432.000000	61.783342
2431.000000	61.802465
2430.000000	61.821414
2429.000000	61.835586
2428.000000	61.844847
2427.000000	61.852697
2426.000000	61.860988
2425.000000	61.869447
2424.000000	61.879295
2423.000000	61.892512
2422.000000	61.907717
2421.000000	61.921163
2420.000000	61.931794
2419.000000	61.941518
2418.000000	61.951149
2417.000000	61.960396
2416.000000	61.971302
2415.000000	61.987026
2414.000000	62.007073
2413.000000	62.027630
2412.000000	62.046350
2411.000000	62.062964
2410.000000	62.076102
2409.000000	62.084231
2408.000000	62.089716
2407.000000	62.097741
2406.000000	62.111140
2405.000000	62.129772
2404.000000	62.153792
2403.000000	62.182850
2402.000000	62.212716
2401.000000	62.237492
2400.000000	62.255518
2399.000000	62.269557
2398.000000	62.282005
2397.000000	62.294355
2396.000000	62.310325
2395.000000	62.334139
2394.000000	62.365308
2393.000000	62.399192
2392.000000	62.432404
2391.000000	62.463885
2390.000000	62.491935
2389.000000	62.515147
2388.000000	62.536602
2387.000000	62.562150
2386.000000	62.594631
2385.000000	62.633420
2384.000000	62.677980
2383.000000	62.728140
2382.000000	62.780494
2381.000000	62.830607
2380.000000	62.879287
2379.000000	62.931990
2378.000000	62.992832
2377.000000	63.062929
2376.000000	63.143692
2375.000000	63.235502
2374.000000	63.333513
2373.000000	63.428764
2372.000000	63.514975
2371.000000	63.590172
2370.000000	63.651545
2369.000000	63.697977
2368.000000	63.736698
2367.000000	63.779980
2366.000000	63.833183
2365.000000	63.893883
2364.000000	63.965138
2363.000000	64.046696
2362.000000	64.127531
2361.000000	64.201842
2360.000000	64.267777
2359.000000	64.331648
2358.000000	64.396520
2357.000000	64.457643
2356.000000	64.521613
2355.000000	64.588139
2354.000000	64.651643
2353.000000	64.706540
2352.000000	64.762781
2351.000000	64.838483
2350.000000	64.915687
2349.000000	64.970515
2348.000000	64.997611
2347.000000	65.026123
2346.000000	65.093367
2345.000000	65.195518
2344.000000	65.308840
2343.000000	65.398878
2342.000000	65.460307
2341.000000	65.504445
2340.000000	65.537311
2339.000000	65.568033
2338.000000	65.600050
2337.000000	65.638911
2336.000000	65.689739
2335.000000	65.755410
2334.000000	65.830784
2333.000000	65.905621
2332.000000	65.971365
2331.000000	66.032837
2330.000000	66.082926
2329.000000	66.125236
2328.000000	66.163370
2327.000000	66.204799
2326.000000	66.257447
2325.000000	66.314923
2324.000000	66.384733
2323.000000	66.460990
2322.000000	66.537856
2321.000000	66.602209
2320.000000	66.650654
2319.000000	66.691119
2318.000000	66.726161
2317.000000	66.759176
2316.000000	66.791369
2315.000000	66.831436
2314.000000	66.879578
2313.000000	66.932040
2312.000000	66.983271
2311.000000	67.031905
2310.000000	67.076128
2309.000000	67.113585
2308.000000	67.148674
2307.000000	67.187654
2306.000000	67.234202
2305.000000	67.283769
2304.000000	67.334159
2303.000000	67.384284
2302.000000	67.431491
2301.000000	67.471292
2300.000000	67.503734
2299.000000	67.534591
2298.000000	67.568111
2297.000000	67.605537
2296.000000	67.648857
2295.000000	67.699728
2294.000000	67.755151
2293.000000	67.806382
2292.000000	67.848822
2291.000000	67.881864
2290.000000	67.906698
2289.000000	67.923748
2288.000000	67.938982
2287.000000	67.960643
2286.000000	67.992786
2285.000000	68.032744
2284.000000	68.077341
2283.000000	68.123781
2282.000000	68.166558
2281.000000	68.199419
2280.000000	68.221923
2279.000000	68.239283
2278.000000	68.255344
2277.000000	68.272014
2276.000000	68.292965
2275.000000	68.322653
2274.000000	68.359031
2273.000000	68.394868
2272.000000	68.425681
2271.000000	68.451477
2270.000000	68.471608
2269.000000	68.484383
2268.000000	68.492744
2267.000000	68.503142
2266.000000	68.517918
2265.000000	68.534418
2264.000000	68.550688
2263.000000	68.566233
2262.000000	68.577643
2261.000000	68.579903
2260.000000	68.574041
2259.000000	68.565985
2258.000000	68.559093
2257.000000	68.552496
2256.000000	68.546402
2255.000000	68.541965
2254.000000	68.534994
2253.000000	68.517725
2252.000000	68.486539
2251.000000	68.443802
2250.000000	68.391399
2249.000000	68.330051
2248.000000	68.264161
2247.000000	68.200189
2246.000000	68.139371
2245.000000	68.076789
2244.000000	68.008425
2243.000000	67.932615
2242.000000	67.846021
2241.000000	67.745325
2240.000000	67.633875
2239.000000	67.520672
2238.000000	67.412504
2237.000000	67.312356
2236.000000	67.224233
2235.000000	67.152324
2234.000000	67.095041
2233.000000	67.046075
2232.000000	67.001883
2231.000000	66.962560
2230.000000	66.926312
2229.000000	66.889848
2228.000000	66.854088
2227.000000	66.822873
2226.000000	66.795511
2225.000000	66.766883
2224.000000	66.734699
2223.000000	66.700512
2222.000000	66.664021
2221.000000	66.623326
2220.000000	66.581205
2219.000000	66.544403
2218.000000	66.515907
2217.000000	66.493409
2216.000000	66.475024
2215.000000	66.460027
2214.000000	66.444111
2213.000000	66.420925
2212.000000	66.389512
2211.000000	66.354793
2210.000000	66.320782
2209.000000	66.289265
2208.000000	66.264275
2207.000000	66.250589
2206.000000	66.246748
2205.000000	66.245496
2204.000000	66.241514
2203.000000	66.233378
2202.000000	66.218830
2201.000000	66.195336
2200.000000	66.165853
2199.000000	66.137551
2198.000000	66.114200
2197.000000	66.094972
2196.000000	66.079841
2195.000000	66.069335
2194.000000	66.059317
2193.000000	66.043128
2192.000000	66.019696
2191.000000	65.993667
2190.000000	65.967870
2189.000000	65.942010
2188.000000	65.918175
2187.000000	65.900129
2186.000000	65.886397
2185.000000	65.870664
2184.000000	65.849713
2183.000000	65.825349
2182.000000	65.798964
2181.000000	65.771213
2180.000000	65.747099
2179.000000	65.734248
2178.000000	65.734916
2177.000000	65.745000
2176.000000	65.760546
2175.000000	65.779009
2174.000000	65.794912
2173.000000	65.801851
2172.000000	65.799876
2171.000000	65.795142
2170.000000	65.792381
2169.000000	65.793609
2168.000000	65.803024
2167.000000	65.825021
2166.000000	65.856546
2165.000000	65.888189
2164.000000	65.913735
2163.000000	65.932904
2162.000000	65.945636
2161.000000	65.951420
2160.000000	65.954688
2159.000000	65.963478
2158.000000	65.981234
2157.000000	66.005399
2156.000000	66.033446
2155.000000	66.063695
2154.000000	66.090773
2153.000000	66.108174
2152.000000	66.116521
2151.000000	66.123218
2150.000000	66.133750
2149.000000	66.149357
2148.000000	66.172117
2147.000000	66.204155
2146.000000	66.241197
2145.000000	66.274166
2144.000000	66.298062
2143.000000	66.313842
2142.000000	66.322944
2141.000000	66.327130
2140.000000	66.333488
2139.000000	66.351637
2138.000000	66.384722
2137.000000	66.428500
2136.000000	66.478067
2135.000000	66.528687
2134.000000	66.571781
2133.000000	66.599103
2132.000000	66.612044
2131.000000	66.620258
2130.000000	66.631197
2129.000000	66.647802
2128.000000	66.674234
2127.000000	66.714339
2126.000000	66.763674
2125.000000	66.811083
2124.000000	66.849315
2123.000000	66.877698
2122.000000	66.896177
2121.000000	66.905374
2120.000000	66.912436
2119.000000	66.928023
2118.000000	66.956152
2117.000000	66.993397
2116.000000	67.036831
2115.000000	67.084514
2114.000000	67.129135
2113.000000	67.161087
2112.000000	67.179513
2111.000000	67.192760
2110.000000	67.207849
2109.000000	67.227245
2108.000000	67.254512
2107.000000	67.293104
2106.000000	67.338342
2105.000000	67.378955
2104.000000	67.408291
2103.000000	67.427195
2102.000000	67.436742
2101.000000	67.437881
2100.000000	67.437847
2099.000000	67.447910
2098.000000	67.471996
2097.000000	67.504576
2096.000000	67.539932
2095.000000	67.574024
2094.000000	67.598699
2093.000000	67.604986
2092.000000	67.594654
2091.000000	67.580313
2090.000000	67.573051
2089.000000	67.577299
2088.000000	67.596626
2087.000000	67.633981
2086.000000	67.684077
2085.000000	67.734250
2084.000000	67.775191
2083.000000	67.804711
2082.000000	67.821566
2081.000000	67.825634
2080.000000	67.824710
2079.000000	67.832139
2078.000000	67.854810
2077.000000	67.890076
2076.000000	67.934692
2075.000000	67.986024
2074.000000	68.036382
2073.000000	68.075029
2072.000000	68.098794
2071.000000	68.114416
2070.000000	68.127845
2069.000000	68.140324
2068.000000	68.155696
2067.000000	68.182372
2066.000000	68.224287
2065.000000	68.276108
2064.000000	68.329383
2063.000000	68.377921
2062.000000	68.417587
2061.000000	68.448768
2060.000000	68.479956
2059.000000	68.521621
2058.000000	68.576080
2057.000000	68.638811
2056.000000	68.707566
2055.000000	68.781398
2054.000000	68.853513
2053.000000	68.914648
2052.000000	68.963951
2051.000000	69.009565
2050.000000	69.058110
2049.000000	69.112020
2048.000000	69.176935
2047.000000	69.260141
2046.000000	69.358659
2045.000000	69.459299
2044.000000	69.552955
2043.000000	69.640163
2042.000000	69.722099
2041.000000	69.796905
2040.000000	69.867094
2039.000000	69.940957
2038.000000	70.024236
2037.000000	70.117708
2036.000000	70.222885
2035.000000	70.340766
2034.000000	70.464579
2033.000000	70.583380
2032.000000	70.693590
2031.000000	70.798410
2030.000000	70.898943
2029.000000	70.993852
2028.000000	71.088663
2027.000000	71.192174
2026.000000	71.304271
2025.000000	71.417269
2024.000000	71.527669
2023.000000	71.638528
2022.000000	71.746857
2021.000000	71.843153
2020.000000	71.926769
2019.000000	72.010930
2018.000000	72.108841
2017.000000	72.222620
2016.000000	72.346983
2015.000000	72.474290
2014.000000	72.595111
2013.000000	72.703096
2012.000000	72.801191
2011.000000	72.895417
2010.000000	72.985226
2009.000000	73.067971
2008.000000	73.150464
2007.000000	73.243055
2006.000000	73.345950
2005.000000	73.452381
2004.000000	73.559621
2003.000000	73.669828
2002.000000	73.776111
2001.000000	73.867995
2000.000000	73.944604
1999.000000	74.011929
1998.000000	74.074455
1997.000000	74.131033
1996.000000	74.180415
1995.000000	74.225181
1994.000000	74.273363
1993.000000	74.337933
1992.000000	74.427228
1991.000000	74.528978
1990.000000	74.614733
1989.000000	74.669641
1988.000000	74.707521
1987.000000	74.746963
1986.000000	74.785463
1985.000000	74.813015
1984.000000	74.836579
1983.000000	74.872719
1982.000000	74.920397
1981.000000	74.966834
1980.000000	75.008887
1979.000000	75.050516
1978.000000	75.088486
1977.000000	75.113964
1976.000000	75.129619
1975.000000	75.146658
1974.000000	75.168417
1973.000000	75.190363
1972.000000	75.212480
1971.000000	75.235881
1970.000000	75.252656
1969.000000	75.256925
1968.000000	75.261623
1967.000000	75.283865
1966.000000	75.316566
1965.000000	75.337219
1964.000000	75.343514
1963.000000	75.355504
1962.000000	75.382710
1961.000000	75.412881
1960.000000	75.433830
1959.000000	75.445225
1958.000000	75.445683
1957.000000	75.430492
1956.000000	75.408758
1955.000000	75.399019
1954.000000	75.407684
1953.000000	75.425425
1952.000000	75.449172
1951.000000	75.484774
1950.000000	75.521343
1949.000000	75.538356
1948.000000	75.533165
1947.000000	75.514796
1946.000000	75.478634
1945.000000	75.417364
1944.000000	75.357703
1943.000000	75.348727
1942.000000	75.401043
1941.000000	75.470055
1940.000000	75.512455
1939.000000	75.526023
1938.000000	75.523260
1937.000000	75.500943
1936.000000	75.454254
1935.000000	75.396149
1934.000000	75.347303
1933.000000	75.316112
1932.000000	75.307122
1931.000000	75.327646
1930.000000	75.365720
1929.000000	75.401201
1928.000000	75.420152
1927.000000	75.416975
1926.000000	75.380343
1925.000000	75.305185
1924.000000	75.229923
1923.000000	75.202832
1922.000000	75.218875
1921.000000	75.230757
1920.000000	75.220792
1919.000000	75.225057
1918.000000	75.264421
1917.000000	75.293107
1916.000000	75.260536
1915.000000	75.178995
1914.000000	75.097187
1913.000000	75.040704
1912.000000	75.009484
1911.000000	75.003973
1910.000000	75.020276
1909.000000	75.042593
1908.000000	75.045369
1907.000000	75.018108
1906.000000	74.965142
1905.000000	74.892462
1904.000000	74.821568
1903.000000	74.777069
1902.000000	74.765481
1901.000000	74.780127
1900.000000	74.808799
1899.000000	74.837090
1898.000000	74.843147
1897.000000	74.806062
1896.000000	74.736108
1895.000000	74.663137
1894.000000	74.595735
1893.000000	74.520022
1892.000000	74.442192
1891.000000	74.404300
1890.000000	74.437444
1889.000000	74.512699
1888.000000	74.564938
1887.000000	74.555049
1886.000000	74.489327
1885.000000	74.394681
1884.000000	74.298330
1883.000000	74.218139
1882.000000	74.159360
1881.000000	74.125595
1880.000000	74.119034
1879.000000	74.132750
1878.000000	74.147276
1877.000000	74.134584
1876.000000	74.084879
1875.000000	74.016273
1874.000000	73.944165
1873.000000	73.867655
1872.000000	73.791391
1871.000000	73.740462
1870.000000	73.744674
1869.000000	73.799207
1868.000000	73.850664
1867.000000	73.841693
1866.000000	73.755761
1865.000000	73.617530
1864.000000	73.471258
1863.000000	73.354445
1862.000000	73.279913
1861.000000	73.244022
1860.000000	73.241449
1859.000000	73.260692
1858.000000	73.273537
1857.000000	73.248858
1856.000000	73.175164
1855.000000	73.066447
1854.000000	72.938609
1853.000000	72.811749
1852.000000	72.704807
1851.000000	72.626769
1850.000000	72.586783
1849.000000	72.584216
1848.000000	72.607304
1847.000000	72.632910
1846.000000	72.635779
1845.000000	72.610553
1844.000000	72.560650
1843.000000	72.458327
1842.000000	72.282853
1841.000000	72.084457
1840.000000	71.936797
1839.000000	71.870529
1838.000000	71.849323
1837.000000	71.809948
1836.000000	71.731685
1835.000000	71.629593
1834.000000	71.507723
1833.000000	71.362241
1832.000000	71.213596
1831.000000	71.123657
1830.000000	71.129113
1829.000000	71.155824
1828.000000	71.100446
1827.000000	70.953553
1826.000000	70.786348
1825.000000	70.653056
1824.000000	70.540116
1823.000000	70.412360
1822.000000	70.268922
1821.000000	70.138174
1820.000000	70.040394
1819.000000	69.976510
1818.000000	69.926380
1817.000000	69.859884
1816.000000	69.763686
1815.000000	69.629296
1814.000000	69.454483
1813.000000	69.257365
1812.000000	69.081657
1811.000000	68.971952
1810.000000	68.917302
1809.000000	68.873178
1808.000000	68.822105
1807.000000	68.764188
1806.000000	68.680189
1805.000000	68.538827
1804.000000	68.347640
1803.000000	68.149474
1802.000000	67.993463
1801.000000	67.903128
1800.000000	67.865721
1799.000000	67.850878
1798.000000	67.821877
1797.000000	67.765966
1796.000000	67.702822
1795.000000	67.639242
1794.000000	67.554247
1793.000000	67.436990
1792.000000	67.307799
1791.000000	67.183266
1790.000000	67.053958
1789.000000	66.917513
1788.000000	66.788303
1787.000000	66.675561
1786.000000	66.572160
1785.000000	66.458947
1784.000000	66.326069
1783.000000	66.161383
1782.000000	65.978522
1781.000000	65.819454
1780.000000	65.706674
1779.000000	65.626428
1778.000000	65.540038
1777.000000	65.450062
1776.000000	65.396097
1775.000000	65.381850
1774.000000	65.356816
1773.000000	65.274604
1772.000000	65.118888
1771.000000	64.891114
1770.000000	64.625053
1769.000000	64.381750
1768.000000	64.220101
1767.000000	64.130061
1766.000000	64.030651
1765.000000	63.863691
1764.000000	63.651926
1763.000000	63.460357
1762.000000	63.326039
1761.000000	63.204764
1760.000000	63.045660
1759.000000	62.868630
1758.000000	62.718724
1757.000000	62.626041
1756.000000	62.567286
1755.000000	62.491022
1754.000000	62.369039
1753.000000	62.199054
1752.000000	61.998962
1751.000000	61.805425
1750.000000	61.617429
1749.000000	61.414549
1748.000000	61.225749
1747.000000	61.065260
1746.000000	60.900810
1745.000000	60.701903
1744.000000	60.493665
1743.000000	60.324795
1742.000000	60.183701
1741.000000	60.017885
1740.000000	59.835346
1739.000000	59.685343
1738.000000	59.570721
1737.000000	59.475818
1736.000000	59.382816
1735.000000	59.291103
1734.000000	59.166996
1733.000000	58.849138
1732.000000	58.297283
1731.000000	57.720176
1730.000000	57.290178
1729.000000	57.002290
1728.000000	56.769796
1727.000000	56.529574
1726.000000	56.264315
1725.000000	55.961354
1724.000000	55.630636
1723.000000	55.314790
1722.000000	55.032986
1721.000000	54.788897
1720.000000	54.597700
1719.000000	54.477100
1718.000000	54.371534
1717.000000	54.124932
1716.000000	53.672811
1715.000000	53.134131
1714.000000	52.630125
1713.000000	52.171960
1712.000000	51.735449
1711.000000	51.326820
1710.000000	50.957320
1709.000000	50.612836
1708.000000	50.266820
1707.000000	49.919748
1706.000000	49.590591
1705.000000	49.289688
1704.000000	49.030408
1703.000000	48.815773
1702.000000	48.577455
1701.000000	48.285743
1700.000000	48.004576
1699.000000	47.708148
1698.000000	47.343592
1697.000000	46.923653
1696.000000	46.463300
1695.000000	45.949083
1694.000000	45.349912
1693.000000	44.719281
1692.000000	44.157628
1691.000000	43.689180
1690.000000	43.285171
1689.000000	42.953091
1688.000000	42.731782
1687.000000	42.605627
1686.000000	42.440744
1685.000000	42.099572
1684.000000	41.592179
1683.000000	41.002187
1682.000000	40.394134
1681.000000	39.831817
1680.000000	39.364741
1679.000000	38.997740
1678.000000	38.689731
1677.000000	38.373423
1676.000000	38.025546
1675.000000	37.673134
1674.000000	37.315591
1673.000000	36.923981
1672.000000	36.514729
1671.000000	36.128214
1670.000000	35.763796
1669.000000	35.389024
1668.000000	34.995683
1667.000000	34.616591
1666.000000	34.273206
1665.000000	33.941185
1664.000000	33.600460
1663.000000	33.262729
1662.000000	32.925617
1661.000000	32.566419
1660.000000	32.188876
1659.000000	31.835036
1658.000000	31.544947
1657.000000	31.344464
1656.000000	31.238696
1655.000000	31.184708
1654.000000	31.104542
1653.000000	30.902507
1652.000000	30.492127
1651.000000	29.922588
1650.000000	29.377689
1649.000000	28.966564
1648.000000	28.668091
1647.000000	28.428155
1646.000000	28.188964
1645.000000	27.889013
1644.000000	27.532994
1643.000000	27.189224
1642.000000	26.893608
1641.000000	26.631455
1640.000000	26.391130
1639.000000	26.195194
1638.000000	26.043863
1637.000000	25.889206
1636.000000	25.689851
1635.000000	25.452274
1634.000000	25.182636
1633.000000	24.883167
1632.000000	24.596268
1631.000000	24.355311
1630.000000	24.151257
1629.000000	23.958392
1628.000000	23.772985
1627.000000	23.610272
1626.000000	23.469172
1625.000000	23.327576
1624.000000	23.179490
1623.000000	23.043277
1622.000000	22.921306
1621.000000	22.804531
1620.000000	22.711585
1619.000000	22.670892
1618.000000	22.667593
1617.000000	22.643545
1616.000000	22.550880
1615.000000	22.402294
1614.000000	22.252973
1613.000000	22.140508
1612.000000	22.069927
1611.000000	22.032723
1610.000000	22.016109
1609.000000	22.003002
1608.000000	21.987775
1607.000000	21.981405
1606.000000	21.990827
1605.000000	22.007974
1604.000000	22.025589
1603.000000	22.052733
1602.000000	22.093952
1601.000000	22.134369
1600.000000	22.163656
1599.000000	22.191580
1598.000000	22.228451
1597.000000	22.268314
1596.000000	22.306603
1595.000000	22.353266
1594.000000	22.412649
1593.000000	22.470923
1592.000000	22.517561
1591.000000	22.560468
1590.000000	22.606921
1589.000000	22.648813
1588.000000	22.679321
1587.000000	22.709510
1586.000000	22.749587
1585.000000	22.794917
1584.000000	22.837665
1583.000000	22.881663
1582.000000	22.932779
1581.000000	22.986125
1580.000000	23.045348
1579.000000	23.134067
1578.000000	23.261317
1577.000000	23.387772
1576.000000	23.452540
1575.000000	23.425725
1574.000000	23.340673
1573.000000	23.265517
1572.000000	23.238821
1571.000000	23.265825
1570.000000	23.334804
1569.000000	23.406140
1568.000000	23.435273
1567.000000	23.431960
1566.000000	23.444907
1565.000000	23.503477
1564.000000	23.611390
1563.000000	23.768255
1562.000000	23.972384
1561.000000	24.183117
1560.000000	24.405921
1559.000000	24.687275
1558.000000	24.927384
1557.000000	25.003142
1556.000000	24.993841
1555.000000	25.044138
1554.000000	25.190962
1553.000000	25.369498
1552.000000	25.526474
1551.000000	25.703204
1550.000000	25.952192
1549.000000	26.249568
1548.000000	26.531732
1547.000000	26.786712
1546.000000	27.066060
1545.000000	27.417472
1544.000000	27.836445
1543.000000	28.305801
1542.000000	28.836411
1541.000000	29.440950
1540.000000	30.065829
1539.000000	30.565885
1538.000000	30.832882
1537.000000	30.940439
1536.000000	31.067082
1535.000000	31.339754
1534.000000	31.807753
1533.000000	32.397178
1532.000000	32.951793
1531.000000	33.418813
1530.000000	33.854280
1529.000000	34.314608
1528.000000	34.826136
1527.000000	35.394583
1526.000000	36.004951
1525.000000	36.615413
1524.000000	37.208753
1523.000000	37.839991
1522.000000	38.572575
1521.000000	39.328660
1520.000000	39.914436
1519.000000	40.301701
1518.000000	40.670848
1517.000000	41.156271
1516.000000	41.724724
1515.000000	42.273236
1514.000000	42.778124
1513.000000	43.279167
1512.000000	43.800546
1511.000000	44.340149
1510.000000	44.906547
1509.000000	45.533640
1508.000000	46.286473
1507.000000	47.189632
1506.000000	48.053798
1505.000000	48.565162
1504.000000	48.713953
1503.000000	48.804225
1502.000000	49.051759
1501.000000	49.467045
1500.000000	49.980026
1499.000000	50.548161
1498.000000	51.148237
1497.000000	51.708930
1496.000000	52.146776
1495.000000	52.436124
1494.000000	52.622059
1493.000000	52.784261
1492.000000	52.996149
1491.000000	53.320299
1490.000000	53.752885
1489.000000	54.183616
1488.000000	54.526560
1487.000000	54.802386
1486.000000	55.035196
1485.000000	55.223620
1484.000000	55.378366
1483.000000	55.540772
1482.000000	55.745517
1481.000000	55.961510
1480.000000	56.132414
1479.000000	56.235608
1478.000000	56.282561
1477.000000	56.291034
1476.000000	56.289049
1475.000000	56.271065
1474.000000	56.159684
1473.000000	55.859490
1472.000000	55.344462
1471.000000	54.644664
1470.000000	53.762796
1469.000000	52.687107
1468.000000	51.413289
1467.000000	49.885293
1466.000000	47.958731
1465.000000	45.574384
1464.000000	42.963084
1463.000000	40.483679
1462.000000	38.304368
1461.000000	36.441516
1460.000000	34.937909
1459.000000	33.861010
1458.000000	33.259033
1457.000000	33.181457
1456.000000	33.584940
1455.000000	34.266582
1454.000000	35.101634
1453.000000	36.089879
1452.000000	37.172495
1451.000000	38.184004
1450.000000	38.924150
1449.000000	39.251841
1448.000000	39.129899
1447.000000	38.587911
1446.000000	37.653749
1445.000000	36.336847
1444.000000	34.666670
1443.000000	32.698410
1442.000000	30.467041
1441.000000	28.029456
1440.000000	25.494542
1439.000000	22.874230
1438.000000	19.956825
1437.000000	16.606521
1436.000000	13.244658
1435.000000	10.489459
1434.000000	8.409540
1433.000000	6.721750
1432.000000	5.304319
1431.000000	4.199554
1430.000000	3.390510
1429.000000	2.795028
1428.000000	2.418515
1427.000000	2.287375
1426.000000	2.329709
1425.000000	2.473643
1424.000000	2.760883
1423.000000	3.235806
1422.000000	3.845467
1421.000000	4.582025
1420.000000	5.600405
1419.000000	7.006147
1418.000000	8.615793
1417.000000	10.229039
1416.000000	11.911219
1415.000000	13.784437
1414.000000	15.830222
1413.000000	17.986991
1412.000000	20.260539
1411.000000	22.645736
1410.000000	25.047027
1409.000000	27.370580
1408.000000	29.614993
1407.000000	31.813208
1406.000000	33.974459
1405.000000	36.098288
1404.000000	38.145255
1403.000000	40.024084
1402.000000	41.695934
1401.000000	43.254644
1400.000000	44.829224
1399.000000	46.410349
1398.000000	47.869819
1397.000000	49.167372
1396.000000	50.402934
1395.000000	51.650230
1394.000000	52.859848
1393.000000	53.941075
1392.000000	54.870148
1391.000000	55.689233
1390.000000	56.448593
1389.000000	57.176467
1388.000000	57.861720
1387.000000	58.441273
1386.000000	58.843392
1385.000000	59.058217
1384.000000	59.117905
1383.000000	59.046247
1382.000000	58.857931
1381.000000	58.568774
1380.000000	58.187370
1379.000000	57.709449
1378.000000	57.132239
1377.000000	56.445648
1376.000000	55.605690
1375.000000	54.555561
1374.000000	53.290840
1373.000000	51.863201
1372.000000	50.320933
1371.000000	48.699307
1370.000000	47.081113
1369.000000	45.622373
1368.000000	44.491204
1367.000000	43.790067
1366.000000	43.536704
1365.000000	43.700408
1364.000000	44.237329
1363.000000	45.087931
1362.000000	46.150451
1361.000000	47.293258
1360.000000	48.406381
1359.000000	49.430059
1358.000000	50.344110
1357.000000	51.136071
1356.000000	51.778747
1355.000000	52.238506
1354.000000	52.493867
1353.000000	52.525017
1352.000000	52.304708
1351.000000	51.796611
1350.000000	50.966856
1349.000000	49.790485
1348.000000	48.234520
1347.000000	46.271285
1346.000000	43.896954
1345.000000	41.137604
1344.000000	38.057562
1343.000000	34.752927
1342.000000	31.333277
1341.000000	27.924700
1340.000000	24.709074
1339.000000	21.925729
1338.000000	19.768986
1337.000000	18.277919
1336.000000	17.348259
1335.000000	16.804061
1334.000000	16.430061
1333.000000	15.999039
1332.000000	15.321256
1331.000000	14.288235
1330.000000	12.884904
1329.000000	11.174552
1328.000000	9.283128
1327.000000	7.376053
1326.000000	5.611072
1325.000000	4.096605
1324.000000	2.888807
1323.000000	2.003064
1322.000000	1.407350
1321.000000	1.030548
1320.000000	0.803960
1319.000000	0.680343
1318.000000	0.620231
1317.000000	0.585721
1316.000000	0.555836
1315.000000	0.532333
1314.000000	0.516501
1313.000000	0.500242
1312.000000	0.483943
1311.000000	0.480607
1310.000000	0.497312
1309.000000	0.529787
1308.000000	0.582121
1307.000000	0.672686
1306.000000	0.814453
1305.000000	1.009983
1304.000000	1.268416
1303.000000	1.608219
1302.000000	2.038087
1301.000000	2.551048
1300.000000	3.143853
1299.000000	3.820159
1298.000000	4.574113
1297.000000	5.390236
1296.000000	6.257688
1295.000000	7.172054
1294.000000	8.121057
1293.000000	9.084069
1292.000000	10.045471
1291.000000	10.993749
1290.000000	11.908132
1289.000000	12.758525
1288.000000	13.517235
1287.000000	14.161843
1286.000000	14.675684
1285.000000	15.061071
1284.000000	15.360282
1283.000000	15.660207
1282.000000	16.071473
1281.000000	16.695251
1280.000000	17.595986
1279.000000	18.781093
1278.000000	20.197279
1277.000000	21.759174
1276.000000	23.383045
1275.000000	25.005268
1274.000000	26.587468
1273.000000	28.113549
1272.000000	29.580003
1271.000000	30.983332
1270.000000	32.316915
1269.000000	33.575549
1268.000000	34.757552
1267.000000	35.862123
1266.000000	36.894837
1265.000000	37.869797
1264.000000	38.801261
1263.000000	39.701330
1262.000000	40.582486
1261.000000	41.455638
1260.000000	42.318189
1259.000000	43.151471
1258.000000	43.938683
1257.000000	44.675014
1256.000000	45.361628
1255.000000	46.003185
1254.000000	46.614545
1253.000000	47.219031
1252.000000	47.832107
1251.000000	48.454913
1250.000000	49.083044
1249.000000	49.708390
1248.000000	50.312274
1247.000000	50.871160
1246.000000	51.376384
1245.000000	51.838856
1244.000000	52.273586
1243.000000	52.693406
1242.000000	53.116082
1241.000000	53.560023
1240.000000	54.027334
1239.000000	54.501298
1238.000000	54.963957
1237.000000	55.403981
1236.000000	55.809318
1235.000000	56.171147
1234.000000	56.498862
1233.000000	56.817168
1232.000000	57.144505
1231.000000	57.486017
1230.000000	57.844814
1229.000000	58.221525
1228.000000	58.602336
1227.000000	58.964752
1226.000000	59.299320
1225.000000	59.613558
1224.000000	59.915464
1223.000000	60.210479
1222.000000	60.513488
1221.000000	60.843067
1220.000000	61.199421
1219.000000	61.562171
1218.000000	61.911540
1217.000000	62.236458
1216.000000	62.524501
1215.000000	62.766961
1214.000000	62.977695
1213.000000	63.188918
1212.000000	63.424649
1211.000000	63.691106
1210.000000	63.989174
1209.000000	64.314153
1208.000000	64.641620
1207.000000	64.934713
1206.000000	65.171784
1205.000000	65.355459
1204.000000	65.496972
1203.000000	65.612244
1202.000000	65.732175
1201.000000	65.891505
1200.000000	66.100887
1199.000000	66.342035
1198.000000	66.587990
1197.000000	66.811383
1196.000000	66.975612
1195.000000	67.046139
1194.000000	67.016665
1193.000000	66.908746
1192.000000	66.747216
1191.000000	66.550213
1190.000000	66.341718
1189.000000	66.149701
1188.000000	65.988631
1187.000000	65.861324
1186.000000	65.778549
1185.000000	65.758418
1184.000000	65.805864
1183.000000	65.910964
1182.000000	66.066546
1181.000000	66.276880
1180.000000	66.545439
1179.000000	66.868164
1178.000000	67.238171
1177.000000	67.636412
1176.000000	68.021855
1175.000000	68.350475
1174.000000	68.608548
1173.000000	68.814995
1172.000000	68.995491
1171.000000	69.172255
1170.000000	69.371581
1169.000000	69.613398
1168.000000	69.887104
1167.000000	70.157158
1166.000000	70.393505
1165.000000	70.582800
1164.000000	70.718024
1163.000000	70.803211
1162.000000	70.869601
1161.000000	70.962770
1160.000000	71.108757
1159.000000	71.306261
1158.000000	71.543908
1157.000000	71.802413
1156.000000	72.042738
1155.000000	72.220378
1154.000000	72.320023
1153.000000	72.360377
1152.000000	72.369173
1151.000000	72.374739
1150.000000	72.415118
1149.000000	72.523909
1148.000000	72.698792
1147.000000	72.902066
1146.000000	73.092572
1145.000000	73.240755
1144.000000	73.321926
1143.000000	73.325902
1142.000000	73.278900
1141.000000	73.232914
1140.000000	73.227898
1139.000000	73.278036
1138.000000	73.384725
1137.000000	73.536081
1136.000000	73.693729
1135.000000	73.806974
1134.000000	73.849678
1133.000000	73.829975
1132.000000	73.769804
1131.000000	73.697811
1130.000000	73.656500
1129.000000	73.684999
1128.000000	73.786257
1127.000000	73.926319
1126.000000	74.064947
1125.000000	74.170336
1124.000000	74.213674
1123.000000	74.181094
1122.000000	74.097357
1121.000000	74.015424
1120.000000	73.978436
1119.000000	74.004758
1118.000000	74.099052
1117.000000	74.248989
1116.000000	74.410595
1115.000000	74.523969
1114.000000	74.553884
1113.000000	74.503314
1112.000000	74.394698
1111.000000	74.262709
1110.000000	74.159931
1109.000000	74.136667
1108.000000	74.204534
1107.000000	74.332926
1106.000000	74.477425
1105.000000	74.593555
1104.000000	74.633604
1103.000000	74.564767
1102.000000	74.399817
1101.000000	74.190261
1100.000000	73.988603
1099.000000	73.829624
1098.000000	73.737467
1097.000000	73.715917
1096.000000	73.728997
1095.000000	73.714048
1094.000000	73.621772
1093.000000	73.433228
1092.000000	73.145887
1091.000000	72.773944
1090.000000	72.357859
1089.000000	71.944047
1088.000000	71.549015
1087.000000	71.151166
1086.000000	70.715819
1085.000000	70.204875
1084.000000	69.568248
1083.000000	68.761360
1082.000000	67.768767
1081.000000	66.604509
1080.000000	65.286165
1079.000000	63.817938
1078.000000	62.199491
1077.000000	60.411096
1076.000000	58.408198
1075.000000	56.146640
1074.000000	53.612550
1073.000000	50.838156
1072.000000	47.888474
1071.000000	44.856112
1070.000000	41.852139
1069.000000	38.982281
1068.000000	36.326433
1067.000000	33.938821
1066.000000	31.852574
1065.000000	30.080000
1064.000000	28.632715
1063.000000	27.520194
1062.000000	26.753962
1061.000000	26.349103
1060.000000	26.314725
1059.000000	26.661663
1058.000000	27.381939
1057.000000	28.450051
1056.000000	29.830560
1055.000000	31.467832
1054.000000	33.295823
1053.000000	35.241364
1052.000000	37.235068
1051.000000	39.220852
1050.000000	41.160905
1049.000000	43.039518
1048.000000	44.850511
1047.000000	46.584589
1046.000000	48.227848
1045.000000	49.767360
1044.000000	51.186196
1043.000000	52.470723
1042.000000	53.628590
1041.000000	54.691065
1040.000000	55.700007
1039.000000	56.692830
1038.000000	57.700205
1037.000000	58.737404
1036.000000	59.787641
1035.000000	60.809578
1034.000000	61.762468
1033.000000	62.622594
1032.000000	63.381827
1031.000000	64.049720
1030.000000	64.664200
1029.000000	65.276767
1028.000000	65.919461
1027.000000	66.592752
1026.000000	67.276564
1025.000000	67.938946
1024.000000	68.533333
1023.000000	69.015811
1022.000000	69.378701
1021.000000	69.653584
1020.000000	69.886560
1019.000000	70.122063
1018.000000	70.401636
1017.000000	70.750238
1016.000000	71.152864
1015.000000	71.561949
1014.000000	71.929558
1013.000000	72.224142
1012.000000	72.427671
1011.000000	72.543602
1010.000000	72.611550
1009.000000	72.690877
1008.000000	72.821887
1007.000000	73.012960
1006.000000	73.254247
1005.000000	73.522121
1004.000000	73.773230
1003.000000	73.961172
1002.000000	74.069788
1001.000000	74.118537
1000.000000	74.139924
999.000000	74.167455
998.000000	74.236959
997.000000	74.371840
996.000000	74.559460
995.000000	74.757137
994.000000	74.923986
993.000000	75.035647
992.000000	75.078409
991.000000	75.056094
990.000000	75.005263
989.000000	74.980879
988.000000	75.019512
987.000000	75.126503
986.000000	75.288764
985.000000	75.478620
984.000000	75.648549
983.000000	75.748824
982.000000	75.760838
981.000000	75.703425
980.000000	75.611141
979.000000	75.523324
978.000000	75.485700
977.000000	75.532779
976.000000	75.659677
975.000000	75.824275
974.000000	75.978817
973.000000	76.086559
972.000000	76.118795
971.000000	76.064618
970.000000	75.949285
969.000000	75.823306
968.000000	75.729046
967.000000	75.687965
966.000000	75.709384
965.000000	75.786943
964.000000	75.886814
963.000000	75.961918
962.000000	75.984675
961.000000	75.954960
960.000000	75.881909
959.000000	75.780063
958.000000	75.679520
957.000000	75.613874
956.000000	75.591696
955.000000	75.594144
954.000000	75.599577
953.000000	75.593078
952.000000	75.557953
951.000000	75.482512
950.000000	75.379161
949.000000	75.277824
948.000000	75.198977
947.000000	75.146060
946.000000	75.118526
945.000000	75.109520
944.000000	75.092895
943.000000	75.034621
942.000000	74.922451
941.000000	74.770298
940.000000	74.597175
939.000000	74.422106
938.000000	74.274358
937.000000	74.182558
936.000000	74.147646
935.000000	74.141599
934.000000	74.131693
933.000000	74.091597
932.000000	73.995118
931.000000	73.825442
930.000000	73.595269
929.000000	73.341937
928.000000	73.100834
927.000000	72.895114
926.000000	72.742869
925.000000	72.648782
924.000000	72.587368
923.000000	72.513446
922.000000	72.392892
921.000000	72.211631
920.000000	71.962572
919.000000	71.648294
918.000000	71.296601
917.000000	70.949915
916.000000	70.635702
915.000000	70.357577
914.000000	70.109045
913.000000	69.876782
912.000000	69.631403
911.000000	69.338135
910.000000	68.980674
909.000000	68.563497
908.000000	68.095515
907.000000	67.588059
906.000000	67.065338
905.000000	66.553476
904.000000	66.056168
903.000000	65.556235
902.000000	65.036150
901.000000	64.483598
900.000000	63.881395
899.000000	63.212878
898.000000	62.481483
897.000000	61.706863
896.000000	60.904327
895.000000	60.079039
894.000000	59.234212
893.000000	58.369836
892.000000	57.470116
891.000000	56.509414
890.000000	55.471709
889.000000	54.354562
888.000000	53.161848
887.000000	51.902444
886.000000	50.594585
885.000000	49.257083
884.000000	47.893344
883.000000	46.494108
882.000000	45.047990
881.000000	43.544097
880.000000	41.971068
879.000000	40.324647
878.000000	38.618621
877.000000	36.880622
876.000000	35.140346
875.000000	33.423292
874.000000	31.749429
873.000000	30.129846
872.000000	28.566414
871.000000	27.057280
870.000000	25.600762
869.000000	24.200344
868.000000	22.865694
867.000000	21.611739
866.000000	20.453670
865.000000	19.399178
864.000000	18.450709
863.000000	17.603781
862.000000	16.845629
861.000000	16.161113
860.000000	15.538318
859.000000	14.972782
858.000000	14.462748
857.000000	14.008953
856.000000	13.619197
855.000000	13.301679
854.000000	13.058047
853.000000	12.882455
852.000000	12.767432
851.000000	12.706657
850.000000	12.690049
849.000000	12.708710
848.000000	12.763047
847.000000	12.862029
846.000000	13.017094
845.000000	13.237525
844.000000	13.534415
843.000000	13.918813
842.000000	14.392995
841.000000	14.949957
840.000000	15.577491
839.000000	16.264257
838.000000	17.000345
837.000000	17.777201
836.000000	18.591221
835.000000	19.441950
834.000000	20.321547
833.000000	21.195954
832.000000	21.988778
831.000000	22.546403
830.000000	22.610748
829.000000	21.858279
828.000000	20.109050
827.000000	17.630863
826.000000	15.234553
825.000000	13.930720
824.000000	14.350307
823.000000	16.412810
822.000000	19.502468
821.000000	22.930062
820.000000	26.227699
819.000000	29.170950
818.000000	31.699751
817.000000	33.851263
816.000000	35.713012
815.000000	37.370969
814.000000	38.893138
813.000000	40.332197
812.000000	41.720710
811.000000	43.052362
810.000000	44.294539
809.000000	45.419850
808.000000	46.417424
807.000000	47.295840
806.000000	48.091038
805.000000	48.866102
804.000000	49.681655
803.000000	50.564820
802.000000	51.511039
801.000000	52.495190
800.000000	53.468932
799.000000	54.366742
798.000000	55.139845
797.000000	55.785986
796.000000	56.341418
795.000000	56.860451
794.000000	57.407412
793.000000	58.040026
792.000000	58.776043
791.000000	59.578734
790.000000	60.382112
789.000000	61.122003
788.000000	61.745146
787.000000	62.222484
786.000000	62.576088
785.000000	62.878854
784.000000	63.211985
783.000000	63.626224
782.000000	64.137907
781.000000	64.732206
780.000000	65.355957
779.000000	65.930158
778.000000	66.392914
777.000000	66.730605
776.000000	66.969845
775.000000	67.160554
774.000000	67.369899
773.000000	67.661573
772.000000	68.057098
771.000000	68.522204
770.000000	68.994451
769.000000	69.413291
768.000000	69.727917
767.000000	69.912259
766.000000	69.992918
765.000000	70.045588
764.000000	70.149343
763.000000	70.349732
762.000000	70.656714
761.000000	71.046393
760.000000	71.452278
759.000000	71.782960
758.000000	71.973664
757.000000	72.019739
756.000000	71.963764
755.000000	71.874113
754.000000	71.836150
753.000000	71.926759
752.000000	72.169563
751.000000	72.520670
750.000000	72.900889
749.000000	73.229393
748.000000	73.433942
747.000000	73.471883
746.000000	73.366293
745.000000	73.204853
744.000000	73.086996
743.000000	73.078581
742.000000	73.207001
741.000000	73.462085
740.000000	73.783435
739.000000	74.073747
738.000000	74.251485
737.000000	74.288877
736.000000	74.204218
735.000000	74.046748
734.000000	73.894840
733.000000	73.832945
732.000000	73.902770
731.000000	74.082796
730.000000	74.317366
729.000000	74.546866
728.000000	74.712846
727.000000	74.775108
726.000000	74.747328
725.000000	74.698031
724.000000	74.701831
723.000000	74.802052
722.000000	75.015014
721.000000	75.333265
720.000000	75.706708
719.000000	76.050931
718.000000	76.300752
717.000000	76.446524
716.000000	76.517837
715.000000	76.562511
714.000000	76.647376
713.000000	76.839571
712.000000	77.158549
711.000000	77.558275
710.000000	77.965160
709.000000	78.313329
708.000000	78.546107
707.000000	78.628628
706.000000	78.584768
705.000000	78.498773
704.000000	78.462434
703.000000	78.530582
702.000000	78.724187
701.000000	79.035560
700.000000	79.408677
699.000000	79.747758
698.000000	79.973489
697.000000	80.062146
696.000000	80.030400
695.000000	79.917631
694.000000	79.795749
693.000000	79.753668
692.000000	79.837844
691.000000	80.026713
690.000000	80.271810
689.000000	80.532754
688.000000	80.760782
687.000000	80.896306
686.000000	80.922024
685.000000	80.887045
684.000000	80.853868
683.000000	80.852080
682.000000	80.897888
681.000000	81.010249
680.000000	81.174948
679.000000	81.331826
678.000000	81.434038
677.000000	81.482590
676.000000	81.491812
675.000000	81.477417
674.000000	81.477233
673.000000	81.542723
672.000000	81.698833
671.000000	81.937183
670.000000	82.243957
669.000000	82.586665
668.000000	82.829944
667.000000	82.790037
666.000000	82.513897
665.000000	82.225089
664.000000	82.056209
663.000000	82.031882
662.000000	82.130761
661.000000	82.311676
660.000000	82.523062
659.000000	82.709730
658.000000	82.831551
657.000000	82.872820
656.000000	82.836569
655.000000	82.753756
654.000000	82.676922
653.000000	82.647922
652.000000	82.681361
651.000000	82.772106
650.000000	82.903287
649.000000	83.044699
648.000000	83.158986
647.000000	83.221740
646.000000	83.235605
645.000000	83.222191
644.000000	83.201640
643.000000	83.186058
642.000000	83.186477
641.000000	83.209423
640.000000	83.246244
639.000000	83.279030
638.000000	83.296890
637.000000	83.300747
636.000000	83.297352
635.000000	83.298260
634.000000	83.320653
633.000000	83.374366
632.000000	83.447417
631.000000	83.515732
630.000000	83.564547
629.000000	83.588567
628.000000	83.579096
627.000000	83.531149
626.000000	83.461952
625.000000	83.403118
624.000000	83.371774
623.000000	83.365371
622.000000	83.381992
621.000000	83.423189
620.000000	83.475982
619.000000	83.515195
618.000000	83.527953
617.000000	83.518297
616.000000	83.485821
615.000000	83.422078
614.000000	83.328810
613.000000	83.218172
612.000000	83.092203
611.000000	82.943884
610.000000	82.775643
609.000000	82.590759
608.000000	82.365796
607.000000	82.047467
606.000000	81.579177
605.000000	80.898275
604.000000	79.898341
603.000000	78.421175
602.000000	76.263213
601.000000	73.213355
600.000000	69.164626
599.000000	64.317679
598.000000	59.301497
597.000000	55.022428
596.000000	52.318837
595.000000	51.638527
594.000000	52.889698
593.000000	55.538966
592.000000	58.910475
591.000000	62.409048
590.000000	65.624692
589.000000	68.386860
588.000000	70.701311
587.000000	72.640775
586.000000	74.278994
585.000000	75.682016
584.000000	76.891476
583.000000	77.923801
582.000000	78.789900
581.000000	79.510142
580.000000	80.101969
579.000000	80.567644
578.000000	80.926228
577.000000	81.224052
576.000000	81.498512
575.000000	81.753968
574.000000	81.983115
573.000000	82.192717
572.000000	82.387721
571.000000	82.558286
570.000000	82.702579
569.000000	82.837649
568.000000	82.972125
567.000000	83.092204
566.000000	83.186655
565.000000	83.261847
564.000000	83.316483
563.000000	83.333610
562.000000	83.313657
561.000000	83.289363
560.000000	83.294595
559.000000	83.342214
558.000000	83.439554
557.000000	83.592694
556.000000	83.780052
555.000000	83.947610
554.000000	84.049600
553.000000	84.074443
552.000000	84.025649
551.000000	83.913288
550.000000	83.778727
549.000000	83.688508
548.000000	83.684415
547.000000	83.763232
546.000000	83.906812
545.000000	84.097496
544.000000	84.294287
543.000000	84.433325
542.000000	84.474248
541.000000	84.425308
540.000000	84.313349
539.000000	84.164462
538.000000	84.022259
537.000000	83.943816
536.000000	83.954879
535.000000	84.035122
534.000000	84.153917
533.000000	84.292166
532.000000	84.420252
531.000000	84.491561
530.000000	84.483946
529.000000	84.417033
528.000000	84.314627
527.000000	84.186481
526.000000	84.057049
525.000000	83.963281
524.000000	83.904287
523.000000	83.832584
522.000000	83.710106
521.000000	83.535877
520.000000	83.312004
519.000000	83.023971
518.000000	82.671892
517.000000	82.289649
516.000000	81.908815
515.000000	81.534875
514.000000	81.169610
513.000000	80.822081
512.000000	80.483193
511.000000	80.120908
510.000000	79.714922
509.000000	79.265938
508.000000	78.756471
507.000000	78.143840
506.000000	77.402978
505.000000	76.538064
504.000000	75.554466
503.000000	74.479074
502.000000	73.421042
501.000000	72.542706
500.000000	71.945545
499.000000	71.632250
498.000000	71.572877
497.000000	71.731205
496.000000	72.040785
495.000000	72.416146
494.000000	72.800548
493.000000	73.184655
492.000000	73.562853
491.000000	73.914976
490.000000	74.237509
489.000000	74.557316
488.000000	74.902381
487.000000	75.288269
486.000000	75.741016
485.000000	76.292412
484.000000	76.931494
483.000000	77.596681
482.000000	78.235470
481.000000	78.835494
480.000000	79.385301
479.000000	79.855323
478.000000	80.234878
477.000000	80.547826
476.000000	80.809410
475.000000	80.999842
474.000000	81.109168
473.000000	81.160448
472.000000	81.165914
471.000000	81.108939
470.000000	80.993123
469.000000	80.873072
468.000000	80.808068
467.000000	80.816160
466.000000	80.881401
465.000000	80.980170
464.000000	81.076162
463.000000	81.118968
462.000000	81.090464
461.000000	81.022792
460.000000	80.942007
459.000000	80.842745
458.000000	80.748704
457.000000	80.729822
456.000000	80.805157
455.000000	80.914101
454.000000	81.007853
453.000000	81.080290
452.000000	81.103740
451.000000	80.999045
450.000000	80.709063
449.000000	80.263353
448.000000	79.734234
447.000000	79.168170
446.000000	78.580722
445.000000	77.968507
444.000000	77.283366
443.000000	76.423755
442.000000	75.308092
441.000000	73.957000
440.000000	72.472628
439.000000	70.986437
438.000000	69.660004
437.000000	68.707110
436.000000	68.325969
435.000000	68.577491
434.000000	69.352234
433.000000	70.476371
432.000000	71.802189
431.000000	73.178385
430.000000	74.478866
429.000000	75.683248
428.000000	76.824986
427.000000	77.890632
426.000000	78.850377
425.000000	79.730087
424.000000	80.549294
423.000000	81.254008
422.000000	81.789565
421.000000	82.169768
420.000000	82.414862
419.000000	82.569792
418.000000	82.767855
417.000000	83.110125
416.000000	83.554946
415.000000	83.964587
414.000000	84.216566
413.000000	84.318162
412.000000	84.318546
411.000000	84.185784
410.000000	83.934899
409.000000	83.737730
408.000000	83.736749
407.000000	83.868874
406.000000	84.088798
405.000000	84.406770
404.000000	84.763929
403.000000	84.914332
402.000000	84.668694
401.000000	84.117438
400.000000	83.437837
