PE IR       SUBTECH     SPECTRUM    ASCII       PEDS        4.00        
   -1
23ms226_nitro.asc
24/09/09
15:52:51.00
24/09/09
15:52:51.00
Administrator
Sample 1136 By Administrator Date Monday, September 09 2024
400.000000
#HDR
-1
-1
#GR
cm-1
%T
1.0
0.0
4000.000000
-1.000000
3601
8
81.045953
0.693865
#DATA
4000.000000	34.690004
3999.000000	34.731681
3998.000000	34.774137
3997.000000	34.817178
3996.000000	34.860345
3995.000000	34.902590
3994.000000	34.942786
3993.000000	34.980777
3992.000000	35.017742
3991.000000	35.055404
3990.000000	35.094829
3989.000000	35.136030
3988.000000	35.178337
3987.000000	35.220821
3986.000000	35.262549
3985.000000	35.302867
3984.000000	35.341680
3983.000000	35.379355
3982.000000	35.416341
3981.000000	35.452915
3980.000000	35.489302
3979.000000	35.525932
3978.000000	35.563319
3977.000000	35.601581
3976.000000	35.640194
3975.000000	35.678350
3974.000000	35.715457
3973.000000	35.751348
3972.000000	35.786298
3971.000000	35.821008
3970.000000	35.856307
3969.000000	35.892723
3968.000000	35.930186
3967.000000	35.967885
3966.000000	36.004493
3965.000000	36.038958
3964.000000	36.071388
3963.000000	36.103017
3962.000000	36.135284
3961.000000	36.168911
3960.000000	36.204026
3959.000000	36.240762
3958.000000	36.278971
3957.000000	36.317804
3956.000000	36.356201
3955.000000	36.393533
3954.000000	36.429594
3953.000000	36.464244
3952.000000	36.497630
3951.000000	36.530499
3950.000000	36.564116
3949.000000	36.599514
3948.000000	36.636518
3947.000000	36.673642
3946.000000	36.709633
3945.000000	36.745034
3944.000000	36.781389
3943.000000	36.819419
3942.000000	36.858682
3941.000000	36.898912
3940.000000	36.940666
3939.000000	36.983919
3938.000000	37.026601
3937.000000	37.066039
3936.000000	37.101523
3935.000000	37.134422
3934.000000	37.166285
3933.000000	37.197746
3932.000000	37.230013
3931.000000	37.265442
3930.000000	37.305406
3929.000000	37.348100
3928.000000	37.389577
3927.000000	37.427790
3926.000000	37.464032
3925.000000	37.499872
3924.000000	37.534970
3923.000000	37.569265
3922.000000	37.604561
3921.000000	37.641648
3920.000000	37.678964
3919.000000	37.715835
3918.000000	37.754053
3917.000000	37.794671
3916.000000	37.835724
3915.000000	37.875074
3914.000000	37.913448
3913.000000	37.952657
3912.000000	37.992833
3911.000000	38.033631
3910.000000	38.075439
3909.000000	38.117783
3908.000000	38.159008
3907.000000	38.197377
3906.000000	38.232449
3905.000000	38.263955
3904.000000	38.291120
3903.000000	38.313865
3902.000000	38.335581
3901.000000	38.361839
3900.000000	38.395465
3899.000000	38.433964
3898.000000	38.473371
3897.000000	38.512988
3896.000000	38.553424
3895.000000	38.594006
3894.000000	38.634327
3893.000000	38.675979
3892.000000	38.720433
3891.000000	38.765960
3890.000000	38.808080
3889.000000	38.845535
3888.000000	38.882430
3887.000000	38.919621
3886.000000	38.953178
3885.000000	38.979361
3884.000000	38.999040
3883.000000	39.019414
3882.000000	39.046807
3881.000000	39.080366
3880.000000	39.117426
3879.000000	39.156356
3878.000000	39.196378
3877.000000	39.237257
3876.000000	39.276916
3875.000000	39.313732
3874.000000	39.348893
3873.000000	39.384268
3872.000000	39.423014
3871.000000	39.467178
3870.000000	39.512494
3869.000000	39.550967
3868.000000	39.581781
3867.000000	39.614377
3866.000000	39.652310
3865.000000	39.686801
3864.000000	39.714435
3863.000000	39.743888
3862.000000	39.781969
3861.000000	39.824584
3860.000000	39.866062
3859.000000	39.910988
3858.000000	39.970379
3857.000000	40.048848
3856.000000	40.137530
3855.000000	40.214678
3854.000000	40.262023
3853.000000	40.282462
3852.000000	40.289695
3851.000000	40.294897
3850.000000	40.305990
3849.000000	40.320249
3848.000000	40.336591
3847.000000	40.363200
3846.000000	40.403645
3845.000000	40.451187
3844.000000	40.497182
3843.000000	40.539507
3842.000000	40.580900
3841.000000	40.625627
3840.000000	40.675748
3839.000000	40.726866
3838.000000	40.772595
3837.000000	40.811149
3836.000000	40.844566
3835.000000	40.874354
3834.000000	40.901934
3833.000000	40.930246
3832.000000	40.962695
3831.000000	40.999572
3830.000000	41.039255
3829.000000	41.081118
3828.000000	41.125195
3827.000000	41.170959
3826.000000	41.216454
3825.000000	41.260084
3824.000000	41.303585
3823.000000	41.347975
3822.000000	41.390844
3821.000000	41.431158
3820.000000	41.469064
3819.000000	41.507632
3818.000000	41.553781
3817.000000	41.603121
3816.000000	41.644065
3815.000000	41.673798
3814.000000	41.699875
3813.000000	41.733214
3812.000000	41.773650
3811.000000	41.813892
3810.000000	41.856613
3809.000000	41.909471
3808.000000	41.970113
3807.000000	42.027137
3806.000000	42.070896
3805.000000	42.102910
3804.000000	42.133913
3803.000000	42.168250
3802.000000	42.200949
3801.000000	42.228450
3800.000000	42.251622
3799.000000	42.278176
3798.000000	42.314009
3797.000000	42.352030
3796.000000	42.386523
3795.000000	42.421655
3794.000000	42.463157
3793.000000	42.510957
3792.000000	42.558698
3791.000000	42.602393
3790.000000	42.644591
3789.000000	42.688284
3788.000000	42.732186
3787.000000	42.774156
3786.000000	42.814723
3785.000000	42.855591
3784.000000	42.896452
3783.000000	42.936426
3782.000000	42.977018
3781.000000	43.020455
3780.000000	43.066388
3779.000000	43.112774
3778.000000	43.158059
3777.000000	43.202783
3776.000000	43.248345
3775.000000	43.293597
3774.000000	43.336606
3773.000000	43.378836
3772.000000	43.424045
3771.000000	43.472597
3770.000000	43.520100
3769.000000	43.562667
3768.000000	43.602105
3767.000000	43.643355
3766.000000	43.687808
3765.000000	43.732059
3764.000000	43.773504
3763.000000	43.814223
3762.000000	43.857639
3761.000000	43.902277
3760.000000	43.944177
3759.000000	43.984740
3758.000000	44.029702
3757.000000	44.080721
3756.000000	44.134930
3755.000000	44.192114
3754.000000	44.254209
3753.000000	44.317632
3752.000000	44.374808
3751.000000	44.423847
3750.000000	44.470237
3749.000000	44.515193
3748.000000	44.554735
3747.000000	44.592621
3746.000000	44.635862
3745.000000	44.682422
3744.000000	44.726215
3743.000000	44.762827
3742.000000	44.797926
3741.000000	44.838836
3740.000000	44.874774
3739.000000	44.899944
3738.000000	44.926872
3737.000000	44.964876
3736.000000	45.012725
3735.000000	45.067109
3734.000000	45.129063
3733.000000	45.199260
3732.000000	45.270012
3731.000000	45.329620
3730.000000	45.376196
3729.000000	45.417220
3728.000000	45.458273
3727.000000	45.500439
3726.000000	45.544391
3725.000000	45.592431
3724.000000	45.646920
3723.000000	45.706113
3722.000000	45.764754
3721.000000	45.821008
3720.000000	45.876726
3719.000000	45.933231
3718.000000	45.990052
3717.000000	46.045632
3716.000000	46.100093
3715.000000	46.155821
3714.000000	46.211867
3713.000000	46.262865
3712.000000	46.307422
3711.000000	46.352344
3710.000000	46.403473
3709.000000	46.459009
3708.000000	46.513699
3707.000000	46.564695
3706.000000	46.613143
3705.000000	46.661873
3704.000000	46.713394
3703.000000	46.768569
3702.000000	46.827488
3701.000000	46.888359
3700.000000	46.947830
3699.000000	47.003432
3698.000000	47.055587
3697.000000	47.104706
3696.000000	47.150986
3695.000000	47.197772
3694.000000	47.249698
3693.000000	47.307711
3692.000000	47.369585
3691.000000	47.434967
3690.000000	47.502750
3689.000000	47.568228
3688.000000	47.625363
3687.000000	47.672060
3686.000000	47.712226
3685.000000	47.750861
3684.000000	47.789147
3683.000000	47.828077
3682.000000	47.873363
3681.000000	47.930031
3680.000000	47.996343
3679.000000	48.063078
3678.000000	48.121664
3677.000000	48.169799
3676.000000	48.213460
3675.000000	48.262542
3674.000000	48.317553
3673.000000	48.375189
3672.000000	48.431639
3671.000000	48.479520
3670.000000	48.523510
3669.000000	48.576003
3668.000000	48.639635
3667.000000	48.707818
3666.000000	48.769204
3665.000000	48.819598
3664.000000	48.867487
3663.000000	48.922996
3662.000000	48.988863
3661.000000	49.059357
3660.000000	49.125534
3659.000000	49.181448
3658.000000	49.226768
3657.000000	49.265973
3656.000000	49.305300
3655.000000	49.347954
3654.000000	49.394533
3653.000000	49.443635
3652.000000	49.487787
3651.000000	49.519780
3650.000000	49.542816
3649.000000	49.569491
3648.000000	49.611872
3647.000000	49.670349
3646.000000	49.733548
3645.000000	49.792007
3644.000000	49.845500
3643.000000	49.898490
3642.000000	49.954522
3641.000000	50.013492
3640.000000	50.072923
3639.000000	50.129830
3638.000000	50.180518
3637.000000	50.221868
3636.000000	50.256147
3635.000000	50.291183
3634.000000	50.333558
3633.000000	50.382653
3632.000000	50.432678
3631.000000	50.475823
3630.000000	50.507703
3629.000000	50.537641
3628.000000	50.578994
3627.000000	50.632339
3626.000000	50.690179
3625.000000	50.740616
3624.000000	50.776545
3623.000000	50.806714
3622.000000	50.841801
3621.000000	50.880750
3620.000000	50.916774
3619.000000	50.950096
3618.000000	50.985811
3617.000000	51.023086
3616.000000	51.056580
3615.000000	51.085224
3614.000000	51.115215
3613.000000	51.154028
3612.000000	51.202791
3611.000000	51.255489
3610.000000	51.304282
3609.000000	51.346682
3608.000000	51.387886
3607.000000	51.434795
3606.000000	51.488306
3605.000000	51.542575
3604.000000	51.591302
3603.000000	51.634293
3602.000000	51.677089
3601.000000	51.723492
3600.000000	51.771231
3599.000000	51.814789
3598.000000	51.850225
3597.000000	51.876716
3596.000000	51.899294
3595.000000	51.928814
3594.000000	51.972889
3593.000000	52.029120
3592.000000	52.087376
3591.000000	52.136679
3590.000000	52.170682
3589.000000	52.193153
3588.000000	52.218402
3587.000000	52.261403
3586.000000	52.323592
3585.000000	52.393704
3584.000000	52.459562
3583.000000	52.515843
3582.000000	52.565132
3581.000000	52.612238
3580.000000	52.659497
3579.000000	52.706526
3578.000000	52.751671
3577.000000	52.793152
3576.000000	52.831258
3575.000000	52.870060
3574.000000	52.913976
3573.000000	52.963548
3572.000000	53.014111
3571.000000	53.057765
3570.000000	53.086435
3569.000000	53.098236
3568.000000	53.103662
3567.000000	53.122799
3566.000000	53.169162
3565.000000	53.239115
3564.000000	53.318632
3563.000000	53.395179
3562.000000	53.463819
3561.000000	53.526212
3560.000000	53.585808
3559.000000	53.644199
3558.000000	53.699733
3557.000000	53.748549
3556.000000	53.788211
3555.000000	53.821400
3554.000000	53.855080
3553.000000	53.895614
3552.000000	53.944820
3551.000000	53.999514
3550.000000	54.053600
3549.000000	54.101523
3548.000000	54.142119
3547.000000	54.180382
3546.000000	54.223682
3545.000000	54.275256
3544.000000	54.332998
3543.000000	54.393081
3542.000000	54.452135
3541.000000	54.507652
3540.000000	54.559007
3539.000000	54.607683
3538.000000	54.654882
3537.000000	54.699491
3536.000000	54.740221
3535.000000	54.778435
3534.000000	54.816837
3533.000000	54.856279
3532.000000	54.895751
3531.000000	54.934558
3530.000000	54.972731
3529.000000	55.010201
3528.000000	55.047480
3527.000000	55.086478
3526.000000	55.128517
3525.000000	55.172218
3524.000000	55.214989
3523.000000	55.256373
3522.000000	55.297908
3521.000000	55.340249
3520.000000	55.382308
3519.000000	55.422715
3518.000000	55.460699
3517.000000	55.495991
3516.000000	55.529045
3515.000000	55.560277
3514.000000	55.588018
3513.000000	55.609116
3512.000000	55.623163
3511.000000	55.634677
3510.000000	55.649706
3509.000000	55.671005
3508.000000	55.696877
3507.000000	55.723541
3506.000000	55.747119
3505.000000	55.764934
3504.000000	55.777544
3503.000000	55.788933
3502.000000	55.802913
3501.000000	55.819834
3500.000000	55.837242
3499.000000	55.851931
3498.000000	55.860609
3497.000000	55.861046
3496.000000	55.854413
3495.000000	55.845043
3494.000000	55.836086
3493.000000	55.826865
3492.000000	55.815790
3491.000000	55.803352
3490.000000	55.790546
3489.000000	55.776694
3488.000000	55.760555
3487.000000	55.741811
3486.000000	55.719861
3485.000000	55.693099
3484.000000	55.661691
3483.000000	55.629463
3482.000000	55.600443
3481.000000	55.574168
3480.000000	55.545990
3479.000000	55.511120
3478.000000	55.467034
3477.000000	55.413921
3476.000000	55.355004
3475.000000	55.295355
3474.000000	55.238846
3473.000000	55.186598
3472.000000	55.138330
3471.000000	55.092650
3470.000000	55.044793
3469.000000	54.987216
3468.000000	54.915012
3467.000000	54.829584
3466.000000	54.736115
3465.000000	54.639347
3464.000000	54.542823
3463.000000	54.449239
3462.000000	54.358664
3461.000000	54.267610
3460.000000	54.171835
3459.000000	54.069659
3458.000000	53.961840
3457.000000	53.849801
3456.000000	53.735173
3455.000000	53.619227
3454.000000	53.501777
3453.000000	53.381605
3452.000000	53.258148
3451.000000	53.131289
3450.000000	52.999047
3449.000000	52.858167
3448.000000	52.708735
3447.000000	52.556089
3446.000000	52.405874
3445.000000	52.258420
3444.000000	52.109615
3443.000000	51.956051
3442.000000	51.797758
3441.000000	51.636978
3440.000000	51.475650
3439.000000	51.313583
3438.000000	51.147854
3437.000000	50.974056
3436.000000	50.788970
3435.000000	50.591926
3434.000000	50.384581
3433.000000	50.170535
3432.000000	49.953790
3431.000000	49.735795
3430.000000	49.513570
3429.000000	49.282402
3428.000000	49.041268
3427.000000	48.793811
3426.000000	48.544150
3425.000000	48.293368
3424.000000	48.039864
3423.000000	47.781156
3422.000000	47.514370
3421.000000	47.237554
3420.000000	46.951727
3419.000000	46.660086
3418.000000	46.365002
3417.000000	46.066800
3416.000000	45.765366
3415.000000	45.460484
3414.000000	45.149960
3413.000000	44.830110
3412.000000	44.498715
3411.000000	44.156129
3410.000000	43.803060
3409.000000	43.439185
3408.000000	43.065361
3407.000000	42.685140
3406.000000	42.302954
3405.000000	41.921554
3404.000000	41.540872
3403.000000	41.157745
3402.000000	40.765760
3401.000000	40.357462
3400.000000	39.928884
3399.000000	39.482172
3398.000000	39.024450
3397.000000	38.564291
3396.000000	38.107640
3395.000000	37.654867
3394.000000	37.200617
3393.000000	36.737762
3392.000000	36.261965
3391.000000	35.772564
3390.000000	35.271351
3389.000000	34.761602
3388.000000	34.247360
3387.000000	33.731451
3386.000000	33.214168
3385.000000	32.695135
3384.000000	32.174863
3383.000000	31.653323
3382.000000	31.128230
3381.000000	30.596609
3380.000000	30.057772
3379.000000	29.513256
3378.000000	28.964961
3377.000000	28.414872
3376.000000	27.865389
3375.000000	27.318290
3374.000000	26.773608
3373.000000	26.230379
3372.000000	25.687594
3371.000000	25.143595
3370.000000	24.596291
3369.000000	24.045316
3368.000000	23.492926
3367.000000	22.942081
3366.000000	22.394940
3365.000000	21.853510
3364.000000	21.319474
3363.000000	20.792251
3362.000000	20.269030
3361.000000	19.748033
3360.000000	19.230126
3359.000000	18.716847
3358.000000	18.208980
3357.000000	17.707719
3356.000000	17.215145
3355.000000	16.732064
3354.000000	16.257321
3353.000000	15.790082
3352.000000	15.330598
3351.000000	14.878629
3350.000000	14.433050
3349.000000	13.993988
3348.000000	13.563471
3347.000000	13.142852
3346.000000	12.732118
3345.000000	12.331635
3344.000000	11.942133
3343.000000	11.562770
3342.000000	11.191201
3341.000000	10.826768
3340.000000	10.471130
3339.000000	10.125266
3338.000000	9.788649
3337.000000	9.461240
3336.000000	9.144263
3335.000000	8.838150
3334.000000	8.541818
3333.000000	8.254871
3332.000000	7.977621
3331.000000	7.709156
3330.000000	7.447565
3329.000000	7.192238
3328.000000	6.944478
3327.000000	6.705251
3326.000000	6.474847
3325.000000	6.254352
3324.000000	6.044546
3323.000000	5.843976
3322.000000	5.649960
3321.000000	5.461680
3320.000000	5.280193
3319.000000	5.105489
3318.000000	4.936793
3317.000000	4.774769
3316.000000	4.620805
3315.000000	4.474482
3314.000000	4.333898
3313.000000	4.198618
3312.000000	4.069426
3311.000000	3.945748
3310.000000	3.826383
3309.000000	3.711989
3308.000000	3.604582
3307.000000	3.504752
3306.000000	3.411929
3305.000000	3.326954
3304.000000	3.250789
3303.000000	3.181618
3302.000000	3.115983
3301.000000	3.052428
3300.000000	2.991762
3299.000000	2.934121
3298.000000	2.879009
3297.000000	2.827571
3296.000000	2.781555
3295.000000	2.740603
3294.000000	2.703138
3293.000000	2.669548
3292.000000	2.641526
3291.000000	2.618403
3290.000000	2.597603
3289.000000	2.578103
3288.000000	2.560736
3287.000000	2.545465
3286.000000	2.531116
3285.000000	2.517890
3284.000000	2.507073
3283.000000	2.498549
3282.000000	2.491099
3281.000000	2.484702
3280.000000	2.480089
3279.000000	2.476352
3278.000000	2.471801
3277.000000	2.466814
3276.000000	2.463151
3275.000000	2.460885
3274.000000	2.458606
3273.000000	2.456402
3272.000000	2.456010
3271.000000	2.458173
3270.000000	2.462251
3269.000000	2.467945
3268.000000	2.475002
3267.000000	2.481782
3266.000000	2.486593
3265.000000	2.490108
3264.000000	2.494273
3263.000000	2.499338
3262.000000	2.504226
3261.000000	2.508988
3260.000000	2.514426
3259.000000	2.520050
3258.000000	2.524926
3257.000000	2.529925
3256.000000	2.536612
3255.000000	2.544593
3254.000000	2.552303
3253.000000	2.559695
3252.000000	2.567587
3251.000000	2.575146
3250.000000	2.580769
3249.000000	2.585026
3248.000000	2.590223
3247.000000	2.597349
3246.000000	2.605677
3245.000000	2.614744
3244.000000	2.624458
3243.000000	2.633824
3242.000000	2.641855
3241.000000	2.649285
3240.000000	2.657309
3239.000000	2.665275
3238.000000	2.671683
3237.000000	2.676697
3236.000000	2.681649
3235.000000	2.686976
3234.000000	2.692722
3233.000000	2.700042
3232.000000	2.709797
3231.000000	2.720471
3230.000000	2.729768
3229.000000	2.737451
3228.000000	2.744521
3227.000000	2.750693
3226.000000	2.755085
3225.000000	2.758491
3224.000000	2.762501
3223.000000	2.767036
3222.000000	2.770943
3221.000000	2.774260
3220.000000	2.777758
3219.000000	2.781057
3218.000000	2.783377
3217.000000	2.785314
3216.000000	2.787758
3215.000000	2.789956
3214.000000	2.790691
3213.000000	2.790450
3212.000000	2.790319
3211.000000	2.789802
3210.000000	2.787898
3209.000000	2.785234
3208.000000	2.782985
3207.000000	2.780671
3206.000000	2.777152
3205.000000	2.772811
3204.000000	2.768556
3203.000000	2.763804
3202.000000	2.757636
3201.000000	2.750856
3200.000000	2.744703
3199.000000	2.738503
3198.000000	2.730858
3197.000000	2.722134
3196.000000	2.713557
3195.000000	2.704924
3194.000000	2.695372
3193.000000	2.685427
3192.000000	2.676074
3191.000000	2.666735
3190.000000	2.656341
3189.000000	2.645427
3188.000000	2.635063
3187.000000	2.624675
3186.000000	2.612992
3185.000000	2.600267
3184.000000	2.587661
3183.000000	2.575461
3182.000000	2.563700
3181.000000	2.553274
3180.000000	2.544453
3179.000000	2.535511
3178.000000	2.524885
3177.000000	2.513508
3176.000000	2.503088
3175.000000	2.493421
3174.000000	2.483483
3173.000000	2.473744
3172.000000	2.465157
3171.000000	2.457076
3170.000000	2.448393
3169.000000	2.439691
3168.000000	2.432229
3167.000000	2.425781
3166.000000	2.419444
3165.000000	2.413420
3164.000000	2.408163
3163.000000	2.402993
3162.000000	2.397395
3161.000000	2.392443
3160.000000	2.389114
3159.000000	2.386500
3158.000000	2.383453
3157.000000	2.380490
3156.000000	2.378334
3155.000000	2.376231
3154.000000	2.373731
3153.000000	2.372548
3152.000000	2.374400
3151.000000	2.378427
3150.000000	2.382746
3149.000000	2.387126
3148.000000	2.392153
3147.000000	2.397298
3146.000000	2.402019
3145.000000	2.407343
3144.000000	2.414147
3143.000000	2.421238
3142.000000	2.427212
3141.000000	2.432997
3140.000000	2.440517
3139.000000	2.450049
3138.000000	2.460828
3137.000000	2.472863
3136.000000	2.486181
3135.000000	2.499586
3134.000000	2.512094
3133.000000	2.524517
3132.000000	2.537916
3131.000000	2.551874
3130.000000	2.565964
3129.000000	2.581258
3128.000000	2.598618
3127.000000	2.616946
3126.000000	2.634896
3125.000000	2.652768
3124.000000	2.671017
3123.000000	2.688735
3122.000000	2.705533
3121.000000	2.723156
3120.000000	2.743199
3119.000000	2.764775
3118.000000	2.786544
3117.000000	2.809394
3116.000000	2.834952
3115.000000	2.862863
3114.000000	2.891534
3113.000000	2.920272
3112.000000	2.948832
3111.000000	2.976406
3110.000000	3.003033
3109.000000	3.030647
3108.000000	3.060850
3107.000000	3.092860
3106.000000	3.125182
3105.000000	3.157772
3104.000000	3.190928
3103.000000	3.223877
3102.000000	3.256304
3101.000000	3.289640
3100.000000	3.325040
3099.000000	3.361567
3098.000000	3.398137
3097.000000	3.435546
3096.000000	3.474706
3095.000000	3.514582
3094.000000	3.553762
3093.000000	3.592627
3092.000000	3.632205
3091.000000	3.672369
3090.000000	3.712889
3089.000000	3.754621
3088.000000	3.797935
3087.000000	3.841556
3086.000000	3.884626
3085.000000	3.928327
3084.000000	3.973758
3083.000000	4.019899
3082.000000	4.065504
3081.000000	4.111320
3080.000000	4.158701
3079.000000	4.207577
3078.000000	4.257520
3077.000000	4.309124
3076.000000	4.362498
3075.000000	4.416051
3074.000000	4.468563
3073.000000	4.520836
3072.000000	4.573643
3071.000000	4.625813
3070.000000	4.676359
3069.000000	4.726835
3068.000000	4.779489
3067.000000	4.834466
3066.000000	4.890669
3065.000000	4.947936
3064.000000	5.006353
3063.000000	5.064762
3062.000000	5.122004
3061.000000	5.178610
3060.000000	5.235652
3059.000000	5.292981
3058.000000	5.350073
3057.000000	5.407410
3056.000000	5.465520
3055.000000	5.523840
3054.000000	5.581935
3053.000000	5.640627
3052.000000	5.700611
3051.000000	5.761184
3050.000000	5.821538
3049.000000	5.881968
3048.000000	5.942668
3047.000000	6.002891
3046.000000	6.062509
3045.000000	6.122867
3044.000000	6.184862
3043.000000	6.247694
3042.000000	6.310695
3041.000000	6.374621
3040.000000	6.439778
3039.000000	6.504604
3038.000000	6.567694
3037.000000	6.629790
3036.000000	6.692452
3035.000000	6.756195
3034.000000	6.821118
3033.000000	6.887702
3032.000000	6.955557
3031.000000	7.022923
3030.000000	7.088753
3029.000000	7.153881
3028.000000	7.219118
3027.000000	7.283955
3026.000000	7.348353
3025.000000	7.413848
3024.000000	7.481321
3023.000000	7.549315
3022.000000	7.616092
3021.000000	7.681801
3020.000000	7.747269
3019.000000	7.812268
3018.000000	7.876526
3017.000000	7.940926
3016.000000	8.006269
3015.000000	8.072240
3014.000000	8.138872
3013.000000	8.207469
3012.000000	8.278655
3011.000000	8.350986
3010.000000	8.422720
3009.000000	8.493616
3008.000000	8.563833
3007.000000	8.632792
3006.000000	8.700504
3005.000000	8.768488
3004.000000	8.837918
3003.000000	8.908027
3002.000000	8.977511
3001.000000	9.046197
3000.000000	9.114368
2999.000000	9.181895
2998.000000	9.249116
2997.000000	9.317101
2996.000000	9.386024
2995.000000	9.454775
2994.000000	9.523147
2993.000000	9.592736
2992.000000	9.664543
2991.000000	9.737333
2990.000000	9.809493
2989.000000	9.880896
2988.000000	9.951806
2987.000000	10.021702
2986.000000	10.090481
2985.000000	10.159265
2984.000000	10.228706
2983.000000	10.298038
2982.000000	10.366997
2981.000000	10.437051
2980.000000	10.509272
2979.000000	10.582444
2978.000000	10.654685
2977.000000	10.725725
2976.000000	10.796375
2975.000000	10.867143
2974.000000	10.938566
2973.000000	11.011531
2972.000000	11.085981
2971.000000	11.160459
2970.000000	11.233952
2969.000000	11.306922
2968.000000	11.379633
2967.000000	11.451143
2966.000000	11.521081
2965.000000	11.590798
2964.000000	11.661515
2963.000000	11.732810
2962.000000	11.804151
2961.000000	11.876181
2960.000000	11.949146
2959.000000	12.021672
2958.000000	12.092496
2957.000000	12.161977
2956.000000	12.230737
2955.000000	12.298579
2954.000000	12.366022
2953.000000	12.435046
2952.000000	12.506638
2951.000000	12.579036
2950.000000	12.649941
2949.000000	12.719145
2948.000000	12.787706
2947.000000	12.856040
2946.000000	12.924310
2945.000000	12.993484
2944.000000	13.064453
2943.000000	13.136941
2942.000000	13.210300
2941.000000	13.284333
2940.000000	13.358433
2939.000000	13.431185
2938.000000	13.501850
2937.000000	13.571013
2936.000000	13.638975
2935.000000	13.704929
2934.000000	13.768839
2933.000000	13.832655
2932.000000	13.898470
2931.000000	13.966629
2930.000000	14.036494
2929.000000	14.107530
2928.000000	14.178552
2927.000000	14.247557
2926.000000	14.313663
2925.000000	14.378048
2924.000000	14.442140
2923.000000	14.506246
2922.000000	14.570704
2921.000000	14.636468
2920.000000	14.703479
2919.000000	14.770086
2918.000000	14.835113
2917.000000	14.899064
2916.000000	14.962554
2915.000000	15.025380
2914.000000	15.088003
2913.000000	15.152073
2912.000000	15.218309
2911.000000	15.285412
2910.000000	15.352096
2909.000000	15.418547
2908.000000	15.484836
2907.000000	15.549645
2906.000000	15.611995
2905.000000	15.672912
2904.000000	15.734067
2903.000000	15.795939
2902.000000	15.858462
2901.000000	15.922165
2900.000000	15.987351
2899.000000	16.052982
2898.000000	16.117569
2897.000000	16.180380
2896.000000	16.241106
2895.000000	16.299562
2894.000000	16.356666
2893.000000	16.414597
2892.000000	16.474921
2891.000000	16.537364
2890.000000	16.600972
2889.000000	16.665278
2888.000000	16.729517
2887.000000	16.792030
2886.000000	16.851667
2885.000000	16.909048
2884.000000	16.965708
2883.000000	17.022928
2882.000000	17.081927
2881.000000	17.143859
2880.000000	17.208491
2879.000000	17.273810
2878.000000	17.337975
2877.000000	17.400904
2876.000000	17.463187
2875.000000	17.524398
2874.000000	17.583567
2873.000000	17.640729
2872.000000	17.697125
2871.000000	17.754287
2870.000000	17.813373
2869.000000	17.874555
2868.000000	17.936395
2867.000000	17.996561
2866.000000	18.053840
2865.000000	18.109085
2864.000000	18.164103
2863.000000	18.220375
2862.000000	18.278870
2861.000000	18.339754
2860.000000	18.401745
2859.000000	18.462794
2858.000000	18.521913
2857.000000	18.579526
2856.000000	18.635974
2855.000000	18.691014
2854.000000	18.745204
2853.000000	18.800437
2852.000000	18.858414
2851.000000	18.919486
2850.000000	18.983079
2849.000000	19.047892
2848.000000	19.111429
2847.000000	19.170990
2846.000000	19.226000
2845.000000	19.278466
2844.000000	19.330960
2843.000000	19.385317
2842.000000	19.443221
2841.000000	19.505886
2840.000000	19.572095
2839.000000	19.638003
2838.000000	19.700146
2837.000000	19.757901
2836.000000	19.812501
2835.000000	19.865058
2834.000000	19.916543
2833.000000	19.968614
2832.000000	20.023159
2831.000000	20.081312
2830.000000	20.143345
2829.000000	20.208692
2828.000000	20.275523
2827.000000	20.341206
2826.000000	20.403995
2825.000000	20.463863
2824.000000	20.521618
2823.000000	20.578217
2822.000000	20.635287
2821.000000	20.694951
2820.000000	20.758099
2819.000000	20.823414
2818.000000	20.888594
2817.000000	20.951862
2816.000000	21.012107
2815.000000	21.068853
2814.000000	21.123016
2813.000000	21.176879
2812.000000	21.232452
2811.000000	21.290146
2810.000000	21.349250
2809.000000	21.408755
2808.000000	21.467224
2807.000000	21.522869
2806.000000	21.574696
2805.000000	21.623150
2804.000000	21.669339
2803.000000	21.714388
2802.000000	21.759858
2801.000000	21.807613
2800.000000	21.858314
2799.000000	21.910595
2798.000000	21.962349
2797.000000	22.012282
2796.000000	22.059906
2795.000000	22.105091
2794.000000	22.148538
2793.000000	22.192110
2792.000000	22.237790
2791.000000	22.286390
2790.000000	22.337572
2789.000000	22.390508
2788.000000	22.444043
2787.000000	22.496823
2786.000000	22.547925
2785.000000	22.597205
2784.000000	22.644894
2783.000000	22.691364
2782.000000	22.737466
2781.000000	22.784334
2780.000000	22.832350
2779.000000	22.880720
2778.000000	22.928213
2777.000000	22.973604
2776.000000	23.015336
2775.000000	23.051686
2774.000000	23.082018
2773.000000	23.107457
2772.000000	23.129819
2771.000000	23.150345
2770.000000	23.169455
2769.000000	23.186813
2768.000000	23.201197
2767.000000	23.210895
2766.000000	23.214961
2765.000000	23.213795
2764.000000	23.208359
2763.000000	23.199666
2762.000000	23.189179
2761.000000	23.178809
2760.000000	23.169817
2759.000000	23.162126
2758.000000	23.155071
2757.000000	23.148088
2756.000000	23.140373
2755.000000	23.130804
2754.000000	23.118839
2753.000000	23.104979
2752.000000	23.089752
2751.000000	23.072792
2750.000000	23.053173
2749.000000	23.029811
2748.000000	23.001267
2747.000000	22.965872
2746.000000	22.922816
2745.000000	22.872735
2744.000000	22.816812
2743.000000	22.756258
2742.000000	22.693074
2741.000000	22.630316
2740.000000	22.571013
2739.000000	22.517370
2738.000000	22.471419
2737.000000	22.435843
2736.000000	22.413296
2735.000000	22.405479
2734.000000	22.413738
2733.000000	22.439301
2732.000000	22.482540
2731.000000	22.542565
2730.000000	22.617564
2729.000000	22.705562
2728.000000	22.804003
2727.000000	22.909588
2726.000000	23.019491
2725.000000	23.131891
2724.000000	23.245470
2723.000000	23.358863
2722.000000	23.470844
2721.000000	23.580621
2720.000000	23.687364
2719.000000	23.789902
2718.000000	23.887242
2717.000000	23.978825
2716.000000	24.064002
2715.000000	24.142048
2714.000000	24.212765
2713.000000	24.276619
2712.000000	24.334012
2711.000000	24.384631
2710.000000	24.428183
2709.000000	24.464967
2708.000000	24.495453
2707.000000	24.520017
2706.000000	24.539190
2705.000000	24.554050
2704.000000	24.565743
2703.000000	24.574899
2702.000000	24.581965
2701.000000	24.587379
2700.000000	24.591292
2699.000000	24.593448
2698.000000	24.593707
2697.000000	24.592525
2696.000000	24.590580
2695.000000	24.588383
2694.000000	24.586307
2693.000000	24.584460
2692.000000	24.582344
2691.000000	24.579102
2690.000000	24.574384
2689.000000	24.568517
2688.000000	24.561755
2687.000000	24.554108
2686.000000	24.546103
2685.000000	24.538972
2684.000000	24.533613
2683.000000	24.529825
2682.000000	24.526816
2681.000000	24.523892
2680.000000	24.520448
2679.000000	24.516108
2678.000000	24.511430
2677.000000	24.507987
2676.000000	24.507434
2675.000000	24.510801
2674.000000	24.518668
2673.000000	24.531298
2672.000000	24.548107
2671.000000	24.567794
2670.000000	24.589411
2669.000000	24.612744
2668.000000	24.637684
2667.000000	24.663818
2666.000000	24.690958
2665.000000	24.719254
2664.000000	24.748162
2663.000000	24.775928
2662.000000	24.800513
2661.000000	24.820520
2660.000000	24.835103
2659.000000	24.843960
2658.000000	24.848002
2657.000000	24.849622
2656.000000	24.851636
2655.000000	24.856092
2654.000000	24.864196
2653.000000	24.876487
2652.000000	24.892483
2651.000000	24.910779
2650.000000	24.930300
2649.000000	24.951369
2648.000000	24.975764
2647.000000	25.006120
2646.000000	25.045471
2645.000000	25.096657
2644.000000	25.160754
2643.000000	25.236326
2642.000000	25.320053
2641.000000	25.407729
2640.000000	25.495203
2639.000000	25.579119
2638.000000	25.658012
2637.000000	25.732645
2636.000000	25.804950
2635.000000	25.876529
2634.000000	25.947805
2633.000000	26.017715
2632.000000	26.083825
2631.000000	26.143178
2630.000000	26.193320
2629.000000	26.233235
2628.000000	26.263609
2627.000000	26.286741
2626.000000	26.306372
2625.000000	26.326404
2624.000000	26.349306
2623.000000	26.375209
2622.000000	26.402091
2621.000000	26.426634
2620.000000	26.445005
2619.000000	26.454277
2618.000000	26.453884
2617.000000	26.445698
2616.000000	26.432818
2615.000000	26.418047
2614.000000	26.403172
2613.000000	26.388545
2612.000000	26.372543
2611.000000	26.352290
2610.000000	26.325341
2609.000000	26.291201
2608.000000	26.251781
2607.000000	26.211262
2606.000000	26.175645
2605.000000	26.151356
2604.000000	26.142866
2603.000000	26.151075
2602.000000	26.173983
2601.000000	26.207907
2600.000000	26.248740
2599.000000	26.293235
2598.000000	26.339971
2597.000000	26.389924
2596.000000	26.445309
2595.000000	26.508354
2594.000000	26.580596
2593.000000	26.661773
2592.000000	26.749056
2591.000000	26.837391
2590.000000	26.921508
2589.000000	26.998134
2588.000000	27.066901
2587.000000	27.130286
2586.000000	27.192901
2585.000000	27.260031
2584.000000	27.335556
2583.000000	27.420314
2582.000000	27.512000
2581.000000	27.606305
2580.000000	27.698532
2579.000000	27.785224
2578.000000	27.865271
2577.000000	27.940149
2576.000000	28.013202
2575.000000	28.088422
2574.000000	28.169003
2573.000000	28.255896
2572.000000	28.347000
2571.000000	28.437761
2570.000000	28.522919
2569.000000	28.598183
2568.000000	28.661530
2567.000000	28.713753
2566.000000	28.758173
2565.000000	28.799308
2564.000000	28.840429
2563.000000	28.881905
2562.000000	28.920578
2561.000000	28.950510
2560.000000	28.965059
2559.000000	28.958966
2558.000000	28.930719
2557.000000	28.883254
2556.000000	28.823150
2555.000000	28.759536
2554.000000	28.702602
2553.000000	28.661770
2552.000000	28.643304
2551.000000	28.648991
2550.000000	28.676664
2549.000000	28.722503
2548.000000	28.782436
2547.000000	28.853033
2546.000000	28.932586
2545.000000	29.020760
2544.000000	29.117889
2543.000000	29.223137
2542.000000	29.333335
2541.000000	29.443556
2540.000000	29.548356
2539.000000	29.643272
2538.000000	29.726008
2537.000000	29.797230
2536.000000	29.860397
2535.000000	29.920577
2534.000000	29.982393
2533.000000	30.048354
2532.000000	30.118235
2531.000000	30.189161
2530.000000	30.256827
2529.000000	30.317214
2528.000000	30.368401
2527.000000	30.411425
2526.000000	30.449599
2525.000000	30.487202
2524.000000	30.528096
2523.000000	30.574537
2522.000000	30.626357
2521.000000	30.680839
2520.000000	30.733765
2519.000000	30.781110
2518.000000	30.820551
2517.000000	30.852306
2516.000000	30.878977
2515.000000	30.904652
2514.000000	30.933478
2513.000000	30.968203
2512.000000	31.009166
2511.000000	31.053998
2510.000000	31.098448
2509.000000	31.138183
2508.000000	31.170705
2507.000000	31.196286
2506.000000	31.217482
2505.000000	31.237923
2504.000000	31.261092
2503.000000	31.289266
2502.000000	31.322779
2501.000000	31.359709
2500.000000	31.396404
2499.000000	31.428904
2498.000000	31.454727
2497.000000	31.474009
2496.000000	31.489193
2495.000000	31.503739
2494.000000	31.520879
2493.000000	31.542778
2492.000000	31.569769
2491.000000	31.599866
2490.000000	31.629481
2489.000000	31.655360
2488.000000	31.676010
2487.000000	31.691673
2486.000000	31.703689
2485.000000	31.714386
2484.000000	31.726813
2483.000000	31.743381
2482.000000	31.764363
2481.000000	31.787867
2480.000000	31.811141
2479.000000	31.831815
2478.000000	31.848408
2477.000000	31.860733
2476.000000	31.870176
2475.000000	31.879144
2474.000000	31.889923
2473.000000	31.903869
2472.000000	31.921165
2471.000000	31.940741
2470.000000	31.960460
2469.000000	31.978066
2468.000000	31.992287
2467.000000	32.003227
2466.000000	32.012078
2465.000000	32.020789
2464.000000	32.031542
2463.000000	32.045643
2462.000000	32.062661
2461.000000	32.080833
2460.000000	32.098296
2459.000000	32.113732
2458.000000	32.126344
2457.000000	32.136168
2456.000000	32.144561
2455.000000	32.153755
2454.000000	32.165516
2453.000000	32.180284
2452.000000	32.197376
2451.000000	32.215500
2450.000000	32.233063
2449.000000	32.248651
2448.000000	32.261674
2447.000000	32.272614
2446.000000	32.282734
2445.000000	32.293667
2444.000000	32.306909
2443.000000	32.323034
2442.000000	32.341214
2441.000000	32.359756
2440.000000	32.377112
2439.000000	32.392391
2438.000000	32.405411
2437.000000	32.416873
2436.000000	32.428336
2435.000000	32.441408
2434.000000	32.456795
2433.000000	32.474265
2432.000000	32.493136
2431.000000	32.512328
2430.000000	32.530351
2429.000000	32.546120
2428.000000	32.559921
2427.000000	32.573127
2426.000000	32.587020
2425.000000	32.602330
2424.000000	32.619559
2423.000000	32.638823
2422.000000	32.659226
2421.000000	32.679079
2420.000000	32.697035
2419.000000	32.712825
2418.000000	32.727099
2417.000000	32.741136
2416.000000	32.756546
2415.000000	32.774481
2414.000000	32.794824
2413.000000	32.816444
2412.000000	32.838156
2411.000000	32.859078
2410.000000	32.878430
2409.000000	32.895906
2408.000000	32.912346
2407.000000	32.929431
2406.000000	32.948529
2405.000000	32.970208
2404.000000	32.994502
2403.000000	33.020811
2402.000000	33.047526
2401.000000	33.072608
2400.000000	33.094965
2399.000000	33.115037
2398.000000	33.134166
2397.000000	33.154072
2396.000000	33.176646
2395.000000	33.203197
2394.000000	33.233363
2393.000000	33.265241
2392.000000	33.296734
2391.000000	33.326485
2390.000000	33.353937
2389.000000	33.379448
2388.000000	33.404653
2387.000000	33.431962
2386.000000	33.463182
2385.000000	33.498814
2384.000000	33.538283
2383.000000	33.580445
2382.000000	33.623747
2381.000000	33.667021
2380.000000	33.710607
2379.000000	33.756335
2378.000000	33.806611
2377.000000	33.863354
2376.000000	33.927937
2375.000000	33.999906
2374.000000	34.076302
2373.000000	34.152242
2372.000000	34.223048
2371.000000	34.286274
2370.000000	34.341567
2369.000000	34.389960
2368.000000	34.434713
2367.000000	34.480932
2366.000000	34.531869
2365.000000	34.586351
2364.000000	34.644124
2363.000000	34.705793
2362.000000	34.766421
2361.000000	34.823341
2360.000000	34.876964
2359.000000	34.928267
2358.000000	34.981840
2357.000000	35.035846
2356.000000	35.091974
2355.000000	35.150897
2354.000000	35.208091
2353.000000	35.259899
2352.000000	35.306928
2351.000000	35.361860
2350.000000	35.422272
2349.000000	35.471387
2348.000000	35.503142
2347.000000	35.527069
2346.000000	35.571835
2345.000000	35.646769
2344.000000	35.741751
2343.000000	35.832629
2342.000000	35.902029
2341.000000	35.957148
2340.000000	36.002474
2339.000000	36.044661
2338.000000	36.084942
2337.000000	36.128435
2336.000000	36.177287
2335.000000	36.235179
2334.000000	36.297804
2333.000000	36.362975
2332.000000	36.423279
2331.000000	36.482692
2330.000000	36.539232
2329.000000	36.592560
2328.000000	36.646371
2327.000000	36.698943
2326.000000	36.755595
2325.000000	36.812379
2324.000000	36.872904
2323.000000	36.937498
2322.000000	37.001475
2321.000000	37.062373
2320.000000	37.114901
2319.000000	37.164474
2318.000000	37.210459
2317.000000	37.256832
2316.000000	37.303032
2315.000000	37.353278
2314.000000	37.406912
2313.000000	37.462616
2312.000000	37.516840
2311.000000	37.567885
2310.000000	37.614779
2309.000000	37.657494
2308.000000	37.698907
2307.000000	37.742947
2306.000000	37.792276
2305.000000	37.846508
2304.000000	37.903784
2303.000000	37.962539
2302.000000	38.019313
2301.000000	38.071358
2300.000000	38.117694
2299.000000	38.160636
2298.000000	38.202838
2297.000000	38.246079
2296.000000	38.292687
2295.000000	38.343662
2294.000000	38.398418
2293.000000	38.452724
2292.000000	38.503966
2291.000000	38.550800
2290.000000	38.593691
2289.000000	38.632810
2288.000000	38.670446
2287.000000	38.709905
2286.000000	38.753381
2285.000000	38.800326
2284.000000	38.849210
2283.000000	38.898653
2282.000000	38.946745
2281.000000	38.991686
2280.000000	39.033135
2279.000000	39.072752
2278.000000	39.111902
2277.000000	39.151865
2276.000000	39.194269
2275.000000	39.240689
2274.000000	39.290062
2273.000000	39.338972
2272.000000	39.384870
2271.000000	39.427182
2270.000000	39.466027
2269.000000	39.501678
2268.000000	39.536077
2267.000000	39.572293
2266.000000	39.611551
2265.000000	39.652442
2264.000000	39.693344
2263.000000	39.733141
2262.000000	39.770313
2261.000000	39.802658
2260.000000	39.829883
2259.000000	39.853900
2258.000000	39.876318
2257.000000	39.897701
2256.000000	39.918429
2255.000000	39.938908
2254.000000	39.957227
2253.000000	39.969947
2252.000000	39.974833
2251.000000	39.971985
2250.000000	39.961795
2249.000000	39.944355
2248.000000	39.920973
2247.000000	39.894102
2246.000000	39.863978
2245.000000	39.828283
2244.000000	39.784729
2243.000000	39.732151
2242.000000	39.669488
2241.000000	39.596269
2240.000000	39.514727
2239.000000	39.429670
2238.000000	39.345697
2237.000000	39.266186
2236.000000	39.194557
2235.000000	39.133890
2234.000000	39.084843
2233.000000	39.045723
2232.000000	39.015268
2231.000000	38.993450
2230.000000	38.979720
2229.000000	38.972628
2228.000000	38.971440
2227.000000	38.976172
2226.000000	38.985256
2225.000000	38.995350
2224.000000	39.003728
2223.000000	39.009288
2222.000000	39.011246
2221.000000	39.009175
2220.000000	39.004894
2219.000000	39.002005
2218.000000	39.002828
2217.000000	39.007210
2216.000000	39.014313
2215.000000	39.023315
2214.000000	39.032093
2213.000000	39.037746
2212.000000	39.039391
2211.000000	39.038792
2210.000000	39.037937
2209.000000	39.038036
2208.000000	39.040879
2207.000000	39.048556
2206.000000	39.060791
2205.000000	39.074503
2204.000000	39.086687
2203.000000	39.096099
2202.000000	39.102064
2201.000000	39.104188
2200.000000	39.104086
2199.000000	39.105189
2198.000000	39.109791
2197.000000	39.117565
2196.000000	39.126982
2195.000000	39.136132
2194.000000	39.141918
2193.000000	39.140987
2192.000000	39.132519
2191.000000	39.118631
2190.000000	39.101919
2189.000000	39.084432
2188.000000	39.068871
2187.000000	39.057939
2186.000000	39.051597
2185.000000	39.046965
2184.000000	39.041504
2183.000000	39.034790
2182.000000	39.027239
2181.000000	39.019873
2180.000000	39.015754
2179.000000	39.019233
2178.000000	39.032568
2177.000000	39.054771
2176.000000	39.083859
2175.000000	39.118003
2174.000000	39.154398
2173.000000	39.189674
2172.000000	39.222681
2171.000000	39.255208
2170.000000	39.289537
2169.000000	39.327212
2168.000000	39.370015
2167.000000	39.419223
2166.000000	39.472991
2165.000000	39.526829
2164.000000	39.577525
2163.000000	39.624724
2162.000000	39.668712
2161.000000	39.709600
2160.000000	39.749393
2159.000000	39.792012
2158.000000	39.839832
2157.000000	39.892060
2156.000000	39.946739
2155.000000	40.001959
2154.000000	40.054662
2153.000000	40.101349
2152.000000	40.141436
2151.000000	40.177932
2150.000000	40.214110
2149.000000	40.251639
2148.000000	40.291999
2147.000000	40.336551
2146.000000	40.384253
2145.000000	40.431656
2144.000000	40.476098
2143.000000	40.517394
2142.000000	40.556200
2141.000000	40.593464
2140.000000	40.632123
2139.000000	40.676551
2138.000000	40.728965
2137.000000	40.787966
2136.000000	40.850583
2135.000000	40.913468
2134.000000	40.972303
2133.000000	41.023416
2132.000000	41.067202
2131.000000	41.107788
2130.000000	41.148823
2129.000000	41.191987
2128.000000	41.238864
2127.000000	41.290528
2126.000000	41.344547
2125.000000	41.395560
2124.000000	41.439884
2123.000000	41.477444
2122.000000	41.509667
2121.000000	41.538584
2120.000000	41.568288
2119.000000	41.603623
2118.000000	41.646451
2117.000000	41.695456
2116.000000	41.749236
2115.000000	41.806238
2114.000000	41.861938
2113.000000	41.910557
2112.000000	41.950786
2111.000000	41.986708
2110.000000	42.022668
2109.000000	42.060675
2108.000000	42.102400
2107.000000	42.148984
2106.000000	42.197482
2105.000000	42.241274
2104.000000	42.275598
2103.000000	42.299738
2102.000000	42.314114
2101.000000	42.319277
2100.000000	42.318558
2099.000000	42.317513
2098.000000	42.318597
2097.000000	42.320062
2096.000000	42.319540
2095.000000	42.314794
2094.000000	42.301499
2093.000000	42.275745
2092.000000	42.240362
2091.000000	42.204563
2090.000000	42.176236
2089.000000	42.158029
2088.000000	42.150935
2087.000000	42.156493
2086.000000	42.173405
2085.000000	42.196437
2084.000000	42.221086
2083.000000	42.246515
2082.000000	42.273098
2081.000000	42.301291
2080.000000	42.334013
2079.000000	42.376539
2078.000000	42.431005
2077.000000	42.494957
2076.000000	42.565287
2075.000000	42.639712
2074.000000	42.714649
2073.000000	42.784823
2072.000000	42.849200
2071.000000	42.912232
2070.000000	42.977304
2069.000000	43.043757
2068.000000	43.112953
2067.000000	43.192143
2066.000000	43.287432
2065.000000	43.395092
2064.000000	43.504008
2063.000000	43.605413
2062.000000	43.697555
2061.000000	43.783988
2060.000000	43.870562
2059.000000	43.962326
2058.000000	44.060710
2057.000000	44.164049
2056.000000	44.270500
2055.000000	44.378054
2054.000000	44.482515
2053.000000	44.578450
2052.000000	44.664499
2051.000000	44.744461
2050.000000	44.822016
2049.000000	44.898448
2048.000000	44.976933
2047.000000	45.061728
2046.000000	45.151098
2045.000000	45.237406
2044.000000	45.317109
2043.000000	45.395097
2042.000000	45.476634
2041.000000	45.560548
2040.000000	45.643859
2039.000000	45.728039
2038.000000	45.816908
2037.000000	45.912223
2036.000000	46.014171
2035.000000	46.121966
2034.000000	46.231788
2033.000000	46.338069
2032.000000	46.438345
2031.000000	46.534517
2030.000000	46.628908
2029.000000	46.722383
2028.000000	46.818299
2027.000000	46.920357
2026.000000	47.028152
2025.000000	47.136386
2024.000000	47.242388
2023.000000	47.346375
2022.000000	47.443581
2021.000000	47.525612
2020.000000	47.593712
2019.000000	47.663724
2018.000000	47.752207
2017.000000	47.860837
2016.000000	47.978647
2015.000000	48.095376
2014.000000	48.207271
2013.000000	48.314591
2012.000000	48.419393
2011.000000	48.523558
2010.000000	48.627160
2009.000000	48.730247
2008.000000	48.836486
2007.000000	48.949554
2006.000000	49.069135
2005.000000	49.191096
2004.000000	49.313720
2003.000000	49.437798
2002.000000	49.560116
2001.000000	49.677251
2000.000000	49.788627
1999.000000	49.899174
1998.000000	50.011843
1997.000000	50.121048
1996.000000	50.218223
1995.000000	50.304183
1994.000000	50.392290
1993.000000	50.497331
1992.000000	50.618083
1991.000000	50.736324
1990.000000	50.838111
1989.000000	50.928290
1988.000000	51.020865
1987.000000	51.119462
1986.000000	51.214744
1985.000000	51.300905
1984.000000	51.385138
1983.000000	51.475953
1982.000000	51.569447
1981.000000	51.658067
1980.000000	51.739196
1979.000000	51.815530
1978.000000	51.886604
1977.000000	51.950464
1976.000000	52.010547
1975.000000	52.073980
1974.000000	52.143796
1973.000000	52.217749
1972.000000	52.291629
1971.000000	52.358349
1970.000000	52.409710
1969.000000	52.448886
1968.000000	52.495729
1967.000000	52.564178
1966.000000	52.641576
1965.000000	52.706892
1964.000000	52.760390
1963.000000	52.819046
1962.000000	52.891031
1961.000000	52.968144
1960.000000	53.040596
1959.000000	53.104843
1958.000000	53.156924
1957.000000	53.194753
1956.000000	53.227581
1955.000000	53.268990
1954.000000	53.321855
1953.000000	53.378890
1952.000000	53.441250
1951.000000	53.512379
1950.000000	53.582518
1949.000000	53.638586
1948.000000	53.681292
1947.000000	53.717111
1946.000000	53.740358
1945.000000	53.744991
1944.000000	53.752634
1943.000000	53.797968
1942.000000	53.879120
1941.000000	53.959042
1940.000000	54.018536
1939.000000	54.068501
1938.000000	54.116372
1937.000000	54.151360
1936.000000	54.166705
1935.000000	54.175596
1934.000000	54.194994
1933.000000	54.227844
1932.000000	54.276447
1931.000000	54.341908
1930.000000	54.415485
1929.000000	54.484936
1928.000000	54.538166
1927.000000	54.566762
1926.000000	54.555465
1925.000000	54.512317
1924.000000	54.488752
1923.000000	54.533131
1922.000000	54.632409
1921.000000	54.737467
1920.000000	54.824007
1919.000000	54.901431
1918.000000	54.964161
1917.000000	54.981080
1916.000000	54.948649
1915.000000	54.906760
1914.000000	54.887214
1913.000000	54.885422
1912.000000	54.893002
1911.000000	54.921983
1910.000000	54.985962
1909.000000	55.072905
1908.000000	55.151413
1907.000000	55.207176
1906.000000	55.235608
1905.000000	55.239551
1904.000000	55.235221
1903.000000	55.242779
1902.000000	55.272906
1901.000000	55.322891
1900.000000	55.381352
1899.000000	55.437801
1898.000000	55.475096
1897.000000	55.483243
1896.000000	55.478338
1895.000000	55.483264
1894.000000	55.495537
1893.000000	55.497168
1892.000000	55.490120
1891.000000	55.504573
1890.000000	55.560060
1889.000000	55.625798
1888.000000	55.656392
1887.000000	55.646816
1886.000000	55.619039
1885.000000	55.587557
1884.000000	55.558677
1883.000000	55.538682
1882.000000	55.535721
1881.000000	55.555500
1880.000000	55.597184
1879.000000	55.655925
1878.000000	55.715513
1877.000000	55.750583
1876.000000	55.753326
1875.000000	55.740048
1874.000000	55.728998
1873.000000	55.727596
1872.000000	55.734845
1871.000000	55.745461
1870.000000	55.760586
1869.000000	55.787664
1868.000000	55.815292
1867.000000	55.823549
1866.000000	55.808053
1865.000000	55.772178
1864.000000	55.723983
1863.000000	55.679807
1862.000000	55.654059
1861.000000	55.651647
1860.000000	55.673066
1859.000000	55.715067
1858.000000	55.761249
1857.000000	55.785645
1856.000000	55.774320
1855.000000	55.735529
1854.000000	55.683451
1853.000000	55.631652
1852.000000	55.581795
1851.000000	55.542838
1850.000000	55.533269
1849.000000	55.569431
1848.000000	55.654107
1847.000000	55.764094
1846.000000	55.848343
1845.000000	55.851980
1844.000000	55.758175
1843.000000	55.601812
1842.000000	55.447545
1841.000000	55.342833
1840.000000	55.297457
1839.000000	55.298880
1838.000000	55.314401
1837.000000	55.312471
1836.000000	55.285104
1835.000000	55.245846
1834.000000	55.208352
1833.000000	55.167758
1832.000000	55.107859
1831.000000	55.051800
1830.000000	55.034274
1829.000000	55.024211
1828.000000	54.981587
1827.000000	54.917170
1826.000000	54.851297
1825.000000	54.773828
1824.000000	54.664740
1823.000000	54.539367
1822.000000	54.433683
1821.000000	54.358273
1820.000000	54.301903
1819.000000	54.260503
1818.000000	54.227062
1817.000000	54.185101
1816.000000	54.117898
1815.000000	54.017671
1814.000000	53.892605
1813.000000	53.757637
1812.000000	53.644612
1811.000000	53.579373
1810.000000	53.546534
1809.000000	53.521460
1808.000000	53.503692
1807.000000	53.496466
1806.000000	53.477874
1805.000000	53.419645
1804.000000	53.326972
1803.000000	53.233596
1802.000000	53.175369
1801.000000	53.146886
1800.000000	53.118182
1799.000000	53.074161
1798.000000	53.029392
1797.000000	53.016681
1796.000000	53.055200
1795.000000	53.118149
1794.000000	53.138475
1793.000000	53.066751
1792.000000	52.930983
1791.000000	52.789232
1790.000000	52.677130
1789.000000	52.606859
1788.000000	52.571004
1787.000000	52.547456
1786.000000	52.504474
1785.000000	52.417474
1784.000000	52.282572
1783.000000	52.110618
1782.000000	51.940047
1781.000000	51.802471
1780.000000	51.705358
1779.000000	51.635174
1778.000000	51.578530
1777.000000	51.539515
1776.000000	51.522110
1775.000000	51.515427
1774.000000	51.484347
1773.000000	51.396779
1772.000000	51.247808
1771.000000	51.053148
1770.000000	50.848349
1769.000000	50.676722
1768.000000	50.563037
1767.000000	50.492063
1766.000000	50.431916
1765.000000	50.363470
1764.000000	50.281491
1763.000000	50.182252
1762.000000	50.060800
1761.000000	49.906385
1760.000000	49.750104
1759.000000	49.635550
1758.000000	49.571356
1757.000000	49.528293
1756.000000	49.458087
1755.000000	49.351747
1754.000000	49.228170
1753.000000	49.086958
1752.000000	48.912031
1751.000000	48.714408
1750.000000	48.517109
1749.000000	48.341274
1748.000000	48.195454
1747.000000	48.064598
1746.000000	47.930634
1745.000000	47.789583
1744.000000	47.676629
1743.000000	47.619588
1742.000000	47.571076
1741.000000	47.447182
1740.000000	47.246219
1739.000000	47.052697
1738.000000	46.931251
1737.000000	46.870821
1736.000000	46.789225
1735.000000	46.585270
1734.000000	46.226955
1733.000000	45.766554
1732.000000	45.329688
1731.000000	45.005141
1730.000000	44.781989
1729.000000	44.597153
1728.000000	44.397587
1727.000000	44.180447
1726.000000	43.950392
1725.000000	43.686932
1724.000000	43.405280
1723.000000	43.163069
1722.000000	42.986540
1721.000000	42.831287
1720.000000	42.614076
1719.000000	42.300421
1718.000000	41.937168
1717.000000	41.561190
1716.000000	41.187028
1715.000000	40.834164
1714.000000	40.487072
1713.000000	40.125552
1712.000000	39.768621
1711.000000	39.449617
1710.000000	39.179590
1709.000000	38.937946
1708.000000	38.683694
1707.000000	38.394283
1706.000000	38.086635
1705.000000	37.808950
1704.000000	37.627689
1703.000000	37.576826
1702.000000	37.538630
1701.000000	37.249133
1700.000000	36.646191
1699.000000	35.986894
1698.000000	35.474590
1697.000000	35.117123
1696.000000	34.809815
1695.000000	34.440869
1694.000000	34.031962
1693.000000	33.643118
1692.000000	33.282206
1691.000000	32.940500
1690.000000	32.615141
1689.000000	32.327941
1688.000000	32.106340
1687.000000	31.962790
1686.000000	31.811008
1685.000000	31.538032
1684.000000	31.138171
1683.000000	30.657436
1682.000000	30.190339
1681.000000	29.813624
1680.000000	29.546465
1679.000000	29.381431
1678.000000	29.271529
1677.000000	29.136028
1676.000000	28.897748
1675.000000	28.557050
1674.000000	28.197056
1673.000000	27.885431
1672.000000	27.625882
1671.000000	27.377083
1670.000000	27.089643
1669.000000	26.743570
1668.000000	26.384669
1667.000000	26.093093
1666.000000	25.886502
1665.000000	25.705296
1664.000000	25.484162
1663.000000	25.206668
1662.000000	24.895676
1661.000000	24.578383
1660.000000	24.282989
1659.000000	24.043515
1658.000000	23.879382
1657.000000	23.784728
1656.000000	23.736427
1655.000000	23.666958
1654.000000	23.481894
1653.000000	23.098361
1652.000000	22.604525
1651.000000	22.232935
1650.000000	22.008275
1649.000000	21.819522
1648.000000	21.615508
1647.000000	21.390778
1646.000000	21.129282
1645.000000	20.834958
1644.000000	20.563146
1643.000000	20.337889
1642.000000	20.149851
1641.000000	19.978899
1640.000000	19.820294
1639.000000	19.689768
1638.000000	19.579929
1637.000000	19.451341
1636.000000	19.260866
1635.000000	18.996511
1634.000000	18.708042
1633.000000	18.456259
1632.000000	18.261538
1631.000000	18.114606
1630.000000	17.983916
1629.000000	17.838369
1628.000000	17.682070
1627.000000	17.542251
1626.000000	17.428130
1625.000000	17.312877
1624.000000	17.173718
1623.000000	17.022226
1622.000000	16.882336
1621.000000	16.768417
1620.000000	16.685073
1619.000000	16.627353
1618.000000	16.572430
1617.000000	16.490805
1616.000000	16.377097
1615.000000	16.264279
1614.000000	16.180414
1613.000000	16.120732
1612.000000	16.072256
1611.000000	16.028954
1610.000000	15.989056
1609.000000	15.949171
1608.000000	15.910747
1607.000000	15.881280
1606.000000	15.863956
1605.000000	15.850922
1604.000000	15.837077
1603.000000	15.831354
1602.000000	15.837681
1601.000000	15.844840
1600.000000	15.843956
1599.000000	15.840571
1598.000000	15.840640
1597.000000	15.840247
1596.000000	15.839472
1595.000000	15.848155
1594.000000	15.869068
1593.000000	15.890970
1592.000000	15.906434
1591.000000	15.921339
1590.000000	15.940191
1589.000000	15.955738
1588.000000	15.962790
1587.000000	15.968128
1586.000000	15.977898
1585.000000	15.989751
1584.000000	15.998184
1583.000000	16.006544
1582.000000	16.020683
1581.000000	16.036058
1580.000000	16.045185
1579.000000	16.050499
1578.000000	16.055461
1577.000000	16.052306
1576.000000	16.026891
1575.000000	15.982374
1574.000000	15.949983
1573.000000	15.948296
1572.000000	15.967408
1571.000000	15.983200
1570.000000	15.977189
1569.000000	15.941962
1568.000000	15.884894
1567.000000	15.838899
1566.000000	15.827729
1565.000000	15.847893
1564.000000	15.897175
1563.000000	15.989138
1562.000000	16.152351
1561.000000	16.338484
1560.000000	16.455786
1559.000000	16.551598
1558.000000	16.590718
1557.000000	16.545832
1556.000000	16.523054
1555.000000	16.568904
1554.000000	16.677497
1553.000000	16.794585
1552.000000	16.899318
1551.000000	17.022060
1550.000000	17.191025
1549.000000	17.383697
1548.000000	17.562129
1547.000000	17.724729
1546.000000	17.895766
1545.000000	18.098934
1544.000000	18.337131
1543.000000	18.591431
1542.000000	18.829352
1541.000000	19.060606
1540.000000	19.307198
1539.000000	19.507402
1538.000000	19.647690
1537.000000	19.790286
1536.000000	19.968338
1535.000000	20.194622
1534.000000	20.474771
1533.000000	20.775563
1532.000000	21.042857
1531.000000	21.292023
1530.000000	21.566902
1529.000000	21.873908
1528.000000	22.204473
1527.000000	22.567430
1526.000000	22.966162
1525.000000	23.368047
1524.000000	23.746630
1523.000000	24.137143
1522.000000	24.613905
1521.000000	25.146095
1520.000000	25.601669
1519.000000	25.956351
1518.000000	26.304353
1517.000000	26.724147
1516.000000	27.189962
1515.000000	27.636701
1514.000000	28.070837
1513.000000	28.517050
1512.000000	28.975082
1511.000000	29.427976
1510.000000	29.874181
1509.000000	30.322291
1508.000000	30.879813
1507.000000	31.663711
1506.000000	32.388237
1505.000000	32.802142
1504.000000	33.069010
1503.000000	33.377274
1502.000000	33.815281
1501.000000	34.360747
1500.000000	34.925839
1499.000000	35.448601
1498.000000	35.937371
1497.000000	36.411357
1496.000000	36.855753
1495.000000	37.264757
1494.000000	37.664326
1493.000000	38.065725
1492.000000	38.451587
1491.000000	38.834926
1490.000000	39.262020
1489.000000	39.703339
1488.000000	40.091953
1487.000000	40.425432
1486.000000	40.724344
1485.000000	40.996388
1484.000000	41.242206
1483.000000	41.488479
1482.000000	41.762342
1481.000000	42.045708
1480.000000	42.303821
1479.000000	42.527934
1478.000000	42.715690
1477.000000	42.848362
1476.000000	42.930901
1475.000000	42.983477
1474.000000	43.005597
1473.000000	42.966850
1472.000000	42.823731
1471.000000	42.585336
1470.000000	42.312841
1469.000000	42.038179
1468.000000	41.751198
1467.000000	41.401387
1466.000000	40.898218
1465.000000	40.182811
1464.000000	39.322220
1463.000000	38.490832
1462.000000	37.791209
1461.000000	37.193506
1460.000000	36.615460
1459.000000	35.956715
1458.000000	35.085548
1457.000000	33.889448
1456.000000	32.505182
1455.000000	31.225594
1454.000000	30.080383
1453.000000	28.906657
1452.000000	27.639447
1451.000000	26.314762
1450.000000	24.922875
1449.000000	23.381885
1448.000000	21.702265
1447.000000	20.012427
1446.000000	18.393984
1445.000000	16.823264
1444.000000	15.280465
1443.000000	13.787106
1442.000000	12.346539
1441.000000	10.968454
1440.000000	9.707649
1439.000000	8.575774
1438.000000	7.451477
1437.000000	6.233288
1436.000000	5.075372
1435.000000	4.204283
1434.000000	3.596037
1433.000000	3.104527
1432.000000	2.687803
1431.000000	2.374934
1430.000000	2.146347
1429.000000	1.957695
1428.000000	1.834760
1427.000000	1.817357
1426.000000	1.875316
1425.000000	1.968469
1424.000000	2.123574
1423.000000	2.369598
1422.000000	2.668896
1421.000000	2.993878
1420.000000	3.403259
1419.000000	3.945997
1418.000000	4.539004
1417.000000	5.096308
1416.000000	5.663706
1415.000000	6.306881
1414.000000	7.011071
1413.000000	7.745553
1412.000000	8.537024
1411.000000	9.415705
1410.000000	10.346553
1409.000000	11.285405
1408.000000	12.248909
1407.000000	13.272122
1406.000000	14.356204
1405.000000	15.488784
1404.000000	16.656366
1403.000000	17.823350
1402.000000	18.960944
1401.000000	20.102941
1400.000000	21.316499
1399.000000	22.593887
1398.000000	23.844617
1397.000000	25.045914
1396.000000	26.290424
1395.000000	27.634753
1394.000000	29.001716
1393.000000	30.294359
1392.000000	31.516999
1391.000000	32.718338
1390.000000	33.917225
1389.000000	35.119729
1388.000000	36.332208
1387.000000	37.512981
1386.000000	38.574930
1385.000000	39.484994
1384.000000	40.276518
1383.000000	40.967274
1382.000000	41.529363
1381.000000	41.924813
1380.000000	42.122996
1379.000000	42.079607
1378.000000	41.740777
1377.000000	41.058848
1376.000000	39.978217
1375.000000	38.456248
1374.000000	36.535844
1373.000000	34.368257
1372.000000	32.150239
1371.000000	30.050908
1370.000000	28.229211
1369.000000	26.877031
1368.000000	26.168674
1367.000000	26.164581
1366.000000	26.801396
1365.000000	27.971311
1364.000000	29.578445
1363.000000	31.511303
1362.000000	33.577933
1361.000000	35.552392
1360.000000	37.288192
1359.000000	38.726928
1358.000000	39.839479
1357.000000	40.599078
1356.000000	40.978787
1355.000000	40.961063
1354.000000	40.546633
1353.000000	39.746261
1352.000000	38.576230
1351.000000	37.052158
1350.000000	35.200211
1349.000000	33.068639
1348.000000	30.713970
1347.000000	28.198213
1346.000000	25.589413
1345.000000	22.961548
1344.000000	20.392113
1343.000000	17.948565
1342.000000	15.670849
1341.000000	13.586243
1340.000000	11.745130
1339.000000	10.218848
1338.000000	9.052737
1337.000000	8.228743
1336.000000	7.682477
1335.000000	7.333642
1334.000000	7.086682
1333.000000	6.839026
1332.000000	6.507611
1331.000000	6.048841
1330.000000	5.460245
1329.000000	4.772215
1328.000000	4.041521
1327.000000	3.334396
1326.000000	2.699978
1325.000000	2.160906
1324.000000	1.726889
1323.000000	1.402762
1322.000000	1.178220
1321.000000	1.028527
1320.000000	0.933811
1319.000000	0.882851
1318.000000	0.859608
1317.000000	0.843228
1316.000000	0.823757
1315.000000	0.804607
1314.000000	0.786068
1313.000000	0.762278
1312.000000	0.734971
1311.000000	0.713777
1310.000000	0.701633
1309.000000	0.694028
1308.000000	0.693865
1307.000000	0.711538
1306.000000	0.749484
1305.000000	0.801888
1304.000000	0.869397
1303.000000	0.959386
1302.000000	1.071347
1301.000000	1.196256
1300.000000	1.331824
1299.000000	1.483027
1298.000000	1.648107
1297.000000	1.819274
1296.000000	1.996396
1295.000000	2.186439
1294.000000	2.389157
1293.000000	2.597265
1292.000000	2.809605
1291.000000	3.030023
1290.000000	3.253602
1289.000000	3.466678
1288.000000	3.658629
1287.000000	3.821078
1286.000000	3.939492
1285.000000	4.000409
1284.000000	4.009500
1283.000000	3.993233
1282.000000	3.983320
1281.000000	4.007809
1280.000000	4.091632
1279.000000	4.248657
1278.000000	4.470675
1277.000000	4.736158
1276.000000	5.028898
1275.000000	5.340773
1274.000000	5.662493
1273.000000	5.984800
1272.000000	6.307675
1271.000000	6.635295
1270.000000	6.964138
1269.000000	7.286293
1268.000000	7.600886
1267.000000	7.912088
1266.000000	8.219003
1265.000000	8.517830
1264.000000	8.811308
1263.000000	9.106427
1262.000000	9.404679
1261.000000	9.703717
1260.000000	10.004797
1259.000000	10.309157
1258.000000	10.611122
1257.000000	10.903844
1256.000000	11.188762
1255.000000	11.471682
1254.000000	11.753958
1253.000000	12.035069
1252.000000	12.319417
1251.000000	12.612012
1250.000000	12.910333
1249.000000	13.207306
1248.000000	13.499376
1247.000000	13.785831
1246.000000	14.064144
1245.000000	14.332961
1244.000000	14.597184
1243.000000	14.863955
1242.000000	15.135610
1241.000000	15.411148
1240.000000	15.690899
1239.000000	15.973994
1238.000000	16.254387
1237.000000	16.524874
1236.000000	16.783506
1235.000000	17.032815
1234.000000	17.275797
1233.000000	17.516669
1232.000000	17.762217
1231.000000	18.017657
1230.000000	18.282279
1229.000000	18.551394
1228.000000	18.820430
1227.000000	19.084963
1226.000000	19.340511
1225.000000	19.586117
1224.000000	19.826327
1223.000000	20.067680
1222.000000	20.315269
1221.000000	20.573211
1220.000000	20.844152
1219.000000	21.125669
1218.000000	21.409751
1217.000000	21.687670
1216.000000	21.953942
1215.000000	22.206519
1214.000000	22.447408
1213.000000	22.684020
1212.000000	22.926331
1211.000000	23.180747
1210.000000	23.447869
1209.000000	23.724963
1208.000000	24.006943
1207.000000	24.285426
1206.000000	24.551411
1205.000000	24.801018
1204.000000	25.036922
1203.000000	25.265312
1202.000000	25.494266
1201.000000	25.732526
1200.000000	25.985032
1199.000000	26.248087
1198.000000	26.510485
1197.000000	26.758777
1196.000000	26.978687
1195.000000	27.156366
1194.000000	27.282124
1193.000000	27.352672
1192.000000	27.369064
1191.000000	27.332249
1190.000000	27.246383
1189.000000	27.124722
1188.000000	26.990374
1187.000000	26.872806
1186.000000	26.802118
1185.000000	26.801715
1184.000000	26.882171
1183.000000	27.041446
1182.000000	27.269336
1181.000000	27.554596
1180.000000	27.885242
1179.000000	28.245654
1178.000000	28.619147
1177.000000	28.989596
1176.000000	29.341388
1175.000000	29.661227
1174.000000	29.944668
1173.000000	30.199448
1172.000000	30.440015
1171.000000	30.680950
1170.000000	30.935095
1169.000000	31.210936
1168.000000	31.505870
1167.000000	31.805694
1166.000000	32.093763
1165.000000	32.359330
1164.000000	32.598221
1163.000000	32.812634
1162.000000	33.014316
1161.000000	33.221898
1160.000000	33.450133
1159.000000	33.703245
1158.000000	33.977275
1157.000000	34.262468
1156.000000	34.541540
1155.000000	34.794164
1154.000000	35.010271
1153.000000	35.195972
1152.000000	35.366049
1151.000000	35.536473
1150.000000	35.723679
1149.000000	35.940465
1148.000000	36.185731
1147.000000	36.443016
1146.000000	36.691947
1145.000000	36.917236
1144.000000	37.108806
1143.000000	37.264114
1142.000000	37.395476
1141.000000	37.527263
1140.000000	37.680653
1139.000000	37.864601
1138.000000	38.078794
1137.000000	38.315090
1136.000000	38.553686
1135.000000	38.768545
1134.000000	38.944420
1133.000000	39.084998
1132.000000	39.204847
1131.000000	39.322141
1130.000000	39.458634
1129.000000	39.633321
1128.000000	39.848615
1127.000000	40.087627
1126.000000	40.327120
1125.000000	40.547620
1124.000000	40.733611
1123.000000	40.877863
1122.000000	40.991532
1121.000000	41.101323
1120.000000	41.232124
1119.000000	41.396980
1118.000000	41.599965
1117.000000	41.835341
1116.000000	42.081223
1115.000000	42.306056
1114.000000	42.488931
1113.000000	42.629202
1112.000000	42.738246
1111.000000	42.833928
1110.000000	42.942939
1109.000000	43.091926
1108.000000	43.288413
1107.000000	43.516506
1106.000000	43.751323
1105.000000	43.969012
1104.000000	44.145872
1103.000000	44.266307
1102.000000	44.338549
1101.000000	44.393618
1100.000000	44.463531
1099.000000	44.568893
1098.000000	44.721812
1097.000000	44.922281
1096.000000	45.149168
1095.000000	45.366736
1094.000000	45.548330
1093.000000	45.687832
1092.000000	45.791748
1091.000000	45.875542
1090.000000	45.968343
1089.000000	46.103046
1088.000000	46.293021
1087.000000	46.525476
1086.000000	46.776449
1085.000000	47.020947
1084.000000	47.231056
1083.000000	47.384585
1082.000000	47.484268
1081.000000	47.558288
1080.000000	47.638730
1079.000000	47.748103
1078.000000	47.901960
1077.000000	48.103338
1076.000000	48.329571
1075.000000	48.538774
1074.000000	48.695786
1073.000000	48.786229
1072.000000	48.807554
1071.000000	48.766481
1070.000000	48.685562
1069.000000	48.590650
1068.000000	48.487445
1067.000000	48.355945
1066.000000	48.171029
1065.000000	47.919521
1064.000000	47.602374
1063.000000	47.242855
1062.000000	46.896645
1061.000000	46.637049
1060.000000	46.520197
1059.000000	46.569863
1058.000000	46.781955
1057.000000	47.129899
1056.000000	47.563402
1055.000000	48.017971
1054.000000	48.442248
1053.000000	48.808615
1052.000000	49.105963
1051.000000	49.340165
1050.000000	49.542433
1049.000000	49.756683
1048.000000	50.008952
1047.000000	50.296944
1046.000000	50.604948
1045.000000	50.912734
1044.000000	51.190048
1043.000000	51.406786
1042.000000	51.558002
1041.000000	51.667511
1040.000000	51.766473
1039.000000	51.880653
1038.000000	52.034011
1037.000000	52.241102
1036.000000	52.488630
1035.000000	52.739569
1034.000000	52.960145
1033.000000	53.134215
1032.000000	53.256285
1031.000000	53.332085
1030.000000	53.389894
1029.000000	53.471445
1028.000000	53.603504
1027.000000	53.786721
1026.000000	54.008470
1025.000000	54.248770
1024.000000	54.474143
1023.000000	54.648664
1022.000000	54.761559
1021.000000	54.832422
1020.000000	54.889515
1019.000000	54.957675
1018.000000	55.062896
1017.000000	55.224337
1016.000000	55.433793
1015.000000	55.657249
1014.000000	55.860613
1013.000000	56.023938
1012.000000	56.135724
1011.000000	56.196388
1010.000000	56.231458
1009.000000	56.282451
1008.000000	56.377739
1007.000000	56.521718
1006.000000	56.706934
1005.000000	56.917434
1004.000000	57.120960
1003.000000	57.280297
1002.000000	57.381421
1001.000000	57.439549
1000.000000	57.479176
999.000000	57.523439
998.000000	57.599077
997.000000	57.728033
996.000000	57.906413
995.000000	58.104593
994.000000	58.291240
993.000000	58.445912
992.000000	58.553119
991.000000	58.607182
990.000000	58.628127
989.000000	58.655047
988.000000	58.717741
987.000000	58.825196
986.000000	58.975462
985.000000	59.156702
984.000000	59.338040
983.000000	59.480667
982.000000	59.566578
981.000000	59.606167
980.000000	59.619861
979.000000	59.629244
978.000000	59.662824
977.000000	59.746295
976.000000	59.879163
975.000000	60.034232
974.000000	60.182529
973.000000	60.304996
972.000000	60.384812
971.000000	60.412390
970.000000	60.403500
969.000000	60.394428
968.000000	60.414325
967.000000	60.473831
966.000000	60.575184
965.000000	60.712091
964.000000	60.857898
963.000000	60.974527
962.000000	61.041140
961.000000	61.063073
960.000000	61.054712
959.000000	61.032970
958.000000	61.025654
957.000000	61.062170
956.000000	61.147957
955.000000	61.261579
954.000000	61.377763
953.000000	61.477839
952.000000	61.541775
951.000000	61.554473
950.000000	61.526084
949.000000	61.488918
948.000000	61.470604
947.000000	61.482882
946.000000	61.531907
945.000000	61.616563
944.000000	61.714451
943.000000	61.789725
942.000000	61.821649
941.000000	61.812718
940.000000	61.771313
939.000000	61.707870
938.000000	61.647028
937.000000	61.619418
936.000000	61.634599
935.000000	61.676433
934.000000	61.724802
933.000000	61.764722
932.000000	61.776133
931.000000	61.739226
930.000000	61.655810
929.000000	61.549584
928.000000	61.442835
927.000000	61.347334
926.000000	61.274977
925.000000	61.233207
924.000000	61.207059
923.000000	61.164650
922.000000	61.084477
921.000000	60.963601
920.000000	60.801359
919.000000	60.597815
918.000000	60.369831
917.000000	60.145798
916.000000	59.940319
915.000000	59.746915
914.000000	59.554475
913.000000	59.353121
912.000000	59.122738
911.000000	58.839183
910.000000	58.496009
909.000000	58.106109
908.000000	57.682668
907.000000	57.233418
906.000000	56.772874
905.000000	56.316742
904.000000	55.860789
903.000000	55.382897
902.000000	54.864427
901.000000	54.297118
900.000000	53.670489
899.000000	52.973043
898.000000	52.211241
897.000000	51.407266
896.000000	50.578358
895.000000	49.729064
894.000000	48.860135
893.000000	47.970486
892.000000	47.045517
891.000000	46.061553
890.000000	45.004911
889.000000	43.876428
888.000000	42.682510
887.000000	41.431996
886.000000	40.142468
885.000000	38.834820
884.000000	37.517260
883.000000	36.184164
882.000000	34.826938
881.000000	33.439535
880.000000	32.016153
879.000000	30.554668
878.000000	29.065346
877.000000	27.570497
876.000000	26.095150
875.000000	24.659832
874.000000	23.281135
873.000000	21.969843
872.000000	20.728839
871.000000	19.554664
870.000000	18.441411
869.000000	17.388747
868.000000	16.401623
867.000000	15.486821
866.000000	14.650283
865.000000	13.894354
864.000000	13.219873
863.000000	12.622120
862.000000	12.089710
861.000000	11.610722
860.000000	11.175502
859.000000	10.776971
858.000000	10.407954
857.000000	10.064708
856.000000	9.751332
855.000000	9.473810
854.000000	9.235075
853.000000	9.035514
852.000000	8.875671
851.000000	8.754889
850.000000	8.667201
849.000000	8.606337
848.000000	8.571756
847.000000	8.567479
846.000000	8.599332
845.000000	8.673830
844.000000	8.799827
843.000000	8.984565
842.000000	9.228546
841.000000	9.529348
840.000000	9.884469
839.000000	10.291711
838.000000	10.747491
837.000000	11.249938
836.000000	11.803038
835.000000	12.413491
834.000000	13.082191
833.000000	13.792986
832.000000	14.491603
831.000000	15.036475
830.000000	15.163970
829.000000	14.541125
828.000000	12.969020
827.000000	10.635123
826.000000	8.149941
825.000000	6.252929
824.000000	5.397975
823.000000	5.569167
822.000000	6.439079
821.000000	7.656204
820.000000	8.986384
819.000000	10.297587
818.000000	11.523013
817.000000	12.645852
816.000000	13.684947
815.000000	14.662620
814.000000	15.595291
813.000000	16.502587
812.000000	17.399741
811.000000	18.280697
810.000000	19.123160
809.000000	19.909305
808.000000	20.628980
807.000000	21.277401
806.000000	21.866290
805.000000	22.431870
804.000000	23.013438
803.000000	23.626103
802.000000	24.264664
801.000000	24.920117
800.000000	25.577887
799.000000	26.211273
798.000000	26.797010
797.000000	27.335308
796.000000	27.844018
795.000000	28.343698
794.000000	28.858754
793.000000	29.417311
792.000000	30.030940
791.000000	30.679640
790.000000	31.327563
789.000000	31.945694
788.000000	32.513256
787.000000	33.016751
786.000000	33.465997
785.000000	33.899977
784.000000	34.361456
783.000000	34.871340
782.000000	35.431112
781.000000	36.031072
780.000000	36.642409
779.000000	37.217478
778.000000	37.717930
777.000000	38.139673
776.000000	38.505177
775.000000	38.846236
774.000000	39.202045
773.000000	39.612137
772.000000	40.090603
771.000000	40.612614
770.000000	41.134349
769.000000	41.617140
768.000000	42.029717
767.000000	42.352284
766.000000	42.597587
765.000000	42.814761
764.000000	43.058250
763.000000	43.359128
762.000000	43.726224
761.000000	44.151293
760.000000	44.598970
759.000000	45.010948
758.000000	45.340991
757.000000	45.582504
756.000000	45.759850
755.000000	45.911587
754.000000	46.088491
753.000000	46.341397
752.000000	46.689078
751.000000	47.104858
750.000000	47.540220
749.000000	47.948704
748.000000	48.287340
747.000000	48.526671
746.000000	48.679565
745.000000	48.803544
744.000000	48.960131
743.000000	49.182259
742.000000	49.479605
741.000000	49.845359
740.000000	50.241188
739.000000	50.599570
738.000000	50.865018
737.000000	51.025930
736.000000	51.103030
735.000000	51.130024
734.000000	51.154983
733.000000	51.231199
732.000000	51.382092
731.000000	51.583903
730.000000	51.790396
729.000000	51.959351
728.000000	52.052912
727.000000	52.045245
726.000000	51.952645
725.000000	51.838722
724.000000	51.773772
723.000000	51.800119
722.000000	51.936890
721.000000	52.186407
720.000000	52.516729
719.000000	52.862496
718.000000	53.167524
717.000000	53.416908
716.000000	53.622899
715.000000	53.807733
714.000000	54.011984
713.000000	54.288053
712.000000	54.659951
711.000000	55.102105
710.000000	55.567334
709.000000	56.014411
708.000000	56.402907
707.000000	56.697284
706.000000	56.900822
705.000000	57.064742
704.000000	57.246850
703.000000	57.477103
702.000000	57.766888
701.000000	58.117752
700.000000	58.502231
699.000000	58.863066
698.000000	59.154325
697.000000	59.368840
696.000000	59.519155
695.000000	59.623425
694.000000	59.722101
693.000000	59.872721
692.000000	60.103333
691.000000	60.391782
690.000000	60.702721
689.000000	61.015440
688.000000	61.301997
687.000000	61.519828
686.000000	61.656632
685.000000	61.754308
684.000000	61.867083
683.000000	62.021997
682.000000	62.232436
681.000000	62.509707
680.000000	62.834896
679.000000	63.151652
678.000000	63.415073
677.000000	63.619302
676.000000	63.772516
675.000000	63.883910
674.000000	63.987031
673.000000	64.135979
672.000000	64.359943
671.000000	64.655781
670.000000	65.027543
669.000000	65.485028
668.000000	65.950247
667.000000	66.221547
666.000000	66.228154
665.000000	66.143894
664.000000	66.128617
663.000000	66.220232
662.000000	66.401990
661.000000	66.649131
660.000000	66.935086
659.000000	67.218661
658.000000	67.464199
657.000000	67.661413
656.000000	67.814837
655.000000	67.933557
654.000000	68.044484
653.000000	68.187714
652.000000	68.382523
651.000000	68.614641
650.000000	68.860940
649.000000	69.106583
648.000000	69.330823
647.000000	69.505970
646.000000	69.630116
645.000000	69.737534
644.000000	69.861061
643.000000	70.007049
642.000000	70.176971
641.000000	70.381834
640.000000	70.615960
639.000000	70.844620
638.000000	71.038023
637.000000	71.198264
636.000000	71.340600
635.000000	71.474486
634.000000	71.616867
633.000000	71.793073
632.000000	72.006921
631.000000	72.233685
630.000000	72.453058
629.000000	72.663405
628.000000	72.856600
627.000000	73.014282
626.000000	73.144061
625.000000	73.282872
624.000000	73.448352
623.000000	73.620091
622.000000	73.782281
621.000000	73.946344
620.000000	74.115242
619.000000	74.267434
618.000000	74.395156
617.000000	74.522212
616.000000	74.664125
615.000000	74.805547
614.000000	74.932181
613.000000	75.046124
612.000000	75.131328
611.000000	75.146538
610.000000	75.065852
609.000000	74.887388
608.000000	74.588461
607.000000	74.095988
606.000000	73.319875
605.000000	72.148873
604.000000	70.385889
603.000000	67.738902
602.000000	63.885071
601.000000	58.612267
600.000000	52.016370
599.000000	44.695909
598.000000	37.713221
597.000000	32.213434
596.000000	28.978336
595.000000	28.201598
594.000000	29.524783
593.000000	32.263354
592.000000	35.726560
591.000000	39.381050
590.000000	42.885339
589.000000	46.108141
588.000000	49.051585
587.000000	51.745818
586.000000	54.204132
585.000000	56.435365
584.000000	58.438557
583.000000	60.202958
582.000000	61.739860
581.000000	63.095817
580.000000	64.307277
579.000000	65.365134
578.000000	66.276355
577.000000	67.101410
576.000000	67.892085
575.000000	68.635219
574.000000	69.293363
573.000000	69.868424
572.000000	70.373676
571.000000	70.796961
570.000000	71.143218
569.000000	71.464898
568.000000	71.807740
567.000000	72.166951
566.000000	72.527055
565.000000	72.898153
564.000000	73.273176
563.000000	73.603102
562.000000	73.856634
561.000000	74.060399
560.000000	74.248262
559.000000	74.420702
558.000000	74.587575
557.000000	74.792029
556.000000	75.053557
555.000000	75.332891
554.000000	75.586364
553.000000	75.807850
552.000000	75.990426
551.000000	76.106494
550.000000	76.165128
549.000000	76.231784
548.000000	76.355212
547.000000	76.527256
546.000000	76.735077
545.000000	76.988316
544.000000	77.262659
543.000000	77.486151
542.000000	77.620337
541.000000	77.702205
540.000000	77.774659
539.000000	77.840925
538.000000	77.915707
537.000000	78.048491
536.000000	78.253197
535.000000	78.474022
534.000000	78.660336
533.000000	78.817506
532.000000	78.949735
531.000000	79.022451
530.000000	79.029015
529.000000	79.026349
528.000000	79.059762
527.000000	79.112700
526.000000	79.166824
525.000000	79.231308
524.000000	79.271444
523.000000	79.188034
522.000000	78.904870
521.000000	78.414514
520.000000	77.722987
519.000000	76.820341
518.000000	75.755139
517.000000	74.681957
516.000000	73.775914
515.000000	73.145072
514.000000	72.836263
513.000000	72.847320
512.000000	73.085371
511.000000	73.372999
510.000000	73.543432
509.000000	73.492747
508.000000	73.116054
507.000000	72.284605
506.000000	70.934253
505.000000	69.102687
504.000000	66.866921
503.000000	64.381015
502.000000	62.016599
501.000000	60.273499
500.000000	59.463345
499.000000	59.575360
498.000000	60.420601
497.000000	61.743470
496.000000	63.232913
495.000000	64.578330
494.000000	65.590748
493.000000	66.276312
492.000000	66.763607
491.000000	67.201566
490.000000	67.727047
489.000000	68.439710
488.000000	69.342450
487.000000	70.350416
486.000000	71.390654
485.000000	72.452281
484.000000	73.514668
483.000000	74.496951
482.000000	75.338196
481.000000	76.055778
480.000000	76.668467
479.000000	77.148989
478.000000	77.503823
477.000000	77.820560
476.000000	78.167362
475.000000	78.514789
474.000000	78.822326
473.000000	79.124436
472.000000	79.435806
471.000000	79.647991
470.000000	79.683521
469.000000	79.627336
468.000000	79.601056
467.000000	79.636291
466.000000	79.714378
465.000000	79.844197
464.000000	80.012849
463.000000	80.144133
462.000000	80.201806
461.000000	80.243137
460.000000	80.284804
459.000000	80.220543
458.000000	80.001468
457.000000	79.763036
456.000000	79.619766
455.000000	79.536239
454.000000	79.458243
453.000000	79.395290
452.000000	79.325523
451.000000	79.110009
450.000000	78.627483
449.000000	77.905350
448.000000	77.032905
447.000000	76.034654
446.000000	74.889222
445.000000	73.558585
444.000000	71.907953
443.000000	69.704805
442.000000	66.812147
441.000000	63.340280
440.000000	59.542546
439.000000	55.684724
438.000000	52.062231
437.000000	49.069845
436.000000	47.108091
435.000000	46.376378
434.000000	46.791963
433.000000	48.133079
432.000000	50.185923
431.000000	52.674444
430.000000	55.296738
429.000000	57.905293
428.000000	60.471904
427.000000	62.917405
426.000000	65.160955
425.000000	67.268599
424.000000	69.305861
423.000000	71.136773
422.000000	72.585998
421.000000	73.696642
420.000000	74.558119
419.000000	75.227868
418.000000	75.831817
417.000000	76.483369
416.000000	77.231180
415.000000	77.962908
414.000000	78.529140
413.000000	78.977060
412.000000	79.373132
411.000000	79.587300
410.000000	79.561561
409.000000	79.559224
408.000000	79.802332
407.000000	80.140211
406.000000	80.363133
405.000000	80.581218
404.000000	80.876825
403.000000	81.045953
402.000000	80.811045
401.000000	80.376702
400.000000	80.008804
