PE UV                   SPECTRUM    ASCII       PEDS        1.60        
  -1
23MS130.SP
24/09/06
16:13:17.00
24/09/06
16:14:46.00


400.000000
1









4444

SCAN
1
1


0.0
480.0
2.00
MANUAL



UV/VIS




































#HDR
-1
-1
#GR
NM
A
0.00000011920928955078
0.0
700.000000
1.000000
301
8
0.293810
0.003400
#DATA
700.000000	0.005050 
699.000000	0.004830 
698.000000	0.004820 
697.000000	0.004680 
696.000000	0.004570 
695.000000	0.004410 
694.000000	0.004390 
693.000000	0.004280 
692.000000	0.004140 
691.000000	0.004100 
690.000000	0.003940 
689.000000	0.003870 
688.000000	0.003800 
687.000000	0.003730 
686.000000	0.003650 
685.000000	0.003580 
684.000000	0.003510 
683.000000	0.003500 
682.000000	0.003550 
681.000000	0.003610 
680.000000	0.003710 
679.000000	0.003520 
678.000000	0.003550 
677.000000	0.003550 
676.000000	0.003400 
675.000000	0.003430 
674.000000	0.003460 
673.000000	0.003530 
672.000000	0.003580 
671.000000	0.003560 
670.000000	0.003490 
669.000000	0.003450 
668.000000	0.003570 
667.000000	0.003430 
666.000000	0.003500 
665.000000	0.003480 
664.000000	0.003540 
663.000000	0.003490 
662.000000	0.003490 
661.000000	0.003600 
660.000000	0.003520 
659.000000	0.003590 
658.000000	0.003660 
657.000000	0.003610 
656.000000	0.003640 
655.000000	0.003670 
654.000000	0.003760 
653.000000	0.003760 
652.000000	0.003770 
651.000000	0.003730 
650.000000	0.003780 
649.000000	0.003810 
648.000000	0.003830 
647.000000	0.003870 
646.000000	0.003850 
645.000000	0.003910 
644.000000	0.003900 
643.000000	0.003960 
642.000000	0.003920 
641.000000	0.003880 
640.000000	0.004070 
639.000000	0.003980 
638.000000	0.004070 
637.000000	0.004120 
636.000000	0.004130 
635.000000	0.004140 
634.000000	0.004200 
633.000000	0.004240 
632.000000	0.004260 
631.000000	0.004360 
630.000000	0.004460 
629.000000	0.004480 
628.000000	0.004470 
627.000000	0.004510 
626.000000	0.004610 
625.000000	0.004810 
624.000000	0.004770 
623.000000	0.004840 
622.000000	0.004920 
621.000000	0.004930 
620.000000	0.004980 
619.000000	0.005090 
618.000000	0.005140 
617.000000	0.005250 
616.000000	0.005250 
615.000000	0.005370 
614.000000	0.005440 
613.000000	0.005650 
612.000000	0.005700 
611.000000	0.005810 
610.000000	0.005860 
609.000000	0.005880 
608.000000	0.005990 
607.000000	0.006200 
606.000000	0.006250 
605.000000	0.006340 
604.000000	0.006550 
603.000000	0.006710 
602.000000	0.006650 
601.000000	0.006750 
600.000000	0.006920 
599.000000	0.007040 
598.000000	0.007150 
597.000000	0.007340 
596.000000	0.007410 
595.000000	0.007610 
594.000000	0.007780 
593.000000	0.007979 
592.000000	0.008070 
591.000000	0.008180 
590.000000	0.008290 
589.000000	0.008480 
588.000000	0.008619 
587.000000	0.008829 
586.000000	0.008950 
585.000000	0.009190 
584.000000	0.009360 
583.000000	0.009520 
582.000000	0.009800 
581.000000	0.009889 
580.000000	0.010110 
579.000000	0.010270 
578.000000	0.010420 
577.000000	0.010680 
576.000000	0.010870 
575.000000	0.011090 
574.000000	0.011280 
573.000000	0.011470 
572.000000	0.011700 
571.000000	0.011910 
570.000000	0.012190 
569.000000	0.012440 
568.000000	0.012740 
567.000000	0.012870 
566.000000	0.013140 
565.000000	0.013490 
564.000000	0.013710 
563.000000	0.013970 
562.000000	0.014380 
561.000000	0.014590 
560.000000	0.014990 
559.000000	0.015190 
558.000000	0.015470 
557.000000	0.015860 
556.000000	0.016440 
555.000000	0.016660 
554.000000	0.017180 
553.000000	0.017650 
552.000000	0.018150 
551.000000	0.018610 
550.000000	0.019170 
549.000000	0.019610 
548.000000	0.020260 
547.000000	0.020750 
546.000000	0.021300 
545.000000	0.022020 
544.000000	0.022730 
543.000000	0.023510 
542.000000	0.024220 
541.000000	0.025150 
540.000000	0.025910 
539.000000	0.026820 
538.000000	0.027880 
537.000000	0.028870 
536.000000	0.030060 
535.000000	0.031080 
534.000000	0.032310 
533.000000	0.033550 
532.000000	0.035020 
531.000000	0.036480 
530.000000	0.038000 
529.000000	0.039570 
528.000000	0.041480 
527.000000	0.043130 
526.000000	0.044900 
525.000000	0.046980 
524.000000	0.048950 
523.000000	0.051100 
522.000000	0.053420 
521.000000	0.055710 
520.000000	0.058290 
519.000000	0.060980 
518.000000	0.063440 
517.000000	0.066210 
516.000000	0.069080 
515.000000	0.071910 
514.000000	0.074940 
513.000000	0.078229 
512.000000	0.081540 
511.000000	0.085310 
510.000000	0.088730 
509.000000	0.092720 
508.000000	0.096440 
507.000000	0.100500 
506.000000	0.104530 
505.000000	0.108730 
504.000000	0.113060 
503.000000	0.117490 
502.000000	0.122130 
501.000000	0.127130 
500.000000	0.132020 
499.000000	0.137150 
498.000000	0.142020 
497.000000	0.146990 
496.000000	0.151850 
495.000000	0.157030 
494.000000	0.162260 
493.000000	0.167720 
492.000000	0.172810 
491.000000	0.178130 
490.000000	0.183580 
489.000000	0.188780 
488.000000	0.193910 
487.000000	0.198730 
486.000000	0.203820 
485.000000	0.208740 
484.000000	0.214010 
483.000000	0.219140 
482.000000	0.224140 
481.000000	0.229270 
480.000000	0.234090 
479.000000	0.238830 
478.000000	0.243230 
477.000000	0.247520 
476.000000	0.251740 
475.000000	0.255810 
474.000000	0.260010 
473.000000	0.263990 
472.000000	0.267700 
471.000000	0.271060 
470.000000	0.274350 
469.000000	0.277350 
468.000000	0.280020 
467.000000	0.282590 
466.000000	0.284730 
465.000000	0.286880 
464.000000	0.288900 
463.000000	0.290380 
462.000000	0.291480 
461.000000	0.292410 
460.000000	0.293030 
459.000000	0.293810 
458.000000	0.293750 
457.000000	0.293770 
456.000000	0.293240 
455.000000	0.292760 
454.000000	0.291960 
453.000000	0.290750 
452.000000	0.289590 
451.000000	0.287980 
450.000000	0.285630 
449.000000	0.283760 
448.000000	0.281310 
447.000000	0.278950 
446.000000	0.276140 
445.000000	0.273000 
444.000000	0.269710 
443.000000	0.266290 
442.000000	0.262100 
441.000000	0.258570 
440.000000	0.254730 
439.000000	0.250450 
438.000000	0.246070 
437.000000	0.241760 
436.000000	0.237220 
435.000000	0.232500 
434.000000	0.227360 
433.000000	0.222910 
432.000000	0.218240 
431.000000	0.213300 
430.000000	0.208640 
429.000000	0.203540 
428.000000	0.198820 
427.000000	0.193840 
426.000000	0.188530 
425.000000	0.183550 
424.000000	0.178420 
423.000000	0.173380 
422.000000	0.168770 
421.000000	0.164550 
420.000000	0.159780 
419.000000	0.155200 
418.000000	0.150340 
417.000000	0.145730 
416.000000	0.141150 
415.000000	0.136540 
414.000000	0.132000 
413.000000	0.127740 
412.000000	0.123790 
411.000000	0.119860 
410.000000	0.115940 
409.000000	0.112300 
408.000000	0.108700 
407.000000	0.105470 
406.000000	0.102330 
405.000000	0.099540 
404.000000	0.096940 
403.000000	0.094800 
402.000000	0.092780 
401.000000	0.091220 
400.000000	0.089980 

