PE UV                   SPECTRUM    ASCII       PEDS        1.60        
  -1
23MS021.SP
24/09/10
16:10:04.00
24/09/10
16:11:33.00


400.000000
1









4444

SCAN
1
1


0.0
480.0
2.00
MANUAL



UV/VIS




































#HDR
-1
-1
#GR
NM
A
0.00000011920928955078
0.0
700.000000
1.000000
301
8
0.894450
0.010860
#DATA
700.000000	0.010890 
699.000000	0.010880 
698.000000	0.010960 
697.000000	0.010860 
696.000000	0.010930 
695.000000	0.010880 
694.000000	0.010900 
693.000000	0.010870 
692.000000	0.010980 
691.000000	0.011000 
690.000000	0.010960 
689.000000	0.010910 
688.000000	0.010920 
687.000000	0.010910 
686.000000	0.010920 
685.000000	0.010930 
684.000000	0.010920 
683.000000	0.011020 
682.000000	0.011010 
681.000000	0.011080 
680.000000	0.011050 
679.000000	0.011050 
678.000000	0.011120 
677.000000	0.011140 
676.000000	0.011220 
675.000000	0.011260 
674.000000	0.011130 
673.000000	0.011240 
672.000000	0.011220 
671.000000	0.011250 
670.000000	0.011260 
669.000000	0.011390 
668.000000	0.011370 
667.000000	0.011460 
666.000000	0.011530 
665.000000	0.011540 
664.000000	0.011600 
663.000000	0.011560 
662.000000	0.011760 
661.000000	0.011690 
660.000000	0.011700 
659.000000	0.011780 
658.000000	0.011870 
657.000000	0.011900 
656.000000	0.011940 
655.000000	0.012080 
654.000000	0.012160 
653.000000	0.012120 
652.000000	0.012170 
651.000000	0.012310 
650.000000	0.012440 
649.000000	0.012500 
648.000000	0.012580 
647.000000	0.012550 
646.000000	0.012800 
645.000000	0.012760 
644.000000	0.012850 
643.000000	0.013060 
642.000000	0.013040 
641.000000	0.013160 
640.000000	0.013300 
639.000000	0.013370 
638.000000	0.013460 
637.000000	0.013530 
636.000000	0.013650 
635.000000	0.013760 
634.000000	0.013880 
633.000000	0.014120 
632.000000	0.014140 
631.000000	0.014210 
630.000000	0.014410 
629.000000	0.014580 
628.000000	0.014760 
627.000000	0.014810 
626.000000	0.014990 
625.000000	0.015100 
624.000000	0.015250 
623.000000	0.015450 
622.000000	0.015590 
621.000000	0.015730 
620.000000	0.015890 
619.000000	0.016070 
618.000000	0.016180 
617.000000	0.016500 
616.000000	0.016520 
615.000000	0.016800 
614.000000	0.017010 
613.000000	0.017080 
612.000000	0.017300 
611.000000	0.017600 
610.000000	0.017630 
609.000000	0.017810 
608.000000	0.018070 
607.000000	0.018250 
606.000000	0.018460 
605.000000	0.018570 
604.000000	0.018780 
603.000000	0.019000 
602.000000	0.019330 
601.000000	0.019420 
600.000000	0.019700 
599.000000	0.019970 
598.000000	0.020200 
597.000000	0.020390 
596.000000	0.020700 
595.000000	0.020950 
594.000000	0.021290 
593.000000	0.021590 
592.000000	0.021840 
591.000000	0.022130 
590.000000	0.022450 
589.000000	0.022810 
588.000000	0.023080 
587.000000	0.023390 
586.000000	0.023740 
585.000000	0.024130 
584.000000	0.024490 
583.000000	0.024850 
582.000000	0.025050 
581.000000	0.025600 
580.000000	0.025930 
579.000000	0.026270 
578.000000	0.026710 
577.000000	0.027040 
576.000000	0.027470 
575.000000	0.027850 
574.000000	0.028380 
573.000000	0.028790 
572.000000	0.029340 
571.000000	0.029670 
570.000000	0.030230 
569.000000	0.030700 
568.000000	0.031240 
567.000000	0.031780 
566.000000	0.032480 
565.000000	0.033100 
564.000000	0.033790 
563.000000	0.034550 
562.000000	0.035250 
561.000000	0.035960 
560.000000	0.036850 
559.000000	0.037670 
558.000000	0.039250 
557.000000	0.040090 
556.000000	0.041370 
555.000000	0.042370 
554.000000	0.043510 
553.000000	0.044770 
552.000000	0.045980 
551.000000	0.047470 
550.000000	0.048800 
549.000000	0.050270 
548.000000	0.052030 
547.000000	0.053550 
546.000000	0.055480 
545.000000	0.057340 
544.000000	0.059350 
543.000000	0.061570 
542.000000	0.063930 
541.000000	0.066340 
540.000000	0.069080 
539.000000	0.071609 
538.000000	0.074560 
537.000000	0.077720 
536.000000	0.080860 
535.000000	0.084550 
534.000000	0.088310 
533.000000	0.092250 
532.000000	0.096580 
531.000000	0.101160 
530.000000	0.105900 
529.000000	0.110870 
528.000000	0.116140 
527.000000	0.121800 
526.000000	0.127610 
525.000000	0.133830 
524.000000	0.140340 
523.000000	0.147150 
522.000000	0.154180 
521.000000	0.161720 
520.000000	0.169550 
519.000000	0.177470 
518.000000	0.185550 
517.000000	0.194240 
516.000000	0.203120 
515.000000	0.212510 
514.000000	0.222690 
513.000000	0.233000 
512.000000	0.243740 
511.000000	0.254500 
510.000000	0.265820 
509.000000	0.277160 
508.000000	0.288990 
507.000000	0.301500 
506.000000	0.314590 
505.000000	0.328210 
504.000000	0.342530 
503.000000	0.356270 
502.000000	0.370710 
501.000000	0.385250 
500.000000	0.400310 
499.000000	0.415460 
498.000000	0.430790 
497.000000	0.446770 
496.000000	0.463150 
495.000000	0.479420 
494.000000	0.496080 
493.000000	0.512210 
492.000000	0.528340 
491.000000	0.544610 
490.000000	0.560670 
489.000000	0.577099 
488.000000	0.592730 
487.000000	0.608410 
486.000000	0.625010 
485.000000	0.641100 
484.000000	0.656710 
483.000000	0.672100 
482.000000	0.687180 
481.000000	0.702030 
480.000000	0.716150 
479.000000	0.730310 
478.000000	0.744200 
477.000000	0.757710 
476.000000	0.771130 
475.000000	0.784240 
474.000000	0.795410 
473.000000	0.807390 
472.000000	0.818230 
471.000000	0.828120 
470.000000	0.838410 
469.000000	0.847040 
468.000000	0.855230 
467.000000	0.863020 
466.000000	0.868980 
465.000000	0.875990 
464.000000	0.881080 
463.000000	0.885280 
462.000000	0.889000 
461.000000	0.891190 
460.000000	0.892900 
459.000000	0.893860 
458.000000	0.893710 
457.000000	0.894450 
456.000000	0.893390 
455.000000	0.891690 
454.000000	0.888800 
453.000000	0.884900 
452.000000	0.881549 
451.000000	0.876520 
450.000000	0.869700 
449.000000	0.864120 
448.000000	0.855830 
447.000000	0.848980 
446.000000	0.840330 
445.000000	0.831050 
444.000000	0.821570 
443.000000	0.811110 
442.000000	0.799500 
441.000000	0.788920 
440.000000	0.777010 
439.000000	0.764490 
438.000000	0.751200 
437.000000	0.737780 
436.000000	0.723890 
435.000000	0.710170 
434.000000	0.695490 
433.000000	0.681650 
432.000000	0.667230 
431.000000	0.653580 
430.000000	0.638280 
429.000000	0.623160 
428.000000	0.607530 
427.000000	0.591970 
426.000000	0.576330 
425.000000	0.562169 
424.000000	0.546930 
423.000000	0.532110 
422.000000	0.517350 
421.000000	0.504130 
420.000000	0.489040 
419.000000	0.474020 
418.000000	0.459070 
417.000000	0.444630 
416.000000	0.430380 
415.000000	0.416880 
414.000000	0.403370 
413.000000	0.390380 
412.000000	0.377480 
411.000000	0.364850 
410.000000	0.352390 
409.000000	0.340460 
408.000000	0.329160 
407.000000	0.318570 
406.000000	0.308960 
405.000000	0.300090 
404.000000	0.291810 
403.000000	0.284840 
402.000000	0.278170 
401.000000	0.272870 
400.000000	0.267960 

