PE UV                   SPECTRUM    ASCII       PEDS        1.60        
  -1
23MS214.SP
24/09/09
16:19:05.00
24/09/09
16:20:16.00


400.000000
1









4444

SCAN
1
1


0.0
480.0
2.00
MANUAL



UV/VIS




































#HDR
-1
-1
#GR
NM
A
0.00000011920928955078
0.0
700.000000
1.000000
301
8
0.140080
0.008109
#DATA
700.000000	0.008220 
699.000000	0.008109 
698.000000	0.008250 
697.000000	0.008250 
696.000000	0.008300 
695.000000	0.008210 
694.000000	0.008240 
693.000000	0.008220 
692.000000	0.008210 
691.000000	0.008149 
690.000000	0.008250 
689.000000	0.008310 
688.000000	0.008250 
687.000000	0.008210 
686.000000	0.008229 
685.000000	0.008350 
684.000000	0.008449 
683.000000	0.008470 
682.000000	0.008410 
681.000000	0.008440 
680.000000	0.008430 
679.000000	0.008430 
678.000000	0.008449 
677.000000	0.008420 
676.000000	0.008600 
675.000000	0.008470 
674.000000	0.008510 
673.000000	0.008520 
672.000000	0.008420 
671.000000	0.008449 
670.000000	0.008500 
669.000000	0.008399 
668.000000	0.008410 
667.000000	0.008449 
666.000000	0.008520 
665.000000	0.008480 
664.000000	0.008390 
663.000000	0.008440 
662.000000	0.008460 
661.000000	0.008460 
660.000000	0.008319 
659.000000	0.008470 
658.000000	0.008449 
657.000000	0.008440 
656.000000	0.008440 
655.000000	0.008500 
654.000000	0.008420 
653.000000	0.008500 
652.000000	0.008480 
651.000000	0.008440 
650.000000	0.008489 
649.000000	0.008550 
648.000000	0.008529 
647.000000	0.008480 
646.000000	0.008569 
645.000000	0.008560 
644.000000	0.008529 
643.000000	0.008580 
642.000000	0.008510 
641.000000	0.008540 
640.000000	0.008580 
639.000000	0.008550 
638.000000	0.008640 
637.000000	0.008600 
636.000000	0.008659 
635.000000	0.008600 
634.000000	0.008540 
633.000000	0.008650 
632.000000	0.008690 
631.000000	0.008760 
630.000000	0.008800 
629.000000	0.008730 
628.000000	0.008840 
627.000000	0.008789 
626.000000	0.008920 
625.000000	0.008869 
624.000000	0.008959 
623.000000	0.009090 
622.000000	0.009050 
621.000000	0.009070 
620.000000	0.009090 
619.000000	0.009180 
618.000000	0.009290 
617.000000	0.009320 
616.000000	0.009320 
615.000000	0.009370 
614.000000	0.009599 
613.000000	0.009549 
612.000000	0.009599 
611.000000	0.009690 
610.000000	0.009769 
609.000000	0.009820 
608.000000	0.009930 
607.000000	0.010010 
606.000000	0.010090 
605.000000	0.010180 
604.000000	0.010300 
603.000000	0.010490 
602.000000	0.010550 
601.000000	0.010680 
600.000000	0.010760 
599.000000	0.010920 
598.000000	0.011040 
597.000000	0.011150 
596.000000	0.011280 
595.000000	0.011430 
594.000000	0.011590 
593.000000	0.011730 
592.000000	0.011910 
591.000000	0.012080 
590.000000	0.012230 
589.000000	0.012480 
588.000000	0.012630 
587.000000	0.012840 
586.000000	0.013110 
585.000000	0.013310 
584.000000	0.013570 
583.000000	0.013730 
582.000000	0.013950 
581.000000	0.014270 
580.000000	0.014380 
579.000000	0.014670 
578.000000	0.014880 
577.000000	0.015140 
576.000000	0.015420 
575.000000	0.015630 
574.000000	0.015970 
573.000000	0.016160 
572.000000	0.016500 
571.000000	0.016690 
570.000000	0.017090 
569.000000	0.017370 
568.000000	0.017630 
567.000000	0.017870 
566.000000	0.018230 
565.000000	0.018560 
564.000000	0.018890 
563.000000	0.019210 
562.000000	0.019560 
561.000000	0.019990 
560.000000	0.020310 
559.000000	0.020720 
558.000000	0.021150 
557.000000	0.021630 
556.000000	0.022050 
555.000000	0.022350 
554.000000	0.022900 
553.000000	0.023240 
552.000000	0.023640 
551.000000	0.024240 
550.000000	0.024790 
549.000000	0.025100 
548.000000	0.025690 
547.000000	0.026200 
546.000000	0.026660 
545.000000	0.027240 
544.000000	0.027960 
543.000000	0.028440 
542.000000	0.029000 
541.000000	0.029690 
540.000000	0.030270 
539.000000	0.030940 
538.000000	0.031490 
537.000000	0.032270 
536.000000	0.033080 
535.000000	0.033740 
534.000000	0.034510 
533.000000	0.035280 
532.000000	0.036170 
531.000000	0.037070 
530.000000	0.037900 
529.000000	0.038940 
528.000000	0.039740 
527.000000	0.040880 
526.000000	0.041860 
525.000000	0.043030 
524.000000	0.044120 
523.000000	0.045210 
522.000000	0.046300 
521.000000	0.047600 
520.000000	0.048740 
519.000000	0.049910 
518.000000	0.051370 
517.000000	0.052640 
516.000000	0.053860 
515.000000	0.055250 
514.000000	0.056710 
513.000000	0.058220 
512.000000	0.059820 
511.000000	0.061290 
510.000000	0.062820 
509.000000	0.064500 
508.000000	0.066140 
507.000000	0.067940 
506.000000	0.069730 
505.000000	0.071510 
504.000000	0.073210 
503.000000	0.075290 
502.000000	0.077090 
501.000000	0.079050 
500.000000	0.081129 
499.000000	0.083200 
498.000000	0.085380 
497.000000	0.087290 
496.000000	0.089370 
495.000000	0.091650 
494.000000	0.093619 
493.000000	0.095620 
492.000000	0.097720 
491.000000	0.099779 
490.000000	0.101740 
489.000000	0.103850 
488.000000	0.105790 
487.000000	0.107850 
486.000000	0.109640 
485.000000	0.111680 
484.000000	0.113420 
483.000000	0.115340 
482.000000	0.117090 
481.000000	0.119050 
480.000000	0.120680 
479.000000	0.122250 
478.000000	0.124040 
477.000000	0.125840 
476.000000	0.127290 
475.000000	0.128740 
474.000000	0.130150 
473.000000	0.131360 
472.000000	0.132780 
471.000000	0.133880 
470.000000	0.134880 
469.000000	0.135870 
468.000000	0.136830 
467.000000	0.137590 
466.000000	0.138270 
465.000000	0.138790 
464.000000	0.139180 
463.000000	0.139790 
462.000000	0.139930 
461.000000	0.139890 
460.000000	0.140080 
459.000000	0.140030 
458.000000	0.139760 
457.000000	0.139480 
456.000000	0.139080 
455.000000	0.138740 
454.000000	0.138260 
453.000000	0.137480 
452.000000	0.136600 
451.000000	0.135800 
450.000000	0.134870 
449.000000	0.133870 
448.000000	0.132620 
447.000000	0.131190 
446.000000	0.130030 
445.000000	0.128610 
444.000000	0.127100 
443.000000	0.125530 
442.000000	0.123860 
441.000000	0.122170 
440.000000	0.120270 
439.000000	0.118660 
438.000000	0.116570 
437.000000	0.115020 
436.000000	0.112960 
435.000000	0.111150 
434.000000	0.109210 
433.000000	0.106920 
432.000000	0.105040 
431.000000	0.103370 
430.000000	0.101270 
429.000000	0.099290 
428.000000	0.097690 
427.000000	0.095630 
426.000000	0.093650 
425.000000	0.092100 
424.000000	0.090079 
423.000000	0.088350 
422.000000	0.086860 
421.000000	0.085060 
420.000000	0.083489 
419.000000	0.081800 
418.000000	0.080330 
417.000000	0.078940 
416.000000	0.077510 
415.000000	0.076220 
414.000000	0.075120 
413.000000	0.074010 
412.000000	0.072969 
411.000000	0.072060 
410.000000	0.071400 
409.000000	0.070780 
408.000000	0.070090 
407.000000	0.069750 
406.000000	0.069500 
405.000000	0.069240 
404.000000	0.069290 
403.000000	0.069790 
402.000000	0.070120 
401.000000	0.070830 
400.000000	0.071530 

