PE UV                   SPECTRUM    ASCII       PEDS        1.60        
  -1
23MS080.SP
24/09/12
15:29:31.00
24/09/12
15:30:41.00


400.000000
1









4444

SCAN
1
1


0.0
480.0
2.00
MANUAL



UV/VIS




































#HDR
-1
-1
#GR
NM
A
0.00000011920928955078
0.0
700.000000
1.000000
301
8
0.273470
0.004980
#DATA
700.000000	0.004980 
699.000000	0.005030 
698.000000	0.005130 
697.000000	0.005130 
696.000000	0.005140 
695.000000	0.005130 
694.000000	0.005250 
693.000000	0.005220 
692.000000	0.005140 
691.000000	0.005240 
690.000000	0.005240 
689.000000	0.005250 
688.000000	0.005270 
687.000000	0.005370 
686.000000	0.005350 
685.000000	0.005390 
684.000000	0.005410 
683.000000	0.005420 
682.000000	0.005470 
681.000000	0.005530 
680.000000	0.005540 
679.000000	0.005530 
678.000000	0.005540 
677.000000	0.005670 
676.000000	0.005650 
675.000000	0.005580 
674.000000	0.005660 
673.000000	0.005730 
672.000000	0.005740 
671.000000	0.005690 
670.000000	0.005670 
669.000000	0.005760 
668.000000	0.005760 
667.000000	0.005890 
666.000000	0.005870 
665.000000	0.005830 
664.000000	0.005960 
663.000000	0.005930 
662.000000	0.005910 
661.000000	0.005900 
660.000000	0.005960 
659.000000	0.006040 
658.000000	0.006040 
657.000000	0.006030 
656.000000	0.006110 
655.000000	0.006070 
654.000000	0.006030 
653.000000	0.006160 
652.000000	0.006210 
651.000000	0.006240 
650.000000	0.006320 
649.000000	0.006310 
648.000000	0.006400 
647.000000	0.006360 
646.000000	0.006440 
645.000000	0.006530 
644.000000	0.006520 
643.000000	0.006500 
642.000000	0.006440 
641.000000	0.006580 
640.000000	0.006620 
639.000000	0.006640 
638.000000	0.006650 
637.000000	0.006760 
636.000000	0.006660 
635.000000	0.006800 
634.000000	0.006790 
633.000000	0.006890 
632.000000	0.006860 
631.000000	0.006810 
630.000000	0.006930 
629.000000	0.006950 
628.000000	0.006980 
627.000000	0.007060 
626.000000	0.007060 
625.000000	0.007070 
624.000000	0.007120 
623.000000	0.007280 
622.000000	0.007210 
621.000000	0.007370 
620.000000	0.007300 
619.000000	0.007370 
618.000000	0.007380 
617.000000	0.007410 
616.000000	0.007540 
615.000000	0.007580 
614.000000	0.007600 
613.000000	0.007640 
612.000000	0.007720 
611.000000	0.007700 
610.000000	0.007830 
609.000000	0.007760 
608.000000	0.007849 
607.000000	0.007900 
606.000000	0.007889 
605.000000	0.008100 
604.000000	0.008189 
603.000000	0.008180 
602.000000	0.008250 
601.000000	0.008260 
600.000000	0.008430 
599.000000	0.008420 
598.000000	0.008540 
597.000000	0.008510 
596.000000	0.008610 
595.000000	0.008710 
594.000000	0.008760 
593.000000	0.008869 
592.000000	0.008940 
591.000000	0.008980 
590.000000	0.009140 
589.000000	0.009230 
588.000000	0.009330 
587.000000	0.009460 
586.000000	0.009549 
585.000000	0.009639 
584.000000	0.009790 
583.000000	0.009849 
582.000000	0.009979 
581.000000	0.010130 
580.000000	0.010220 
579.000000	0.010440 
578.000000	0.010650 
577.000000	0.010710 
576.000000	0.010890 
575.000000	0.011030 
574.000000	0.011140 
573.000000	0.011330 
572.000000	0.011550 
571.000000	0.011660 
570.000000	0.011910 
569.000000	0.012060 
568.000000	0.012340 
567.000000	0.012480 
566.000000	0.012830 
565.000000	0.012940 
564.000000	0.013310 
563.000000	0.013600 
562.000000	0.013860 
561.000000	0.014110 
560.000000	0.014330 
559.000000	0.014720 
558.000000	0.015210 
557.000000	0.015500 
556.000000	0.015990 
555.000000	0.016340 
554.000000	0.016830 
553.000000	0.017380 
552.000000	0.017810 
551.000000	0.018330 
550.000000	0.018940 
549.000000	0.019440 
548.000000	0.020110 
547.000000	0.020740 
546.000000	0.021590 
545.000000	0.022160 
544.000000	0.022950 
543.000000	0.023750 
542.000000	0.024590 
541.000000	0.025500 
540.000000	0.026550 
539.000000	0.027320 
538.000000	0.028320 
537.000000	0.029480 
536.000000	0.030560 
535.000000	0.031860 
534.000000	0.033020 
533.000000	0.034420 
532.000000	0.035920 
531.000000	0.037480 
530.000000	0.039050 
529.000000	0.040700 
528.000000	0.042480 
527.000000	0.044240 
526.000000	0.046280 
525.000000	0.048230 
524.000000	0.050310 
523.000000	0.052550 
522.000000	0.054630 
521.000000	0.057090 
520.000000	0.059510 
519.000000	0.062010 
518.000000	0.064550 
517.000000	0.067239 
516.000000	0.069920 
515.000000	0.073050 
514.000000	0.076100 
513.000000	0.079229 
512.000000	0.082450 
511.000000	0.085540 
510.000000	0.089120 
509.000000	0.092470 
508.000000	0.096150 
507.000000	0.100080 
506.000000	0.103730 
505.000000	0.108030 
504.000000	0.112230 
503.000000	0.116310 
502.000000	0.120650 
501.000000	0.124920 
500.000000	0.129370 
499.000000	0.133970 
498.000000	0.138530 
497.000000	0.143270 
496.000000	0.148180 
495.000000	0.152860 
494.000000	0.157840 
493.000000	0.162560 
492.000000	0.167220 
491.000000	0.171770 
490.000000	0.176790 
489.000000	0.181630 
488.000000	0.186250 
487.000000	0.190790 
486.000000	0.195440 
485.000000	0.199910 
484.000000	0.204640 
483.000000	0.209090 
482.000000	0.213330 
481.000000	0.217760 
480.000000	0.221890 
479.000000	0.226090 
478.000000	0.230260 
477.000000	0.234270 
476.000000	0.238180 
475.000000	0.241830 
474.000000	0.245300 
473.000000	0.248610 
472.000000	0.251610 
471.000000	0.254560 
470.000000	0.257460 
469.000000	0.260170 
468.000000	0.262490 
467.000000	0.264870 
466.000000	0.266570 
465.000000	0.268310 
464.000000	0.269750 
463.000000	0.270980 
462.000000	0.272010 
461.000000	0.272880 
460.000000	0.273150 
459.000000	0.273330 
458.000000	0.273470 
457.000000	0.273300 
456.000000	0.272750 
455.000000	0.272430 
454.000000	0.271330 
453.000000	0.270330 
452.000000	0.269270 
451.000000	0.267700 
450.000000	0.265900 
449.000000	0.263790 
448.000000	0.261530 
447.000000	0.259040 
446.000000	0.256640 
445.000000	0.253580 
444.000000	0.250870 
443.000000	0.247910 
442.000000	0.244340 
441.000000	0.241100 
440.000000	0.237350 
439.000000	0.233450 
438.000000	0.229440 
437.000000	0.225400 
436.000000	0.221470 
435.000000	0.217450 
434.000000	0.213310 
433.000000	0.209290 
432.000000	0.205130 
431.000000	0.200910 
430.000000	0.196520 
429.000000	0.192370 
428.000000	0.187840 
427.000000	0.183560 
426.000000	0.179100 
425.000000	0.175020 
424.000000	0.170860 
423.000000	0.166830 
422.000000	0.162650 
421.000000	0.158730 
420.000000	0.154780 
419.000000	0.150750 
418.000000	0.146990 
417.000000	0.143220 
416.000000	0.139600 
415.000000	0.136090 
414.000000	0.132870 
413.000000	0.129500 
412.000000	0.126420 
411.000000	0.123440 
410.000000	0.120290 
409.000000	0.117620 
408.000000	0.115130 
407.000000	0.113040 
406.000000	0.111120 
405.000000	0.109410 
404.000000	0.107790 
403.000000	0.106670 
402.000000	0.105730 
401.000000	0.105150 
400.000000	0.104760 

