PE UV                   SPECTRUM    ASCII       PEDS        1.60        
  -1
23MS008.SP
24/09/10
16:07:37.00
24/09/10
16:08:41.00


400.000000
1









4444

SCAN
1
1


0.0
480.0
2.00
MANUAL



UV/VIS




































#HDR
-1
-1
#GR
NM
A
0.00000011920928955078
0.0
700.000000
1.000000
301
8
0.784110
0.025000
#DATA
700.000000	0.025000 
699.000000	0.025070 
698.000000	0.025070 
697.000000	0.025160 
696.000000	0.025310 
695.000000	0.025350 
694.000000	0.025560 
693.000000	0.025670 
692.000000	0.025870 
691.000000	0.025880 
690.000000	0.026010 
689.000000	0.026080 
688.000000	0.026190 
687.000000	0.026370 
686.000000	0.026520 
685.000000	0.026670 
684.000000	0.026720 
683.000000	0.027090 
682.000000	0.027110 
681.000000	0.027270 
680.000000	0.027320 
679.000000	0.027370 
678.000000	0.027520 
677.000000	0.027620 
676.000000	0.027540 
675.000000	0.027650 
674.000000	0.027750 
673.000000	0.027970 
672.000000	0.028180 
671.000000	0.028200 
670.000000	0.028360 
669.000000	0.028460 
668.000000	0.028650 
667.000000	0.028800 
666.000000	0.028980 
665.000000	0.029140 
664.000000	0.029370 
663.000000	0.029450 
662.000000	0.029750 
661.000000	0.029860 
660.000000	0.029860 
659.000000	0.029930 
658.000000	0.029880 
657.000000	0.029700 
656.000000	0.029770 
655.000000	0.029730 
654.000000	0.029720 
653.000000	0.029560 
652.000000	0.029400 
651.000000	0.029410 
650.000000	0.029320 
649.000000	0.029230 
648.000000	0.029150 
647.000000	0.029090 
646.000000	0.029200 
645.000000	0.029040 
644.000000	0.029140 
643.000000	0.029010 
642.000000	0.029030 
641.000000	0.028890 
640.000000	0.028920 
639.000000	0.028640 
638.000000	0.028640 
637.000000	0.028450 
636.000000	0.028290 
635.000000	0.028250 
634.000000	0.028080 
633.000000	0.028140 
632.000000	0.028020 
631.000000	0.027950 
630.000000	0.027950 
629.000000	0.027880 
628.000000	0.027840 
627.000000	0.027800 
626.000000	0.027950 
625.000000	0.027950 
624.000000	0.028010 
623.000000	0.028140 
622.000000	0.028320 
621.000000	0.028410 
620.000000	0.028640 
619.000000	0.028600 
618.000000	0.028740 
617.000000	0.028970 
616.000000	0.029100 
615.000000	0.029310 
614.000000	0.029560 
613.000000	0.029650 
612.000000	0.029850 
611.000000	0.030040 
610.000000	0.030160 
609.000000	0.030420 
608.000000	0.030570 
607.000000	0.030790 
606.000000	0.031060 
605.000000	0.031200 
604.000000	0.031500 
603.000000	0.031710 
602.000000	0.031960 
601.000000	0.032140 
600.000000	0.032440 
599.000000	0.032620 
598.000000	0.032910 
597.000000	0.033010 
596.000000	0.033340 
595.000000	0.033540 
594.000000	0.034010 
593.000000	0.034160 
592.000000	0.034410 
591.000000	0.034590 
590.000000	0.034930 
589.000000	0.035180 
588.000000	0.035520 
587.000000	0.035870 
586.000000	0.036110 
585.000000	0.036510 
584.000000	0.036770 
583.000000	0.037140 
582.000000	0.037430 
581.000000	0.037840 
580.000000	0.038010 
579.000000	0.038390 
578.000000	0.038680 
577.000000	0.039020 
576.000000	0.039340 
575.000000	0.039850 
574.000000	0.040150 
573.000000	0.040500 
572.000000	0.040900 
571.000000	0.041270 
570.000000	0.041730 
569.000000	0.042160 
568.000000	0.042640 
567.000000	0.043140 
566.000000	0.043680 
565.000000	0.044230 
564.000000	0.044790 
563.000000	0.045330 
562.000000	0.045900 
561.000000	0.046570 
560.000000	0.047300 
559.000000	0.048100 
558.000000	0.049070 
557.000000	0.049800 
556.000000	0.050840 
555.000000	0.051650 
554.000000	0.052620 
553.000000	0.053610 
552.000000	0.054750 
551.000000	0.056010 
550.000000	0.057080 
549.000000	0.058340 
548.000000	0.059800 
547.000000	0.061180 
546.000000	0.062659 
545.000000	0.064240 
544.000000	0.066020 
543.000000	0.067870 
542.000000	0.069670 
541.000000	0.071819 
540.000000	0.074120 
539.000000	0.076509 
538.000000	0.079030 
537.000000	0.081770 
536.000000	0.084380 
535.000000	0.087410 
534.000000	0.090430 
533.000000	0.093830 
532.000000	0.097470 
531.000000	0.101380 
530.000000	0.105570 
529.000000	0.109960 
528.000000	0.114540 
527.000000	0.119290 
526.000000	0.124150 
525.000000	0.129300 
524.000000	0.134730 
523.000000	0.140590 
522.000000	0.146480 
521.000000	0.153030 
520.000000	0.159750 
519.000000	0.166610 
518.000000	0.173660 
517.000000	0.181030 
516.000000	0.188440 
515.000000	0.196170 
514.000000	0.204520 
513.000000	0.213200 
512.000000	0.222450 
511.000000	0.231770 
510.000000	0.241760 
509.000000	0.251840 
508.000000	0.261900 
507.000000	0.272330 
506.000000	0.282960 
505.000000	0.294200 
504.000000	0.305570 
503.000000	0.317430 
502.000000	0.329990 
501.000000	0.342860 
500.000000	0.356100 
499.000000	0.369250 
498.000000	0.382000 
497.000000	0.395350 
496.000000	0.408700 
495.000000	0.422340 
494.000000	0.436270 
493.000000	0.450320 
492.000000	0.464020 
491.000000	0.478130 
490.000000	0.492050 
489.000000	0.505980 
488.000000	0.519100 
487.000000	0.532340 
486.000000	0.545910 
485.000000	0.559240 
484.000000	0.572560 
483.000000	0.586080 
482.000000	0.599280 
481.000000	0.612640 
480.000000	0.624950 
479.000000	0.637010 
478.000000	0.648500 
477.000000	0.659900 
476.000000	0.671200 
475.000000	0.682160 
474.000000	0.692510 
473.000000	0.703150 
472.000000	0.713150 
471.000000	0.722469 
470.000000	0.730790 
469.000000	0.738440 
468.000000	0.745710 
467.000000	0.752380 
466.000000	0.757590 
465.000000	0.764120 
464.000000	0.769350 
463.000000	0.773170 
462.000000	0.777010 
461.000000	0.779600 
460.000000	0.781500 
459.000000	0.783350 
458.000000	0.783420 
457.000000	0.784110 
456.000000	0.783940 
455.000000	0.782580 
454.000000	0.780650 
453.000000	0.778520 
452.000000	0.775620 
451.000000	0.771620 
450.000000	0.767380 
449.000000	0.763300 
448.000000	0.758340 
447.000000	0.752570 
446.000000	0.745870 
445.000000	0.738770 
444.000000	0.731380 
443.000000	0.722670 
442.000000	0.713430 
441.000000	0.705430 
440.000000	0.695730 
439.000000	0.686480 
438.000000	0.676480 
437.000000	0.665790 
436.000000	0.654990 
435.000000	0.643780 
434.000000	0.631860 
433.000000	0.621000 
432.000000	0.609180 
431.000000	0.598639 
430.000000	0.586860 
429.000000	0.575380 
428.000000	0.563210 
427.000000	0.551390 
426.000000	0.539620 
425.000000	0.527630 
424.000000	0.514930 
423.000000	0.503180 
422.000000	0.492100 
421.000000	0.482540 
420.000000	0.471120 
419.000000	0.459730 
418.000000	0.448310 
417.000000	0.437090 
416.000000	0.425820 
415.000000	0.415040 
414.000000	0.404300 
413.000000	0.394190 
412.000000	0.384430 
411.000000	0.374920 
410.000000	0.365670 
409.000000	0.356980 
408.000000	0.348250 
407.000000	0.340240 
406.000000	0.332840 
405.000000	0.326240 
404.000000	0.320210 
403.000000	0.315050 
402.000000	0.310440 
401.000000	0.306770 
400.000000	0.303660 

