PE UV                   SPECTRUM    ASCII       PEDS        1.60        
  -1
23MS063.SP
24/09/12
15:20:41.00
24/09/12
15:24:00.00


400.000000
1









4444

SCAN
1
1


0.0
480.0
2.00
MANUAL



UV/VIS




































#HDR
-1
-1
#GR
NM
A
0.00000011920928955078
0.0
700.000000
1.000000
301
8
0.491860
0.005780
#DATA
700.000000	0.005780 
699.000000	0.005930 
698.000000	0.005930 
697.000000	0.005950 
696.000000	0.005950 
695.000000	0.005980 
694.000000	0.006030 
693.000000	0.006000 
692.000000	0.005950 
691.000000	0.006020 
690.000000	0.006050 
689.000000	0.006160 
688.000000	0.006140 
687.000000	0.006210 
686.000000	0.006240 
685.000000	0.006240 
684.000000	0.006100 
683.000000	0.006040 
682.000000	0.006150 
681.000000	0.006200 
680.000000	0.006220 
679.000000	0.006120 
678.000000	0.006210 
677.000000	0.006230 
676.000000	0.006190 
675.000000	0.006270 
674.000000	0.006300 
673.000000	0.006230 
672.000000	0.006280 
671.000000	0.006230 
670.000000	0.006280 
669.000000	0.006290 
668.000000	0.006340 
667.000000	0.006470 
666.000000	0.006410 
665.000000	0.006410 
664.000000	0.006550 
663.000000	0.006500 
662.000000	0.006460 
661.000000	0.006390 
660.000000	0.006540 
659.000000	0.006650 
658.000000	0.006670 
657.000000	0.006650 
656.000000	0.006700 
655.000000	0.006710 
654.000000	0.006730 
653.000000	0.006800 
652.000000	0.006850 
651.000000	0.006920 
650.000000	0.007000 
649.000000	0.006990 
648.000000	0.007080 
647.000000	0.007120 
646.000000	0.007210 
645.000000	0.007330 
644.000000	0.007270 
643.000000	0.007310 
642.000000	0.007260 
641.000000	0.007460 
640.000000	0.007550 
639.000000	0.007540 
638.000000	0.007640 
637.000000	0.007720 
636.000000	0.007720 
635.000000	0.007849 
634.000000	0.007920 
633.000000	0.008109 
632.000000	0.008050 
631.000000	0.008130 
630.000000	0.008240 
629.000000	0.008390 
628.000000	0.008380 
627.000000	0.008550 
626.000000	0.008600 
625.000000	0.008690 
624.000000	0.008789 
623.000000	0.008990 
622.000000	0.009129 
621.000000	0.009320 
620.000000	0.009379 
619.000000	0.009549 
618.000000	0.009650 
617.000000	0.009730 
616.000000	0.009900 
615.000000	0.010090 
614.000000	0.010320 
613.000000	0.010440 
612.000000	0.010620 
611.000000	0.010710 
610.000000	0.010940 
609.000000	0.011020 
608.000000	0.011220 
607.000000	0.011530 
606.000000	0.011690 
605.000000	0.011900 
604.000000	0.012130 
603.000000	0.012380 
602.000000	0.012550 
601.000000	0.012710 
600.000000	0.013070 
599.000000	0.013190 
598.000000	0.013510 
597.000000	0.013710 
596.000000	0.014090 
595.000000	0.014290 
594.000000	0.014560 
593.000000	0.014880 
592.000000	0.015270 
591.000000	0.015440 
590.000000	0.015820 
589.000000	0.016140 
588.000000	0.016490 
587.000000	0.016860 
586.000000	0.017250 
585.000000	0.017600 
584.000000	0.017990 
583.000000	0.018320 
582.000000	0.018760 
581.000000	0.019140 
580.000000	0.019530 
579.000000	0.019960 
578.000000	0.020400 
577.000000	0.020820 
576.000000	0.021380 
575.000000	0.021860 
574.000000	0.022280 
573.000000	0.022860 
572.000000	0.023280 
571.000000	0.023840 
570.000000	0.024420 
569.000000	0.024980 
568.000000	0.025580 
567.000000	0.026180 
566.000000	0.026870 
565.000000	0.027480 
564.000000	0.028380 
563.000000	0.028850 
562.000000	0.029470 
561.000000	0.030190 
560.000000	0.031020 
559.000000	0.031940 
558.000000	0.032830 
557.000000	0.033750 
556.000000	0.034830 
555.000000	0.035700 
554.000000	0.036740 
553.000000	0.037830 
552.000000	0.038860 
551.000000	0.039930 
550.000000	0.041040 
549.000000	0.042370 
548.000000	0.043660 
547.000000	0.044910 
546.000000	0.046470 
545.000000	0.047820 
544.000000	0.049230 
543.000000	0.050810 
542.000000	0.052370 
541.000000	0.054080 
540.000000	0.055900 
539.000000	0.057730 
538.000000	0.059580 
537.000000	0.061830 
536.000000	0.064050 
535.000000	0.066199 
534.000000	0.068570 
533.000000	0.071030 
532.000000	0.073570 
531.000000	0.076350 
530.000000	0.079320 
529.000000	0.082340 
528.000000	0.085630 
527.000000	0.088950 
526.000000	0.092460 
525.000000	0.096019 
524.000000	0.099620 
523.000000	0.103540 
522.000000	0.107480 
521.000000	0.111690 
520.000000	0.116210 
519.000000	0.120680 
518.000000	0.125350 
517.000000	0.130230 
516.000000	0.135390 
515.000000	0.140470 
514.000000	0.145670 
513.000000	0.151400 
512.000000	0.157050 
511.000000	0.162940 
510.000000	0.169310 
509.000000	0.175680 
508.000000	0.182380 
507.000000	0.189040 
506.000000	0.195820 
505.000000	0.202900 
504.000000	0.210040 
503.000000	0.217250 
502.000000	0.224900 
501.000000	0.232820 
500.000000	0.241000 
499.000000	0.249310 
498.000000	0.257530 
497.000000	0.266000 
496.000000	0.274200 
495.000000	0.282510 
494.000000	0.290840 
493.000000	0.299430 
492.000000	0.308050 
491.000000	0.316580 
490.000000	0.325480 
489.000000	0.333930 
488.000000	0.342300 
487.000000	0.350370 
486.000000	0.358420 
485.000000	0.366240 
484.000000	0.374280 
483.000000	0.382170 
482.000000	0.389860 
481.000000	0.397890 
480.000000	0.405360 
479.000000	0.412790 
478.000000	0.419870 
477.000000	0.426690 
476.000000	0.433000 
475.000000	0.439140 
474.000000	0.445310 
473.000000	0.451070 
472.000000	0.456630 
471.000000	0.461850 
470.000000	0.467050 
469.000000	0.471210 
468.000000	0.475140 
467.000000	0.478670 
466.000000	0.481470 
465.000000	0.484340 
464.000000	0.486910 
463.000000	0.488890 
462.000000	0.490460 
461.000000	0.491260 
460.000000	0.491760 
459.000000	0.491860 
458.000000	0.491440 
457.000000	0.491110 
456.000000	0.489930 
455.000000	0.488740 
454.000000	0.486580 
453.000000	0.484330 
452.000000	0.481620 
451.000000	0.478310 
450.000000	0.474940 
449.000000	0.470920 
448.000000	0.466890 
447.000000	0.461910 
446.000000	0.457360 
445.000000	0.451860 
444.000000	0.446010 
443.000000	0.440080 
442.000000	0.433160 
441.000000	0.426970 
440.000000	0.420170 
439.000000	0.412850 
438.000000	0.405770 
437.000000	0.398650 
436.000000	0.390940 
435.000000	0.383260 
434.000000	0.375320 
433.000000	0.367050 
432.000000	0.359550 
431.000000	0.351760 
430.000000	0.343780 
429.000000	0.335900 
428.000000	0.327900 
427.000000	0.320100 
426.000000	0.312060 
425.000000	0.304440 
424.000000	0.296240 
423.000000	0.288410 
422.000000	0.280530 
421.000000	0.273470 
420.000000	0.266300 
419.000000	0.259030 
418.000000	0.252160 
417.000000	0.245320 
416.000000	0.238620 
415.000000	0.232070 
414.000000	0.225680 
413.000000	0.219780 
412.000000	0.213930 
411.000000	0.208520 
410.000000	0.203260 
409.000000	0.198510 
408.000000	0.194010 
407.000000	0.189980 
406.000000	0.186530 
405.000000	0.183520 
404.000000	0.180850 
403.000000	0.178830 
402.000000	0.177400 
401.000000	0.176460 
400.000000	0.176020 

