PE UV                   SPECTRUM    ASCII       PEDS        1.60        
  -1
23MS273.SP
24/09/09
16:30:23.00
24/09/09
16:31:44.00


400.000000
1









4444

SCAN
1
1


0.0
480.0
2.00
MANUAL



UV/VIS




































#HDR
-1
-1
#GR
NM
A
0.00000011920928955078
0.0
700.000000
1.000000
301
8
0.550890
0.006840
#DATA
700.000000	0.007010 
699.000000	0.006930 
698.000000	0.007030 
697.000000	0.006930 
696.000000	0.006930 
695.000000	0.006970 
694.000000	0.006930 
693.000000	0.006840 
692.000000	0.006870 
691.000000	0.006850 
690.000000	0.006890 
689.000000	0.006930 
688.000000	0.006860 
687.000000	0.006840 
686.000000	0.006850 
685.000000	0.007090 
684.000000	0.007170 
683.000000	0.007160 
682.000000	0.007070 
681.000000	0.007170 
680.000000	0.007190 
679.000000	0.007080 
678.000000	0.007020 
677.000000	0.006980 
676.000000	0.007000 
675.000000	0.006970 
674.000000	0.006990 
673.000000	0.006990 
672.000000	0.007050 
671.000000	0.007050 
670.000000	0.007060 
669.000000	0.007040 
668.000000	0.007060 
667.000000	0.007050 
666.000000	0.006950 
665.000000	0.007040 
664.000000	0.007050 
663.000000	0.007060 
662.000000	0.007060 
661.000000	0.007130 
660.000000	0.007040 
659.000000	0.007200 
658.000000	0.007210 
657.000000	0.007170 
656.000000	0.007270 
655.000000	0.007290 
654.000000	0.007280 
653.000000	0.007330 
652.000000	0.007390 
651.000000	0.007390 
650.000000	0.007500 
649.000000	0.007540 
648.000000	0.007500 
647.000000	0.007510 
646.000000	0.007560 
645.000000	0.007600 
644.000000	0.007700 
643.000000	0.007740 
642.000000	0.007780 
641.000000	0.007820 
640.000000	0.007830 
639.000000	0.007830 
638.000000	0.007950 
637.000000	0.007979 
636.000000	0.008050 
635.000000	0.008130 
634.000000	0.008070 
633.000000	0.008189 
632.000000	0.008290 
631.000000	0.008310 
630.000000	0.008500 
629.000000	0.008410 
628.000000	0.008489 
627.000000	0.008510 
626.000000	0.008659 
625.000000	0.008760 
624.000000	0.008829 
623.000000	0.008970 
622.000000	0.008880 
621.000000	0.009050 
620.000000	0.009070 
619.000000	0.009200 
618.000000	0.009290 
617.000000	0.009360 
616.000000	0.009390 
615.000000	0.009520 
614.000000	0.009639 
613.000000	0.009730 
612.000000	0.009740 
611.000000	0.009769 
610.000000	0.009990 
609.000000	0.010030 
608.000000	0.010090 
607.000000	0.010260 
606.000000	0.010330 
605.000000	0.010440 
604.000000	0.010510 
603.000000	0.010760 
602.000000	0.010750 
601.000000	0.010920 
600.000000	0.010980 
599.000000	0.011060 
598.000000	0.011220 
597.000000	0.011340 
596.000000	0.011410 
595.000000	0.011600 
594.000000	0.011670 
593.000000	0.011830 
592.000000	0.012060 
591.000000	0.012140 
590.000000	0.012270 
589.000000	0.012460 
588.000000	0.012570 
587.000000	0.012790 
586.000000	0.012920 
585.000000	0.013080 
584.000000	0.013290 
583.000000	0.013360 
582.000000	0.013500 
581.000000	0.013710 
580.000000	0.013840 
579.000000	0.014110 
578.000000	0.014250 
577.000000	0.014390 
576.000000	0.014670 
575.000000	0.014720 
574.000000	0.015010 
573.000000	0.015130 
572.000000	0.015500 
571.000000	0.015620 
570.000000	0.015870 
569.000000	0.016110 
568.000000	0.016370 
567.000000	0.016700 
566.000000	0.016980 
565.000000	0.017270 
564.000000	0.017520 
563.000000	0.017880 
562.000000	0.018190 
561.000000	0.018690 
560.000000	0.019420 
559.000000	0.019900 
558.000000	0.020560 
557.000000	0.021060 
556.000000	0.021720 
555.000000	0.022160 
554.000000	0.022890 
553.000000	0.023560 
552.000000	0.024280 
551.000000	0.025070 
550.000000	0.025840 
549.000000	0.026710 
548.000000	0.027750 
547.000000	0.028820 
546.000000	0.029890 
545.000000	0.030910 
544.000000	0.032260 
543.000000	0.033530 
542.000000	0.034660 
541.000000	0.036290 
540.000000	0.037760 
539.000000	0.039540 
538.000000	0.041300 
537.000000	0.043270 
536.000000	0.045320 
535.000000	0.047440 
534.000000	0.049640 
533.000000	0.052010 
532.000000	0.054660 
531.000000	0.057420 
530.000000	0.060340 
529.000000	0.063530 
528.000000	0.066800 
527.000000	0.070389 
526.000000	0.074000 
525.000000	0.077820 
524.000000	0.081690 
523.000000	0.085850 
522.000000	0.090200 
521.000000	0.094909 
520.000000	0.099800 
519.000000	0.104800 
518.000000	0.109960 
517.000000	0.115330 
516.000000	0.120750 
515.000000	0.126560 
514.000000	0.132520 
513.000000	0.138890 
512.000000	0.145390 
511.000000	0.152340 
510.000000	0.159490 
509.000000	0.166810 
508.000000	0.174370 
507.000000	0.182050 
506.000000	0.190000 
505.000000	0.198070 
504.000000	0.206240 
503.000000	0.215000 
502.000000	0.223970 
501.000000	0.233160 
500.000000	0.242580 
499.000000	0.252540 
498.000000	0.262170 
497.000000	0.271880 
496.000000	0.281520 
495.000000	0.291650 
494.000000	0.301610 
493.000000	0.311710 
492.000000	0.321660 
491.000000	0.331970 
490.000000	0.342060 
489.000000	0.352050 
488.000000	0.362260 
487.000000	0.371990 
486.000000	0.381460 
485.000000	0.391040 
484.000000	0.400790 
483.000000	0.410370 
482.000000	0.419970 
481.000000	0.429560 
480.000000	0.438640 
479.000000	0.447570 
478.000000	0.456270 
477.000000	0.464660 
476.000000	0.472600 
475.000000	0.480340 
474.000000	0.488110 
473.000000	0.495310 
472.000000	0.502460 
471.000000	0.508939 
470.000000	0.515330 
469.000000	0.520690 
468.000000	0.525990 
467.000000	0.530610 
466.000000	0.534250 
465.000000	0.538370 
464.000000	0.541950 
463.000000	0.544770 
462.000000	0.547320 
461.000000	0.548760 
460.000000	0.549840 
459.000000	0.550890 
458.000000	0.550470 
457.000000	0.550640 
456.000000	0.550420 
455.000000	0.549110 
454.000000	0.547520 
453.000000	0.545260 
452.000000	0.542770 
451.000000	0.539310 
450.000000	0.535700 
449.000000	0.532010 
448.000000	0.527600 
447.000000	0.522830 
446.000000	0.517780 
445.000000	0.511710 
444.000000	0.505420 
443.000000	0.498980 
442.000000	0.491300 
441.000000	0.484380 
440.000000	0.476360 
439.000000	0.468720 
438.000000	0.460350 
437.000000	0.452380 
436.000000	0.443650 
435.000000	0.434780 
434.000000	0.425320 
433.000000	0.416080 
432.000000	0.407390 
431.000000	0.398340 
430.000000	0.389110 
429.000000	0.379680 
428.000000	0.370480 
427.000000	0.361120 
426.000000	0.351030 
425.000000	0.341800 
424.000000	0.332250 
423.000000	0.322800 
422.000000	0.312930 
421.000000	0.304210 
420.000000	0.295310 
419.000000	0.286260 
418.000000	0.277400 
417.000000	0.268590 
416.000000	0.259790 
415.000000	0.250980 
414.000000	0.242520 
413.000000	0.234280 
412.000000	0.226220 
411.000000	0.218480 
410.000000	0.211110 
409.000000	0.204180 
408.000000	0.197260 
407.000000	0.190780 
406.000000	0.184870 
405.000000	0.179380 
404.000000	0.174410 
403.000000	0.170040 
402.000000	0.166190 
401.000000	0.163040 
400.000000	0.160420 

