PE UV                   SPECTRUM    ASCII       PEDS        1.60        
  -1
23MS240.SP
24/09/09
16:33:01.00
24/09/09
16:35:26.00


400.000000
1









4444

SCAN
1
1


0.0
480.0
2.00
MANUAL



UV/VIS




































#HDR
-1
-1
#GR
NM
A
0.00000011920928955078
0.0
700.000000
1.000000
301
8
0.367480
0.006310
#DATA
700.000000	0.006310 
699.000000	0.006350 
698.000000	0.006350 
697.000000	0.006410 
696.000000	0.006540 
695.000000	0.006450 
694.000000	0.006510 
693.000000	0.006520 
692.000000	0.006480 
691.000000	0.006560 
690.000000	0.006600 
689.000000	0.006660 
688.000000	0.006740 
687.000000	0.006660 
686.000000	0.006660 
685.000000	0.006930 
684.000000	0.007060 
683.000000	0.007130 
682.000000	0.007060 
681.000000	0.007150 
680.000000	0.007220 
679.000000	0.007110 
678.000000	0.007080 
677.000000	0.007060 
676.000000	0.007130 
675.000000	0.007140 
674.000000	0.007160 
673.000000	0.007230 
672.000000	0.007250 
671.000000	0.007260 
670.000000	0.007370 
669.000000	0.007380 
668.000000	0.007340 
667.000000	0.007320 
666.000000	0.007470 
665.000000	0.007430 
664.000000	0.007400 
663.000000	0.007510 
662.000000	0.007600 
661.000000	0.007530 
660.000000	0.007410 
659.000000	0.007550 
658.000000	0.007670 
657.000000	0.007580 
656.000000	0.007610 
655.000000	0.007710 
654.000000	0.007790 
653.000000	0.007790 
652.000000	0.007870 
651.000000	0.007880 
650.000000	0.007970 
649.000000	0.007960 
648.000000	0.007939 
647.000000	0.007990 
646.000000	0.008100 
645.000000	0.008090 
644.000000	0.008250 
643.000000	0.008270 
642.000000	0.008270 
641.000000	0.008310 
640.000000	0.008440 
639.000000	0.008440 
638.000000	0.008529 
637.000000	0.008550 
636.000000	0.008670 
635.000000	0.008680 
634.000000	0.008730 
633.000000	0.008789 
632.000000	0.008860 
631.000000	0.009010 
630.000000	0.009050 
629.000000	0.009050 
628.000000	0.009160 
627.000000	0.009250 
626.000000	0.009299 
625.000000	0.009390 
624.000000	0.009560 
623.000000	0.009679 
622.000000	0.009750 
621.000000	0.009730 
620.000000	0.009809 
619.000000	0.010010 
618.000000	0.010100 
617.000000	0.010240 
616.000000	0.010340 
615.000000	0.010430 
614.000000	0.010610 
613.000000	0.010720 
612.000000	0.010790 
611.000000	0.010930 
610.000000	0.010990 
609.000000	0.011110 
608.000000	0.011240 
607.000000	0.011410 
606.000000	0.011580 
605.000000	0.011690 
604.000000	0.011840 
603.000000	0.011980 
602.000000	0.012110 
601.000000	0.012250 
600.000000	0.012400 
599.000000	0.012540 
598.000000	0.012720 
597.000000	0.012960 
596.000000	0.013110 
595.000000	0.013310 
594.000000	0.013420 
593.000000	0.013620 
592.000000	0.013750 
591.000000	0.013990 
590.000000	0.014310 
589.000000	0.014510 
588.000000	0.014660 
587.000000	0.014950 
586.000000	0.015170 
585.000000	0.015370 
584.000000	0.015590 
583.000000	0.015880 
582.000000	0.016100 
581.000000	0.016340 
580.000000	0.016540 
579.000000	0.016870 
578.000000	0.017100 
577.000000	0.017330 
576.000000	0.017570 
575.000000	0.017890 
574.000000	0.018210 
573.000000	0.018300 
572.000000	0.018770 
571.000000	0.018970 
570.000000	0.019340 
569.000000	0.019630 
568.000000	0.019970 
567.000000	0.020210 
566.000000	0.020600 
565.000000	0.020890 
564.000000	0.021290 
563.000000	0.021610 
562.000000	0.021990 
561.000000	0.022400 
560.000000	0.023430 
559.000000	0.023990 
558.000000	0.024640 
557.000000	0.025150 
556.000000	0.025700 
555.000000	0.026100 
554.000000	0.026790 
553.000000	0.027230 
552.000000	0.027850 
551.000000	0.028700 
550.000000	0.029300 
549.000000	0.030010 
548.000000	0.030820 
547.000000	0.031600 
546.000000	0.032400 
545.000000	0.033180 
544.000000	0.034120 
543.000000	0.035020 
542.000000	0.036020 
541.000000	0.037120 
540.000000	0.038120 
539.000000	0.039400 
538.000000	0.040490 
537.000000	0.041930 
536.000000	0.043220 
535.000000	0.044580 
534.000000	0.046020 
533.000000	0.047690 
532.000000	0.049530 
531.000000	0.051350 
530.000000	0.053390 
529.000000	0.055410 
528.000000	0.057490 
527.000000	0.059730 
526.000000	0.062040 
525.000000	0.064490 
524.000000	0.067140 
523.000000	0.069800 
522.000000	0.072660 
521.000000	0.075500 
520.000000	0.078690 
519.000000	0.081870 
518.000000	0.085090 
517.000000	0.088400 
516.000000	0.091820 
515.000000	0.095480 
514.000000	0.099330 
513.000000	0.103440 
512.000000	0.107740 
511.000000	0.112090 
510.000000	0.116620 
509.000000	0.121310 
508.000000	0.125950 
507.000000	0.130670 
506.000000	0.135780 
505.000000	0.141000 
504.000000	0.146310 
503.000000	0.151940 
502.000000	0.157840 
501.000000	0.163570 
500.000000	0.169460 
499.000000	0.175570 
498.000000	0.181440 
497.000000	0.187520 
496.000000	0.193780 
495.000000	0.200330 
494.000000	0.206790 
493.000000	0.213350 
492.000000	0.219780 
491.000000	0.226280 
490.000000	0.232300 
489.000000	0.238770 
488.000000	0.245000 
487.000000	0.251390 
486.000000	0.257490 
485.000000	0.263680 
484.000000	0.270080 
483.000000	0.276410 
482.000000	0.282440 
481.000000	0.288610 
480.000000	0.294190 
479.000000	0.299480 
478.000000	0.305100 
477.000000	0.310740 
476.000000	0.315870 
475.000000	0.321300 
474.000000	0.326110 
473.000000	0.330960 
472.000000	0.335440 
471.000000	0.339500 
470.000000	0.343390 
469.000000	0.347090 
468.000000	0.350450 
467.000000	0.353560 
466.000000	0.356250 
465.000000	0.358700 
464.000000	0.360960 
463.000000	0.363100 
462.000000	0.364380 
461.000000	0.365590 
460.000000	0.366530 
459.000000	0.367000 
458.000000	0.367090 
457.000000	0.367480 
456.000000	0.367000 
455.000000	0.366360 
454.000000	0.365720 
453.000000	0.364220 
452.000000	0.362610 
451.000000	0.360880 
450.000000	0.358490 
449.000000	0.356600 
448.000000	0.353690 
447.000000	0.350450 
446.000000	0.347310 
445.000000	0.343480 
444.000000	0.340020 
443.000000	0.335770 
442.000000	0.331200 
441.000000	0.326990 
440.000000	0.322260 
439.000000	0.317540 
438.000000	0.312150 
437.000000	0.307450 
436.000000	0.301530 
435.000000	0.296120 
434.000000	0.290730 
433.000000	0.284920 
432.000000	0.279570 
431.000000	0.274120 
430.000000	0.268530 
429.000000	0.262610 
428.000000	0.256670 
427.000000	0.251050 
426.000000	0.244820 
425.000000	0.239320 
424.000000	0.233170 
423.000000	0.227590 
422.000000	0.222100 
421.000000	0.216540 
420.000000	0.211070 
419.000000	0.205350 
418.000000	0.199750 
417.000000	0.194420 
416.000000	0.189050 
415.000000	0.184100 
414.000000	0.179130 
413.000000	0.174450 
412.000000	0.169750 
411.000000	0.165260 
410.000000	0.160810 
409.000000	0.156870 
408.000000	0.152670 
407.000000	0.149050 
406.000000	0.145750 
405.000000	0.142620 
404.000000	0.140040 
403.000000	0.137790 
402.000000	0.135680 
401.000000	0.134190 
400.000000	0.132890 

