PE UV                   SPECTRUM    ASCII       PEDS        1.60        
  -1
23MS261.SP
24/09/02
17:04:46.00
24/09/02
17:06:11.00


400.000000
1









4444

SCAN
1
1


0.0
480.0
2.00
MANUAL



UV/VIS




































#HDR
-1
-1
#GR
NM
A
0.00000011920928955078
0.0
700.000000
1.000000
301
8
0.788610
0.049910
#DATA
700.000000	0.049910 
699.000000	0.050010 
698.000000	0.049970 
697.000000	0.050090 
696.000000	0.050170 
695.000000	0.050220 
694.000000	0.050260 
693.000000	0.050320 
692.000000	0.050340 
691.000000	0.050360 
690.000000	0.050410 
689.000000	0.050430 
688.000000	0.050530 
687.000000	0.050550 
686.000000	0.050700 
685.000000	0.050740 
684.000000	0.050780 
683.000000	0.051070 
682.000000	0.051160 
681.000000	0.051190 
680.000000	0.051230 
679.000000	0.051310 
678.000000	0.051370 
677.000000	0.051290 
676.000000	0.051500 
675.000000	0.051720 
674.000000	0.051640 
673.000000	0.051790 
672.000000	0.051840 
671.000000	0.051860 
670.000000	0.052080 
669.000000	0.052090 
668.000000	0.052150 
667.000000	0.052270 
666.000000	0.052340 
665.000000	0.052390 
664.000000	0.052460 
663.000000	0.052650 
662.000000	0.052740 
661.000000	0.052820 
660.000000	0.052940 
659.000000	0.053010 
658.000000	0.052990 
657.000000	0.053120 
656.000000	0.053210 
655.000000	0.053270 
654.000000	0.053450 
653.000000	0.053470 
652.000000	0.053620 
651.000000	0.053730 
650.000000	0.053830 
649.000000	0.053930 
648.000000	0.054020 
647.000000	0.054140 
646.000000	0.054210 
645.000000	0.054400 
644.000000	0.054610 
643.000000	0.054710 
642.000000	0.054870 
641.000000	0.055020 
640.000000	0.055120 
639.000000	0.055190 
638.000000	0.055340 
637.000000	0.055600 
636.000000	0.055740 
635.000000	0.055940 
634.000000	0.056030 
633.000000	0.056190 
632.000000	0.056350 
631.000000	0.056570 
630.000000	0.056870 
629.000000	0.057080 
628.000000	0.057350 
627.000000	0.057460 
626.000000	0.057670 
625.000000	0.058000 
624.000000	0.058280 
623.000000	0.058620 
622.000000	0.058820 
621.000000	0.059140 
620.000000	0.059400 
619.000000	0.059770 
618.000000	0.060110 
617.000000	0.060440 
616.000000	0.060750 
615.000000	0.061290 
614.000000	0.061590 
613.000000	0.062020 
612.000000	0.062400 
611.000000	0.062909 
610.000000	0.063409 
609.000000	0.063820 
608.000000	0.064350 
607.000000	0.064970 
606.000000	0.065519 
605.000000	0.066080 
604.000000	0.066750 
603.000000	0.067410 
602.000000	0.068099 
601.000000	0.068849 
600.000000	0.069660 
599.000000	0.070569 
598.000000	0.071300 
597.000000	0.072190 
596.000000	0.073190 
595.000000	0.074079 
594.000000	0.075120 
593.000000	0.076369 
592.000000	0.077460 
591.000000	0.078770 
590.000000	0.080130 
589.000000	0.081520 
588.000000	0.083000 
587.000000	0.084540 
586.000000	0.086139 
585.000000	0.087740 
584.000000	0.089590 
583.000000	0.091450 
582.000000	0.093270 
581.000000	0.095220 
580.000000	0.097280 
579.000000	0.099370 
578.000000	0.101640 
577.000000	0.104040 
576.000000	0.106470 
575.000000	0.109030 
574.000000	0.111760 
573.000000	0.114630 
572.000000	0.117570 
571.000000	0.120750 
570.000000	0.123900 
569.000000	0.127330 
568.000000	0.130720 
567.000000	0.134220 
566.000000	0.137980 
565.000000	0.141910 
564.000000	0.146020 
563.000000	0.150330 
562.000000	0.154760 
561.000000	0.159600 
560.000000	0.164410 
559.000000	0.169440 
558.000000	0.175850 
557.000000	0.181290 
556.000000	0.186880 
555.000000	0.192480 
554.000000	0.198200 
553.000000	0.203970 
552.000000	0.210040 
551.000000	0.216050 
550.000000	0.222250 
549.000000	0.228800 
548.000000	0.235280 
547.000000	0.241840 
546.000000	0.248210 
545.000000	0.255040 
544.000000	0.261990 
543.000000	0.269330 
542.000000	0.276630 
541.000000	0.284040 
540.000000	0.291500 
539.000000	0.298930 
538.000000	0.306340 
537.000000	0.313910 
536.000000	0.321560 
535.000000	0.329500 
534.000000	0.337570 
533.000000	0.345660 
532.000000	0.353760 
531.000000	0.362040 
530.000000	0.370000 
529.000000	0.378000 
528.000000	0.385950 
527.000000	0.394030 
526.000000	0.401900 
525.000000	0.409920 
524.000000	0.417780 
523.000000	0.425660 
522.000000	0.433360 
521.000000	0.440750 
520.000000	0.448070 
519.000000	0.455230 
518.000000	0.461940 
517.000000	0.468650 
516.000000	0.475370 
515.000000	0.481920 
514.000000	0.488160 
513.000000	0.494630 
512.000000	0.500700 
511.000000	0.506540 
510.000000	0.511760 
509.000000	0.516850 
508.000000	0.522120 
507.000000	0.526920 
506.000000	0.531360 
505.000000	0.535930 
504.000000	0.540030 
503.000000	0.543810 
502.000000	0.547250 
501.000000	0.550490 
500.000000	0.553240 
499.000000	0.555820 
498.000000	0.557810 
497.000000	0.559700 
496.000000	0.561470 
495.000000	0.562720 
494.000000	0.563670 
493.000000	0.563910 
492.000000	0.564280 
491.000000	0.564280 
490.000000	0.563550 
489.000000	0.563020 
488.000000	0.562200 
487.000000	0.560720 
486.000000	0.558820 
485.000000	0.556810 
484.000000	0.554119 
483.000000	0.551890 
482.000000	0.548730 
481.000000	0.545700 
480.000000	0.542390 
479.000000	0.538650 
478.000000	0.534690 
477.000000	0.530620 
476.000000	0.526040 
475.000000	0.521210 
474.000000	0.515800 
473.000000	0.511030 
472.000000	0.505270 
471.000000	0.499880 
470.000000	0.494190 
469.000000	0.487940 
468.000000	0.481890 
467.000000	0.475660 
466.000000	0.469110 
465.000000	0.462550 
464.000000	0.455920 
463.000000	0.448990 
462.000000	0.442900 
461.000000	0.436340 
460.000000	0.429850 
459.000000	0.423240 
458.000000	0.416600 
457.000000	0.409910 
456.000000	0.403200 
455.000000	0.396480 
454.000000	0.389630 
453.000000	0.383170 
452.000000	0.376990 
451.000000	0.370920 
450.000000	0.364510 
449.000000	0.358840 
448.000000	0.352970 
447.000000	0.347000 
446.000000	0.341740 
445.000000	0.336400 
444.000000	0.331150 
443.000000	0.326910 
442.000000	0.322150 
441.000000	0.318550 
440.000000	0.314990 
439.000000	0.311470 
438.000000	0.308420 
437.000000	0.306000 
436.000000	0.303950 
435.000000	0.302400 
434.000000	0.301250 
433.000000	0.301160 
432.000000	0.301320 
431.000000	0.301900 
430.000000	0.303090 
429.000000	0.305550 
428.000000	0.307910 
427.000000	0.311470 
426.000000	0.315410 
425.000000	0.320470 
424.000000	0.326300 
423.000000	0.333020 
422.000000	0.340550 
421.000000	0.349260 
420.000000	0.358770 
419.000000	0.369300 
418.000000	0.381010 
417.000000	0.393880 
416.000000	0.407920 
415.000000	0.423070 
414.000000	0.439160 
413.000000	0.456060 
412.000000	0.474610 
411.000000	0.494690 
410.000000	0.516120 
409.000000	0.539530 
408.000000	0.564430 
407.000000	0.589580 
406.000000	0.615490 
405.000000	0.641930 
404.000000	0.668950 
403.000000	0.697280 
402.000000	0.726270 
401.000000	0.756800 
400.000000	0.788610 

