PE UV                   SPECTRUM    ASCII       PEDS        1.60        
  -1
23MS006.SP
24/09/03
16:14:47.00
24/09/03
16:16:02.00


400.000000
1









4444

SCAN
1
1


0.0
480.0
2.00
MANUAL



UV/VIS




































#HDR
-1
-1
#GR
NM
A
0.00000011920928955078
0.0
700.000000
1.000000
301
8
0.469130
0.007050
#DATA
700.000000	0.007540 
699.000000	0.007420 
698.000000	0.007420 
697.000000	0.007390 
696.000000	0.007260 
695.000000	0.007280 
694.000000	0.007210 
693.000000	0.007100 
692.000000	0.007060 
691.000000	0.007150 
690.000000	0.007050 
689.000000	0.007100 
688.000000	0.007150 
687.000000	0.007090 
686.000000	0.007240 
685.000000	0.007180 
684.000000	0.007240 
683.000000	0.007410 
682.000000	0.007480 
681.000000	0.007480 
680.000000	0.007560 
679.000000	0.007590 
678.000000	0.007680 
677.000000	0.007780 
676.000000	0.007750 
675.000000	0.007880 
674.000000	0.007860 
673.000000	0.007960 
672.000000	0.008160 
671.000000	0.008180 
670.000000	0.008170 
669.000000	0.008300 
668.000000	0.008330 
667.000000	0.008380 
666.000000	0.008449 
665.000000	0.008480 
664.000000	0.008540 
663.000000	0.008630 
662.000000	0.008680 
661.000000	0.008619 
660.000000	0.008850 
659.000000	0.008780 
658.000000	0.008800 
657.000000	0.008829 
656.000000	0.008840 
655.000000	0.008720 
654.000000	0.008860 
653.000000	0.008860 
652.000000	0.008880 
651.000000	0.008910 
650.000000	0.009030 
649.000000	0.008880 
648.000000	0.008959 
647.000000	0.008980 
646.000000	0.009110 
645.000000	0.009030 
644.000000	0.009180 
643.000000	0.009120 
642.000000	0.009360 
641.000000	0.009379 
640.000000	0.009440 
639.000000	0.009549 
638.000000	0.009679 
637.000000	0.009670 
636.000000	0.009820 
635.000000	0.010040 
634.000000	0.010140 
633.000000	0.010210 
632.000000	0.010460 
631.000000	0.010500 
630.000000	0.010720 
629.000000	0.010800 
628.000000	0.010940 
627.000000	0.011140 
626.000000	0.011330 
625.000000	0.011470 
624.000000	0.011750 
623.000000	0.011940 
622.000000	0.012170 
621.000000	0.012310 
620.000000	0.012510 
619.000000	0.012690 
618.000000	0.013000 
617.000000	0.013200 
616.000000	0.013530 
615.000000	0.013910 
614.000000	0.014170 
613.000000	0.014370 
612.000000	0.014780 
611.000000	0.015140 
610.000000	0.015390 
609.000000	0.015860 
608.000000	0.016250 
607.000000	0.016610 
606.000000	0.017070 
605.000000	0.017560 
604.000000	0.018160 
603.000000	0.018630 
602.000000	0.019110 
601.000000	0.019600 
600.000000	0.020230 
599.000000	0.020910 
598.000000	0.021570 
597.000000	0.022290 
596.000000	0.022950 
595.000000	0.023790 
594.000000	0.024570 
593.000000	0.025530 
592.000000	0.026380 
591.000000	0.027290 
590.000000	0.028360 
589.000000	0.029370 
588.000000	0.030630 
587.000000	0.031860 
586.000000	0.033160 
585.000000	0.034570 
584.000000	0.035860 
583.000000	0.037280 
582.000000	0.038680 
581.000000	0.040220 
580.000000	0.041730 
579.000000	0.043590 
578.000000	0.045250 
577.000000	0.047230 
576.000000	0.049130 
575.000000	0.051250 
574.000000	0.053260 
573.000000	0.055580 
572.000000	0.057700 
571.000000	0.060100 
570.000000	0.062510 
569.000000	0.065250 
568.000000	0.068010 
567.000000	0.070900 
566.000000	0.073870 
565.000000	0.076880 
564.000000	0.079940 
563.000000	0.083160 
562.000000	0.086550 
561.000000	0.090149 
560.000000	0.093770 
559.000000	0.097650 
558.000000	0.102280 
557.000000	0.106510 
556.000000	0.110640 
555.000000	0.114880 
554.000000	0.119090 
553.000000	0.123500 
552.000000	0.127870 
551.000000	0.132340 
550.000000	0.137100 
549.000000	0.142120 
548.000000	0.146980 
547.000000	0.152110 
546.000000	0.157050 
545.000000	0.162070 
544.000000	0.167070 
543.000000	0.172380 
542.000000	0.177680 
541.000000	0.183230 
540.000000	0.188860 
539.000000	0.194580 
538.000000	0.200270 
537.000000	0.206060 
536.000000	0.211910 
535.000000	0.217660 
534.000000	0.223310 
533.000000	0.229240 
532.000000	0.235250 
531.000000	0.241250 
530.000000	0.247420 
529.000000	0.253650 
528.000000	0.259620 
527.000000	0.265540 
526.000000	0.271380 
525.000000	0.276960 
524.000000	0.282570 
523.000000	0.288090 
522.000000	0.293760 
521.000000	0.299230 
520.000000	0.304850 
519.000000	0.310080 
518.000000	0.315200 
517.000000	0.320110 
516.000000	0.324850 
515.000000	0.329460 
514.000000	0.333960 
513.000000	0.338580 
512.000000	0.342930 
511.000000	0.347140 
510.000000	0.351220 
509.000000	0.355220 
508.000000	0.358880 
507.000000	0.362260 
506.000000	0.365410 
505.000000	0.368650 
504.000000	0.371530 
503.000000	0.374180 
502.000000	0.376590 
501.000000	0.379080 
500.000000	0.381200 
499.000000	0.383030 
498.000000	0.384510 
497.000000	0.386090 
496.000000	0.386900 
495.000000	0.387960 
494.000000	0.388460 
493.000000	0.388800 
492.000000	0.389080 
491.000000	0.388760 
490.000000	0.388480 
489.000000	0.387890 
488.000000	0.387170 
487.000000	0.385970 
486.000000	0.384740 
485.000000	0.383240 
484.000000	0.381500 
483.000000	0.379500 
482.000000	0.377240 
481.000000	0.374770 
480.000000	0.372190 
479.000000	0.369630 
478.000000	0.366510 
477.000000	0.363540 
476.000000	0.360240 
475.000000	0.356600 
474.000000	0.352660 
473.000000	0.348740 
472.000000	0.344470 
471.000000	0.340180 
470.000000	0.335790 
469.000000	0.331280 
468.000000	0.326890 
467.000000	0.322070 
466.000000	0.317100 
465.000000	0.312380 
464.000000	0.307240 
463.000000	0.301880 
462.000000	0.296900 
461.000000	0.291820 
460.000000	0.286820 
459.000000	0.281840 
458.000000	0.276670 
457.000000	0.271800 
456.000000	0.266710 
455.000000	0.261350 
454.000000	0.256050 
453.000000	0.250820 
452.000000	0.245960 
451.000000	0.240860 
450.000000	0.236100 
449.000000	0.231440 
448.000000	0.226860 
447.000000	0.222340 
446.000000	0.217890 
445.000000	0.213220 
444.000000	0.209080 
443.000000	0.204900 
442.000000	0.200690 
441.000000	0.197380 
440.000000	0.193980 
439.000000	0.190550 
438.000000	0.187920 
437.000000	0.185380 
436.000000	0.183000 
435.000000	0.181060 
434.000000	0.179470 
433.000000	0.177970 
432.000000	0.177090 
431.000000	0.176640 
430.000000	0.176460 
429.000000	0.176850 
428.000000	0.177330 
427.000000	0.178550 
426.000000	0.180130 
425.000000	0.182240 
424.000000	0.185380 
423.000000	0.188450 
422.000000	0.192790 
421.000000	0.197260 
420.000000	0.202390 
419.000000	0.207930 
418.000000	0.214600 
417.000000	0.221960 
416.000000	0.230050 
415.000000	0.239070 
414.000000	0.248870 
413.000000	0.259360 
412.000000	0.270490 
411.000000	0.282440 
410.000000	0.295240 
409.000000	0.309240 
408.000000	0.324450 
407.000000	0.340350 
406.000000	0.356900 
405.000000	0.374150 
404.000000	0.391850 
403.000000	0.410190 
402.000000	0.429150 
401.000000	0.448560 
400.000000	0.469130 

