PE UV                   SPECTRUM    ASCII       PEDS        1.60        
  -1
23MS026.SP
24/09/03
16:10:50.00
24/09/03
16:11:59.00


400.000000
1









4444

SCAN
1
1


0.0
480.0
2.00
MANUAL



UV/VIS




































#HDR
-1
-1
#GR
NM
A
0.00000011920928955078
0.0
700.000000
1.000000
301
8
0.875669
0.029940
#DATA
700.000000	0.029970 
699.000000	0.029940 
698.000000	0.030040 
697.000000	0.030030 
696.000000	0.030050 
695.000000	0.030210 
694.000000	0.030220 
693.000000	0.030280 
692.000000	0.030210 
691.000000	0.030380 
690.000000	0.030400 
689.000000	0.030490 
688.000000	0.030660 
687.000000	0.030650 
686.000000	0.030780 
685.000000	0.030810 
684.000000	0.030820 
683.000000	0.031110 
682.000000	0.031240 
681.000000	0.031450 
680.000000	0.031530 
679.000000	0.031660 
678.000000	0.031760 
677.000000	0.031920 
676.000000	0.032000 
675.000000	0.032070 
674.000000	0.032230 
673.000000	0.032330 
672.000000	0.032530 
671.000000	0.032650 
670.000000	0.032710 
669.000000	0.032840 
668.000000	0.032970 
667.000000	0.033040 
666.000000	0.033120 
665.000000	0.033300 
664.000000	0.033440 
663.000000	0.033430 
662.000000	0.033570 
661.000000	0.033640 
660.000000	0.033950 
659.000000	0.033970 
658.000000	0.034080 
657.000000	0.034240 
656.000000	0.034430 
655.000000	0.034490 
654.000000	0.034650 
653.000000	0.034800 
652.000000	0.034990 
651.000000	0.035130 
650.000000	0.035330 
649.000000	0.035370 
648.000000	0.035590 
647.000000	0.035710 
646.000000	0.035880 
645.000000	0.036070 
644.000000	0.036250 
643.000000	0.036370 
642.000000	0.036700 
641.000000	0.036850 
640.000000	0.037040 
639.000000	0.037130 
638.000000	0.037400 
637.000000	0.037560 
636.000000	0.037750 
635.000000	0.037990 
634.000000	0.038250 
633.000000	0.038460 
632.000000	0.038720 
631.000000	0.038930 
630.000000	0.039230 
629.000000	0.039480 
628.000000	0.039770 
627.000000	0.039970 
626.000000	0.040320 
625.000000	0.040650 
624.000000	0.040900 
623.000000	0.041250 
622.000000	0.041640 
621.000000	0.041940 
620.000000	0.042310 
619.000000	0.042710 
618.000000	0.043080 
617.000000	0.043430 
616.000000	0.043970 
615.000000	0.044440 
614.000000	0.045010 
613.000000	0.045360 
612.000000	0.045890 
611.000000	0.046490 
610.000000	0.047010 
609.000000	0.047660 
608.000000	0.048230 
607.000000	0.048830 
606.000000	0.049420 
605.000000	0.050070 
604.000000	0.050990 
603.000000	0.051790 
602.000000	0.052640 
601.000000	0.053500 
600.000000	0.054400 
599.000000	0.055450 
598.000000	0.056290 
597.000000	0.057450 
596.000000	0.058540 
595.000000	0.059770 
594.000000	0.060980 
593.000000	0.062470 
592.000000	0.063820 
591.000000	0.065470 
590.000000	0.066910 
589.000000	0.068540 
588.000000	0.070340 
587.000000	0.072179 
586.000000	0.074140 
585.000000	0.076270 
584.000000	0.078290 
583.000000	0.080560 
582.000000	0.082890 
581.000000	0.085300 
580.000000	0.087640 
579.000000	0.090329 
578.000000	0.092850 
577.000000	0.095960 
576.000000	0.098919 
575.000000	0.102190 
574.000000	0.105510 
573.000000	0.109100 
572.000000	0.112610 
571.000000	0.116370 
570.000000	0.120130 
569.000000	0.124180 
568.000000	0.128330 
567.000000	0.132920 
566.000000	0.137480 
565.000000	0.142380 
564.000000	0.147530 
563.000000	0.152900 
562.000000	0.158300 
561.000000	0.163950 
560.000000	0.169570 
559.000000	0.175420 
558.000000	0.182880 
557.000000	0.189520 
556.000000	0.196540 
555.000000	0.203320 
554.000000	0.210280 
553.000000	0.217470 
552.000000	0.224510 
551.000000	0.231880 
550.000000	0.239660 
549.000000	0.247340 
548.000000	0.255220 
547.000000	0.263300 
546.000000	0.271240 
545.000000	0.279680 
544.000000	0.288300 
543.000000	0.297040 
542.000000	0.305730 
541.000000	0.314510 
540.000000	0.323270 
539.000000	0.332240 
538.000000	0.341410 
537.000000	0.351090 
536.000000	0.360620 
535.000000	0.370400 
534.000000	0.379940 
533.000000	0.389800 
532.000000	0.399430 
531.000000	0.408930 
530.000000	0.418700 
529.000000	0.428600 
528.000000	0.438380 
527.000000	0.448220 
526.000000	0.458130 
525.000000	0.467810 
524.000000	0.477300 
523.000000	0.486370 
522.000000	0.495370 
521.000000	0.504170 
520.000000	0.513260 
519.000000	0.521920 
518.000000	0.530130 
517.000000	0.538490 
516.000000	0.546629 
515.000000	0.554670 
514.000000	0.562270 
513.000000	0.569680 
512.000000	0.576860 
511.000000	0.583580 
510.000000	0.590270 
509.000000	0.596870 
508.000000	0.603260 
507.000000	0.609020 
506.000000	0.614520 
505.000000	0.620070 
504.000000	0.624850 
503.000000	0.629280 
502.000000	0.633390 
501.000000	0.637240 
500.000000	0.640740 
499.000000	0.644030 
498.000000	0.646480 
497.000000	0.649320 
496.000000	0.651280 
495.000000	0.652650 
494.000000	0.653940 
493.000000	0.654740 
492.000000	0.654800 
491.000000	0.654570 
490.000000	0.653980 
489.000000	0.653610 
488.000000	0.652330 
487.000000	0.650800 
486.000000	0.648780 
485.000000	0.646380 
484.000000	0.643710 
483.000000	0.640640 
482.000000	0.636930 
481.000000	0.633530 
480.000000	0.629620 
479.000000	0.625279 
478.000000	0.620600 
477.000000	0.615650 
476.000000	0.610140 
475.000000	0.604640 
474.000000	0.598340 
473.000000	0.592680 
472.000000	0.586530 
471.000000	0.579380 
470.000000	0.572570 
469.000000	0.565570 
468.000000	0.558210 
467.000000	0.550380 
466.000000	0.542500 
465.000000	0.535110 
464.000000	0.527270 
463.000000	0.519250 
462.000000	0.511650 
461.000000	0.503810 
460.000000	0.495940 
459.000000	0.487730 
458.000000	0.479220 
457.000000	0.471360 
456.000000	0.463590 
455.000000	0.455710 
454.000000	0.448030 
453.000000	0.440280 
452.000000	0.432770 
451.000000	0.424960 
450.000000	0.417180 
449.000000	0.409720 
448.000000	0.402750 
447.000000	0.396140 
446.000000	0.389370 
445.000000	0.383240 
444.000000	0.376990 
443.000000	0.370960 
442.000000	0.364730 
441.000000	0.360220 
440.000000	0.354850 
439.000000	0.350350 
438.000000	0.346550 
437.000000	0.343130 
436.000000	0.340910 
435.000000	0.338250 
434.000000	0.336330 
433.000000	0.335360 
432.000000	0.334860 
431.000000	0.335180 
430.000000	0.336360 
429.000000	0.338050 
428.000000	0.340430 
427.000000	0.343810 
426.000000	0.347450 
425.000000	0.353090 
424.000000	0.358740 
423.000000	0.365610 
422.000000	0.374110 
421.000000	0.383960 
420.000000	0.394260 
419.000000	0.405790 
418.000000	0.418270 
417.000000	0.432100 
416.000000	0.447050 
415.000000	0.463600 
414.000000	0.481510 
413.000000	0.501090 
412.000000	0.522259 
411.000000	0.545000 
410.000000	0.569219 
409.000000	0.595040 
408.000000	0.621740 
407.000000	0.649600 
406.000000	0.678350 
405.000000	0.708740 
404.000000	0.739910 
403.000000	0.771710 
402.000000	0.805119 
401.000000	0.840350 
400.000000	0.875669 

