PE UV                   SPECTRUM    ASCII       PEDS        1.60        
  -1
23MS039.SP
24/09/03
16:06:47.00
24/09/03
16:08:31.00


400.000000
1









4444

SCAN
1
1


0.0
480.0
2.00
MANUAL



UV/VIS




































#HDR
-1
-1
#GR
NM
A
0.00000011920928955078
0.0
700.000000
1.000000
301
8
1.071520
0.024560
#DATA
700.000000	0.024730 
699.000000	0.024680 
698.000000	0.024710 
697.000000	0.024710 
696.000000	0.024560 
695.000000	0.024600 
694.000000	0.024660 
693.000000	0.024810 
692.000000	0.024800 
691.000000	0.024920 
690.000000	0.024770 
689.000000	0.024840 
688.000000	0.025010 
687.000000	0.024890 
686.000000	0.025060 
685.000000	0.025080 
684.000000	0.025200 
683.000000	0.025300 
682.000000	0.025420 
681.000000	0.025500 
680.000000	0.025470 
679.000000	0.025630 
678.000000	0.025620 
677.000000	0.025760 
676.000000	0.025710 
675.000000	0.025880 
674.000000	0.025980 
673.000000	0.025910 
672.000000	0.026150 
671.000000	0.026100 
670.000000	0.026160 
669.000000	0.026170 
668.000000	0.026220 
667.000000	0.026410 
666.000000	0.026380 
665.000000	0.026580 
664.000000	0.026770 
663.000000	0.026760 
662.000000	0.026850 
661.000000	0.026960 
660.000000	0.027260 
659.000000	0.027330 
658.000000	0.027420 
657.000000	0.027690 
656.000000	0.027730 
655.000000	0.027910 
654.000000	0.028030 
653.000000	0.028080 
652.000000	0.028160 
651.000000	0.028450 
650.000000	0.028420 
649.000000	0.028440 
648.000000	0.028670 
647.000000	0.028850 
646.000000	0.029060 
645.000000	0.029180 
644.000000	0.029390 
643.000000	0.029520 
642.000000	0.029860 
641.000000	0.030050 
640.000000	0.030200 
639.000000	0.030320 
638.000000	0.030520 
637.000000	0.030740 
636.000000	0.030960 
635.000000	0.031200 
634.000000	0.031400 
633.000000	0.031570 
632.000000	0.031840 
631.000000	0.032050 
630.000000	0.032360 
629.000000	0.032550 
628.000000	0.032940 
627.000000	0.033190 
626.000000	0.033610 
625.000000	0.033850 
624.000000	0.034190 
623.000000	0.034610 
622.000000	0.034990 
621.000000	0.035210 
620.000000	0.035770 
619.000000	0.036180 
618.000000	0.036640 
617.000000	0.037110 
616.000000	0.037560 
615.000000	0.038140 
614.000000	0.038780 
613.000000	0.039230 
612.000000	0.039850 
611.000000	0.040480 
610.000000	0.041140 
609.000000	0.041810 
608.000000	0.042590 
607.000000	0.043280 
606.000000	0.044090 
605.000000	0.044910 
604.000000	0.045900 
603.000000	0.046820 
602.000000	0.047780 
601.000000	0.048920 
600.000000	0.049990 
599.000000	0.051240 
598.000000	0.052410 
597.000000	0.053740 
596.000000	0.055060 
595.000000	0.056520 
594.000000	0.057960 
593.000000	0.059810 
592.000000	0.061550 
591.000000	0.063510 
590.000000	0.065420 
589.000000	0.067380 
588.000000	0.069690 
587.000000	0.071980 
586.000000	0.074490 
585.000000	0.077070 
584.000000	0.079680 
583.000000	0.082419 
582.000000	0.085380 
581.000000	0.088400 
580.000000	0.091520 
579.000000	0.094950 
578.000000	0.098350 
577.000000	0.102090 
576.000000	0.105770 
575.000000	0.109840 
574.000000	0.114000 
573.000000	0.118400 
572.000000	0.123000 
571.000000	0.127980 
570.000000	0.132960 
569.000000	0.138190 
568.000000	0.143540 
567.000000	0.149100 
566.000000	0.154850 
565.000000	0.160940 
564.000000	0.167490 
563.000000	0.174220 
562.000000	0.181340 
561.000000	0.188730 
560.000000	0.196200 
559.000000	0.204030 
558.000000	0.212840 
557.000000	0.221230 
556.000000	0.229790 
555.000000	0.238800 
554.000000	0.247470 
553.000000	0.256730 
552.000000	0.266050 
551.000000	0.275570 
550.000000	0.285500 
549.000000	0.295480 
548.000000	0.305520 
547.000000	0.315660 
546.000000	0.325860 
545.000000	0.336400 
544.000000	0.347670 
543.000000	0.359020 
542.000000	0.370420 
541.000000	0.382120 
540.000000	0.393900 
539.000000	0.405510 
538.000000	0.417240 
537.000000	0.429070 
536.000000	0.441160 
535.000000	0.453480 
534.000000	0.466300 
533.000000	0.478810 
532.000000	0.491700 
531.000000	0.504600 
530.000000	0.517380 
529.000000	0.530200 
528.000000	0.542430 
527.000000	0.554840 
526.000000	0.567370 
525.000000	0.579590 
524.000000	0.591870 
523.000000	0.603900 
522.000000	0.615910 
521.000000	0.627650 
520.000000	0.639250 
519.000000	0.650230 
518.000000	0.660860 
517.000000	0.671040 
516.000000	0.681470 
515.000000	0.691670 
514.000000	0.701620 
513.000000	0.711810 
512.000000	0.721080 
511.000000	0.729930 
510.000000	0.738580 
509.000000	0.746760 
508.000000	0.754230 
507.000000	0.761640 
506.000000	0.768230 
505.000000	0.775400 
504.000000	0.781860 
503.000000	0.787780 
502.000000	0.792720 
501.000000	0.797700 
500.000000	0.801840 
499.000000	0.805840 
498.000000	0.808190 
497.000000	0.811970 
496.000000	0.814280 
495.000000	0.815850 
494.000000	0.817080 
493.000000	0.817740 
492.000000	0.817890 
491.000000	0.817380 
490.000000	0.816040 
489.000000	0.815340 
488.000000	0.813680 
487.000000	0.811370 
486.000000	0.808590 
485.000000	0.805020 
484.000000	0.801200 
483.000000	0.796840 
482.000000	0.791770 
481.000000	0.787220 
480.000000	0.781240 
479.000000	0.775960 
478.000000	0.769429 
477.000000	0.762640 
476.000000	0.755140 
475.000000	0.747570 
474.000000	0.738270 
473.000000	0.730670 
472.000000	0.722130 
471.000000	0.713050 
470.000000	0.704240 
469.000000	0.694680 
468.000000	0.684970 
467.000000	0.674420 
466.000000	0.663880 
465.000000	0.653250 
464.000000	0.642830 
463.000000	0.631980 
462.000000	0.622030 
461.000000	0.611340 
460.000000	0.601230 
459.000000	0.590560 
458.000000	0.579440 
457.000000	0.568780 
456.000000	0.558000 
455.000000	0.547120 
454.000000	0.536510 
453.000000	0.525760 
452.000000	0.515550 
451.000000	0.505740 
450.000000	0.495710 
449.000000	0.485900 
448.000000	0.476460 
447.000000	0.467170 
446.000000	0.457770 
445.000000	0.448690 
444.000000	0.440290 
443.000000	0.432630 
442.000000	0.424820 
441.000000	0.418490 
440.000000	0.411930 
439.000000	0.405880 
438.000000	0.400270 
437.000000	0.395440 
436.000000	0.391970 
435.000000	0.388610 
434.000000	0.386020 
433.000000	0.384860 
432.000000	0.383840 
431.000000	0.384130 
430.000000	0.385350 
429.000000	0.387150 
428.000000	0.390120 
427.000000	0.394080 
426.000000	0.399170 
425.000000	0.406330 
424.000000	0.413910 
423.000000	0.422860 
422.000000	0.432840 
421.000000	0.444470 
420.000000	0.457820 
419.000000	0.472730 
418.000000	0.489340 
417.000000	0.507900 
416.000000	0.527800 
415.000000	0.549370 
414.000000	0.572620 
413.000000	0.597060 
412.000000	0.623380 
411.000000	0.652470 
410.000000	0.683480 
409.000000	0.717320 
408.000000	0.753170 
407.000000	0.789900 
406.000000	0.827210 
405.000000	0.865520 
404.000000	0.904800 
403.000000	0.944590 
402.000000	0.985280 
401.000000	1.027550 
400.000000	1.071520 

