PE UV                   SPECTRUM    ASCII       PEDS        1.60        
  -1
23MS156.SP
24/08/30
17:10:24.00
24/08/30
17:11:31.00


400.000000
1









4444

SCAN
1
1


0.0
480.0
2.00
MANUAL



UV/VIS




































#HDR
-1
-1
#GR
NM
A
0.00000011920928955078
0.0
700.000000
1.000000
301
8
0.338460
0.014880
#DATA
700.000000	0.014890 
699.000000	0.014880 
698.000000	0.015040 
697.000000	0.015100 
696.000000	0.014980 
695.000000	0.015070 
694.000000	0.015080 
693.000000	0.015160 
692.000000	0.015260 
691.000000	0.015280 
690.000000	0.015340 
689.000000	0.015420 
688.000000	0.015480 
687.000000	0.015500 
686.000000	0.015580 
685.000000	0.015560 
684.000000	0.015470 
683.000000	0.015480 
682.000000	0.015540 
681.000000	0.015470 
680.000000	0.015630 
679.000000	0.015630 
678.000000	0.015670 
677.000000	0.015690 
676.000000	0.015730 
675.000000	0.015850 
674.000000	0.015790 
673.000000	0.015760 
672.000000	0.015700 
671.000000	0.015900 
670.000000	0.015870 
669.000000	0.016060 
668.000000	0.016050 
667.000000	0.016050 
666.000000	0.016070 
665.000000	0.016130 
664.000000	0.016200 
663.000000	0.016170 
662.000000	0.016220 
661.000000	0.016250 
660.000000	0.016310 
659.000000	0.016260 
658.000000	0.016410 
657.000000	0.016510 
656.000000	0.016420 
655.000000	0.016540 
654.000000	0.016470 
653.000000	0.016620 
652.000000	0.016610 
651.000000	0.016720 
650.000000	0.016730 
649.000000	0.016770 
648.000000	0.016800 
647.000000	0.017070 
646.000000	0.016990 
645.000000	0.017090 
644.000000	0.017140 
643.000000	0.017240 
642.000000	0.017420 
641.000000	0.017440 
640.000000	0.017530 
639.000000	0.017650 
638.000000	0.017770 
637.000000	0.017790 
636.000000	0.017910 
635.000000	0.018010 
634.000000	0.018190 
633.000000	0.018330 
632.000000	0.018470 
631.000000	0.018640 
630.000000	0.018760 
629.000000	0.018810 
628.000000	0.018920 
627.000000	0.019080 
626.000000	0.019300 
625.000000	0.019510 
624.000000	0.019570 
623.000000	0.019780 
622.000000	0.020040 
621.000000	0.020150 
620.000000	0.020410 
619.000000	0.020550 
618.000000	0.020800 
617.000000	0.020970 
616.000000	0.021220 
615.000000	0.021400 
614.000000	0.021810 
613.000000	0.022040 
612.000000	0.022350 
611.000000	0.022670 
610.000000	0.022870 
609.000000	0.023280 
608.000000	0.023530 
607.000000	0.023830 
606.000000	0.024240 
605.000000	0.024660 
604.000000	0.025000 
603.000000	0.025500 
602.000000	0.025990 
601.000000	0.026460 
600.000000	0.026900 
599.000000	0.027360 
598.000000	0.027880 
597.000000	0.028460 
596.000000	0.028980 
595.000000	0.029550 
594.000000	0.030210 
593.000000	0.030880 
592.000000	0.031530 
591.000000	0.032150 
590.000000	0.033020 
589.000000	0.033720 
588.000000	0.034500 
587.000000	0.035420 
586.000000	0.036400 
585.000000	0.037320 
584.000000	0.038260 
583.000000	0.039290 
582.000000	0.040300 
581.000000	0.041330 
580.000000	0.042350 
579.000000	0.043490 
578.000000	0.044570 
577.000000	0.045820 
576.000000	0.047120 
575.000000	0.048400 
574.000000	0.049800 
573.000000	0.051230 
572.000000	0.052690 
571.000000	0.054090 
570.000000	0.055610 
569.000000	0.057140 
568.000000	0.058960 
567.000000	0.060550 
566.000000	0.062480 
565.000000	0.064360 
564.000000	0.066170 
563.000000	0.068230 
562.000000	0.070110 
561.000000	0.072420 
560.000000	0.074710 
559.000000	0.077049 
558.000000	0.079330 
557.000000	0.081699 
556.000000	0.084180 
555.000000	0.086660 
554.000000	0.089120 
553.000000	0.091590 
552.000000	0.094130 
551.000000	0.096640 
550.000000	0.099190 
549.000000	0.101860 
548.000000	0.104790 
547.000000	0.107580 
546.000000	0.110140 
545.000000	0.113110 
544.000000	0.116050 
543.000000	0.119030 
542.000000	0.122010 
541.000000	0.124910 
540.000000	0.127790 
539.000000	0.130840 
538.000000	0.133950 
537.000000	0.137110 
536.000000	0.140300 
535.000000	0.143450 
534.000000	0.146580 
533.000000	0.149780 
532.000000	0.152970 
531.000000	0.156070 
530.000000	0.159390 
529.000000	0.162590 
528.000000	0.165820 
527.000000	0.169100 
526.000000	0.172260 
525.000000	0.175430 
524.000000	0.178310 
523.000000	0.181410 
522.000000	0.184270 
521.000000	0.187100 
520.000000	0.190040 
519.000000	0.192940 
518.000000	0.195590 
517.000000	0.198220 
516.000000	0.200780 
515.000000	0.203150 
514.000000	0.205670 
513.000000	0.208060 
512.000000	0.210330 
511.000000	0.212400 
510.000000	0.214640 
509.000000	0.216600 
508.000000	0.218660 
507.000000	0.220360 
506.000000	0.222130 
505.000000	0.223790 
504.000000	0.225390 
503.000000	0.226610 
502.000000	0.227900 
501.000000	0.229100 
500.000000	0.230120 
499.000000	0.231100 
498.000000	0.231800 
497.000000	0.232350 
496.000000	0.233080 
495.000000	0.233450 
494.000000	0.233590 
493.000000	0.233810 
492.000000	0.233820 
491.000000	0.233740 
490.000000	0.233370 
489.000000	0.233050 
488.000000	0.232460 
487.000000	0.231750 
486.000000	0.231050 
485.000000	0.230060 
484.000000	0.229300 
483.000000	0.228000 
482.000000	0.226700 
481.000000	0.225520 
480.000000	0.224080 
479.000000	0.222340 
478.000000	0.220410 
477.000000	0.219020 
476.000000	0.217110 
475.000000	0.215010 
474.000000	0.213090 
473.000000	0.211140 
472.000000	0.208840 
471.000000	0.206360 
470.000000	0.203910 
469.000000	0.201610 
468.000000	0.198910 
467.000000	0.196460 
466.000000	0.193680 
465.000000	0.191200 
464.000000	0.188480 
463.000000	0.185600 
462.000000	0.183060 
461.000000	0.180400 
460.000000	0.177870 
459.000000	0.175100 
458.000000	0.172130 
457.000000	0.169730 
456.000000	0.166990 
455.000000	0.164380 
454.000000	0.161650 
453.000000	0.158970 
452.000000	0.156520 
451.000000	0.154210 
450.000000	0.151640 
449.000000	0.149230 
448.000000	0.146970 
447.000000	0.144580 
446.000000	0.142530 
445.000000	0.140500 
444.000000	0.138580 
443.000000	0.136800 
442.000000	0.134770 
441.000000	0.133730 
440.000000	0.132170 
439.000000	0.131090 
438.000000	0.130060 
437.000000	0.129380 
436.000000	0.128740 
435.000000	0.128340 
434.000000	0.128320 
433.000000	0.128380 
432.000000	0.128780 
431.000000	0.129450 
430.000000	0.130070 
429.000000	0.131110 
428.000000	0.132600 
427.000000	0.134340 
426.000000	0.136150 
425.000000	0.138590 
424.000000	0.141210 
423.000000	0.144510 
422.000000	0.147800 
421.000000	0.152070 
420.000000	0.156390 
419.000000	0.160990 
418.000000	0.165860 
417.000000	0.171310 
416.000000	0.177310 
415.000000	0.183700 
414.000000	0.190790 
413.000000	0.198290 
412.000000	0.206400 
411.000000	0.214910 
410.000000	0.224120 
409.000000	0.233620 
408.000000	0.243570 
407.000000	0.253850 
406.000000	0.264860 
405.000000	0.275890 
404.000000	0.287560 
403.000000	0.299600 
402.000000	0.312160 
401.000000	0.325270 
400.000000	0.338460 

