PE UV                   SPECTRUM    ASCII       PEDS        1.60        
  -1
23MS067.SP
24/09/05
16:36:42.00
24/09/05
16:37:47.00


400.000000
1









4444

SCAN
1
1


0.0
480.0
2.00
MANUAL



UV/VIS




































#HDR
-1
-1
#GR
NM
A
0.00000011920928955078
0.0
700.000000
1.000000
301
8
0.408530
0.022540
#DATA
700.000000	0.022560 
699.000000	0.022540 
698.000000	0.022860 
697.000000	0.022970 
696.000000	0.023080 
695.000000	0.023210 
694.000000	0.023240 
693.000000	0.023320 
692.000000	0.023470 
691.000000	0.023500 
690.000000	0.023620 
689.000000	0.023800 
688.000000	0.023980 
687.000000	0.024140 
686.000000	0.024240 
685.000000	0.024540 
684.000000	0.024740 
683.000000	0.024920 
682.000000	0.024930 
681.000000	0.025060 
680.000000	0.025300 
679.000000	0.025420 
678.000000	0.025670 
677.000000	0.025950 
676.000000	0.026170 
675.000000	0.026260 
674.000000	0.026420 
673.000000	0.026660 
672.000000	0.026860 
671.000000	0.026930 
670.000000	0.027190 
669.000000	0.027340 
668.000000	0.027500 
667.000000	0.027760 
666.000000	0.027960 
665.000000	0.028250 
664.000000	0.028440 
663.000000	0.028540 
662.000000	0.028700 
661.000000	0.028870 
660.000000	0.029210 
659.000000	0.029370 
658.000000	0.029590 
657.000000	0.029860 
656.000000	0.030050 
655.000000	0.030280 
654.000000	0.030410 
653.000000	0.030700 
652.000000	0.030940 
651.000000	0.031240 
650.000000	0.031430 
649.000000	0.031580 
648.000000	0.031840 
647.000000	0.032120 
646.000000	0.032290 
645.000000	0.032550 
644.000000	0.032680 
643.000000	0.032980 
642.000000	0.033170 
641.000000	0.033460 
640.000000	0.033640 
639.000000	0.033800 
638.000000	0.034160 
637.000000	0.034320 
636.000000	0.034480 
635.000000	0.034610 
634.000000	0.034890 
633.000000	0.035130 
632.000000	0.035410 
631.000000	0.035760 
630.000000	0.036090 
629.000000	0.036300 
628.000000	0.036620 
627.000000	0.036860 
626.000000	0.037070 
625.000000	0.037280 
624.000000	0.037540 
623.000000	0.037870 
622.000000	0.038030 
621.000000	0.038320 
620.000000	0.038600 
619.000000	0.038910 
618.000000	0.039100 
617.000000	0.039360 
616.000000	0.039500 
615.000000	0.039880 
614.000000	0.040140 
613.000000	0.040430 
612.000000	0.040710 
611.000000	0.041020 
610.000000	0.041420 
609.000000	0.041740 
608.000000	0.042100 
607.000000	0.042480 
606.000000	0.042870 
605.000000	0.043290 
604.000000	0.043670 
603.000000	0.044150 
602.000000	0.044660 
601.000000	0.045340 
600.000000	0.045670 
599.000000	0.046130 
598.000000	0.046730 
597.000000	0.047150 
596.000000	0.047760 
595.000000	0.048230 
594.000000	0.048990 
593.000000	0.049560 
592.000000	0.050210 
591.000000	0.050980 
590.000000	0.051700 
589.000000	0.052410 
588.000000	0.053080 
587.000000	0.053790 
586.000000	0.054640 
585.000000	0.055500 
584.000000	0.056440 
583.000000	0.057230 
582.000000	0.058150 
581.000000	0.059040 
580.000000	0.059970 
579.000000	0.060970 
578.000000	0.062010 
577.000000	0.062870 
576.000000	0.064010 
575.000000	0.065050 
574.000000	0.066220 
573.000000	0.067370 
572.000000	0.068590 
571.000000	0.069810 
570.000000	0.070970 
569.000000	0.072320 
568.000000	0.073520 
567.000000	0.074940 
566.000000	0.076330 
565.000000	0.077950 
564.000000	0.079370 
563.000000	0.080850 
562.000000	0.082500 
561.000000	0.084130 
560.000000	0.085720 
559.000000	0.087400 
558.000000	0.088890 
557.000000	0.090759 
556.000000	0.092670 
555.000000	0.094460 
554.000000	0.096360 
553.000000	0.098190 
552.000000	0.100180 
551.000000	0.102100 
550.000000	0.104100 
549.000000	0.106080 
548.000000	0.107960 
547.000000	0.110110 
546.000000	0.112150 
545.000000	0.114340 
544.000000	0.116590 
543.000000	0.118780 
542.000000	0.120760 
541.000000	0.123140 
540.000000	0.125270 
539.000000	0.127470 
538.000000	0.129860 
537.000000	0.132230 
536.000000	0.134510 
535.000000	0.136910 
534.000000	0.139350 
533.000000	0.141740 
532.000000	0.144070 
531.000000	0.146440 
530.000000	0.148890 
529.000000	0.151340 
528.000000	0.153680 
527.000000	0.156200 
526.000000	0.158690 
525.000000	0.161030 
524.000000	0.163470 
523.000000	0.165650 
522.000000	0.167990 
521.000000	0.170290 
520.000000	0.172650 
519.000000	0.174750 
518.000000	0.176910 
517.000000	0.178950 
516.000000	0.181190 
515.000000	0.183130 
514.000000	0.185240 
513.000000	0.187230 
512.000000	0.189110 
511.000000	0.191060 
510.000000	0.192980 
509.000000	0.194680 
508.000000	0.196510 
507.000000	0.198100 
506.000000	0.199860 
505.000000	0.201590 
504.000000	0.203010 
503.000000	0.204350 
502.000000	0.205860 
501.000000	0.207150 
500.000000	0.208480 
499.000000	0.209650 
498.000000	0.210990 
497.000000	0.211950 
496.000000	0.213100 
495.000000	0.213790 
494.000000	0.214700 
493.000000	0.215600 
492.000000	0.216250 
491.000000	0.216780 
490.000000	0.217290 
489.000000	0.217750 
488.000000	0.218110 
487.000000	0.218530 
486.000000	0.218850 
485.000000	0.218950 
484.000000	0.219030 
483.000000	0.219020 
482.000000	0.218960 
481.000000	0.219190 
480.000000	0.219010 
479.000000	0.218930 
478.000000	0.218740 
477.000000	0.218460 
476.000000	0.218260 
475.000000	0.218120 
474.000000	0.217640 
473.000000	0.217150 
472.000000	0.216500 
471.000000	0.216190 
470.000000	0.215950 
469.000000	0.215030 
468.000000	0.214600 
467.000000	0.213990 
466.000000	0.213240 
465.000000	0.212820 
464.000000	0.212060 
463.000000	0.211420 
462.000000	0.210900 
461.000000	0.210380 
460.000000	0.209560 
459.000000	0.209050 
458.000000	0.208560 
457.000000	0.207930 
456.000000	0.207430 
455.000000	0.206820 
454.000000	0.206380 
453.000000	0.206190 
452.000000	0.205530 
451.000000	0.204870 
450.000000	0.204810 
449.000000	0.204640 
448.000000	0.204420 
447.000000	0.204400 
446.000000	0.204400 
445.000000	0.204220 
444.000000	0.204470 
443.000000	0.204720 
442.000000	0.204970 
441.000000	0.205660 
440.000000	0.206040 
439.000000	0.206720 
438.000000	0.207560 
437.000000	0.208510 
436.000000	0.209530 
435.000000	0.210780 
434.000000	0.212080 
433.000000	0.213550 
432.000000	0.215220 
431.000000	0.217320 
430.000000	0.219230 
429.000000	0.221410 
428.000000	0.223840 
427.000000	0.226390 
426.000000	0.228920 
425.000000	0.232280 
424.000000	0.235550 
423.000000	0.238860 
422.000000	0.242960 
421.000000	0.248290 
420.000000	0.252510 
419.000000	0.257460 
418.000000	0.262270 
417.000000	0.267460 
416.000000	0.272950 
415.000000	0.278820 
414.000000	0.285140 
413.000000	0.291640 
412.000000	0.298820 
411.000000	0.306190 
410.000000	0.313990 
409.000000	0.322230 
408.000000	0.330760 
407.000000	0.339490 
406.000000	0.348510 
405.000000	0.357750 
404.000000	0.367090 
403.000000	0.377170 
402.000000	0.387160 
401.000000	0.397630 
400.000000	0.408530 

