PE UV                   SPECTRUM    ASCII       PEDS        1.60        
  -1
23MS095.SP
24/09/05
16:16:06.00
24/09/05
16:17:53.00


400.000000
1









4444

SCAN
1
1


0.0
480.0
2.00
MANUAL



UV/VIS




































#HDR
-1
-1
#GR
NM
A
0.00000011920928955078
0.0
700.000000
1.000000
301
8
0.958510
0.254290
#DATA
700.000000	0.254290 
699.000000	0.254490 
698.000000	0.254930 
697.000000	0.255100 
696.000000	0.255220 
695.000000	0.255730 
694.000000	0.255940 
693.000000	0.256300 
692.000000	0.256560 
691.000000	0.256910 
690.000000	0.257150 
689.000000	0.257300 
688.000000	0.257750 
687.000000	0.258120 
686.000000	0.258380 
685.000000	0.258650 
684.000000	0.259210 
683.000000	0.259690 
682.000000	0.259880 
681.000000	0.259990 
680.000000	0.260340 
679.000000	0.260480 
678.000000	0.260850 
677.000000	0.261390 
676.000000	0.261640 
675.000000	0.261870 
674.000000	0.262160 
673.000000	0.262460 
672.000000	0.262870 
671.000000	0.263110 
670.000000	0.263490 
669.000000	0.263830 
668.000000	0.264270 
667.000000	0.264740 
666.000000	0.265110 
665.000000	0.265390 
664.000000	0.265750 
663.000000	0.266090 
662.000000	0.266280 
661.000000	0.266750 
660.000000	0.267180 
659.000000	0.267420 
658.000000	0.267810 
657.000000	0.267970 
656.000000	0.268250 
655.000000	0.268650 
654.000000	0.269090 
653.000000	0.269620 
652.000000	0.269890 
651.000000	0.270170 
650.000000	0.270400 
649.000000	0.270620 
648.000000	0.271020 
647.000000	0.271530 
646.000000	0.271840 
645.000000	0.272310 
644.000000	0.272650 
643.000000	0.273010 
642.000000	0.273280 
641.000000	0.273620 
640.000000	0.273970 
639.000000	0.274540 
638.000000	0.274990 
637.000000	0.275320 
636.000000	0.275380 
635.000000	0.275670 
634.000000	0.276070 
633.000000	0.276390 
632.000000	0.276920 
631.000000	0.277230 
630.000000	0.277710 
629.000000	0.278120 
628.000000	0.278450 
627.000000	0.278780 
626.000000	0.279510 
625.000000	0.280080 
624.000000	0.280320 
623.000000	0.280710 
622.000000	0.281110 
621.000000	0.281620 
620.000000	0.282170 
619.000000	0.282810 
618.000000	0.283320 
617.000000	0.283930 
616.000000	0.284390 
615.000000	0.284830 
614.000000	0.285360 
613.000000	0.285970 
612.000000	0.286530 
611.000000	0.287330 
610.000000	0.287950 
609.000000	0.288580 
608.000000	0.289130 
607.000000	0.289600 
606.000000	0.290100 
605.000000	0.290850 
604.000000	0.291570 
603.000000	0.292230 
602.000000	0.292930 
601.000000	0.293870 
600.000000	0.294780 
599.000000	0.295860 
598.000000	0.296730 
597.000000	0.297470 
596.000000	0.298430 
595.000000	0.299390 
594.000000	0.300220 
593.000000	0.301240 
592.000000	0.302220 
591.000000	0.303390 
590.000000	0.304590 
589.000000	0.305720 
588.000000	0.306980 
587.000000	0.308120 
586.000000	0.309360 
585.000000	0.310580 
584.000000	0.312040 
583.000000	0.313370 
582.000000	0.314790 
581.000000	0.316260 
580.000000	0.317680 
579.000000	0.319000 
578.000000	0.320650 
577.000000	0.322110 
576.000000	0.323820 
575.000000	0.325310 
574.000000	0.326980 
573.000000	0.328840 
572.000000	0.330810 
571.000000	0.332660 
570.000000	0.334460 
569.000000	0.336670 
568.000000	0.338620 
567.000000	0.340550 
566.000000	0.342800 
565.000000	0.344990 
564.000000	0.347380 
563.000000	0.349620 
562.000000	0.352240 
561.000000	0.354910 
560.000000	0.357620 
559.000000	0.360380 
558.000000	0.361870 
557.000000	0.364470 
556.000000	0.367330 
555.000000	0.370340 
554.000000	0.373400 
553.000000	0.376290 
552.000000	0.379390 
551.000000	0.382550 
550.000000	0.385860 
549.000000	0.388950 
548.000000	0.392180 
547.000000	0.395390 
546.000000	0.398710 
545.000000	0.402040 
544.000000	0.405450 
543.000000	0.409000 
542.000000	0.412560 
541.000000	0.416260 
540.000000	0.419820 
539.000000	0.423350 
538.000000	0.427070 
537.000000	0.430900 
536.000000	0.434570 
535.000000	0.438430 
534.000000	0.442490 
533.000000	0.446540 
532.000000	0.450490 
531.000000	0.454490 
530.000000	0.458470 
529.000000	0.462420 
528.000000	0.466110 
527.000000	0.470000 
526.000000	0.473780 
525.000000	0.477820 
524.000000	0.481670 
523.000000	0.485230 
522.000000	0.489080 
521.000000	0.492760 
520.000000	0.496520 
519.000000	0.499980 
518.000000	0.503320 
517.000000	0.506719 
516.000000	0.509830 
515.000000	0.513250 
514.000000	0.516510 
513.000000	0.519819 
512.000000	0.523039 
511.000000	0.526240 
510.000000	0.529280 
509.000000	0.532050 
508.000000	0.534980 
507.000000	0.537790 
506.000000	0.540280 
505.000000	0.542930 
504.000000	0.545450 
503.000000	0.547560 
502.000000	0.549980 
501.000000	0.552110 
500.000000	0.554130 
499.000000	0.556070 
498.000000	0.557600 
497.000000	0.559510 
496.000000	0.561130 
495.000000	0.562240 
494.000000	0.563690 
493.000000	0.564890 
492.000000	0.565779 
491.000000	0.566540 
490.000000	0.567070 
489.000000	0.567900 
488.000000	0.568260 
487.000000	0.568790 
486.000000	0.568990 
485.000000	0.569090 
484.000000	0.569080 
483.000000	0.568860 
482.000000	0.568450 
481.000000	0.568530 
480.000000	0.567999 
479.000000	0.567640 
478.000000	0.567150 
477.000000	0.566380 
476.000000	0.565450 
475.000000	0.564880 
474.000000	0.563420 
473.000000	0.562440 
472.000000	0.561510 
471.000000	0.560430 
470.000000	0.559190 
469.000000	0.557860 
468.000000	0.556720 
467.000000	0.555060 
466.000000	0.553530 
465.000000	0.552260 
464.000000	0.550690 
463.000000	0.549350 
462.000000	0.547560 
461.000000	0.546260 
460.000000	0.544680 
459.000000	0.543110 
458.000000	0.541100 
457.000000	0.540140 
456.000000	0.538600 
455.000000	0.537020 
454.000000	0.535280 
453.000000	0.534100 
452.000000	0.532580 
451.000000	0.531150 
450.000000	0.530030 
449.000000	0.529520 
448.000000	0.528710 
447.000000	0.527740 
446.000000	0.527040 
445.000000	0.526540 
444.000000	0.525830 
443.000000	0.526050 
442.000000	0.525479 
441.000000	0.526370 
440.000000	0.526620 
439.000000	0.527050 
438.000000	0.528040 
437.000000	0.529260 
436.000000	0.531000 
435.000000	0.532950 
434.000000	0.533890 
433.000000	0.537040 
432.000000	0.540120 
431.000000	0.542940 
430.000000	0.546650 
429.000000	0.551170 
428.000000	0.555380 
427.000000	0.560050 
426.000000	0.565110 
425.000000	0.572010 
424.000000	0.578330 
423.000000	0.585010 
422.000000	0.593160 
421.000000	0.603410 
420.000000	0.612190 
419.000000	0.622190 
418.000000	0.632490 
417.000000	0.644150 
416.000000	0.656480 
415.000000	0.669350 
414.000000	0.683000 
413.000000	0.697290 
412.000000	0.712500 
411.000000	0.728940 
410.000000	0.746010 
409.000000	0.764890 
408.000000	0.784720 
407.000000	0.805070 
406.000000	0.825310 
405.000000	0.846050 
404.000000	0.866930 
403.000000	0.889010 
402.000000	0.910790 
401.000000	0.934220 
400.000000	0.958510 

