PE UV                   SPECTRUM    ASCII       PEDS        1.60        
  -1
23MS260.SP
24/09/02
16:57:06.00
24/09/02
16:58:19.00


400.000000
1









4444

SCAN
1
1


0.0
480.0
2.00
MANUAL



UV/VIS




































#HDR
-1
-1
#GR
NM
A
0.00000011920928955078
0.0
700.000000
1.000000
301
8
0.294480
0.000900
#DATA
700.000000	0.001160 
699.000000	0.001190 
698.000000	0.001240 
697.000000	0.001230 
696.000000	0.001120 
695.000000	0.001240 
694.000000	0.001190 
693.000000	0.001190 
692.000000	0.001170 
691.000000	0.001200 
690.000000	0.001110 
689.000000	0.001130 
688.000000	0.001180 
687.000000	0.001040 
686.000000	0.001080 
685.000000	0.001120 
684.000000	0.001170 
683.000000	0.001150 
682.000000	0.001050 
681.000000	0.000960 
680.000000	0.000900 
679.000000	0.001150 
678.000000	0.001050 
677.000000	0.001050 
676.000000	0.001190 
675.000000	0.001230 
674.000000	0.001150 
673.000000	0.001230 
672.000000	0.001200 
671.000000	0.001030 
670.000000	0.001220 
669.000000	0.001200 
668.000000	0.001260 
667.000000	0.001290 
666.000000	0.001360 
665.000000	0.001350 
664.000000	0.001310 
663.000000	0.001340 
662.000000	0.001480 
661.000000	0.001460 
660.000000	0.001450 
659.000000	0.001560 
658.000000	0.001490 
657.000000	0.001510 
656.000000	0.001640 
655.000000	0.001680 
654.000000	0.001750 
653.000000	0.001750 
652.000000	0.001870 
651.000000	0.001810 
650.000000	0.001850 
649.000000	0.001890 
648.000000	0.001910 
647.000000	0.002040 
646.000000	0.002110 
645.000000	0.002140 
644.000000	0.002250 
643.000000	0.002240 
642.000000	0.002310 
641.000000	0.002400 
640.000000	0.002340 
639.000000	0.002470 
638.000000	0.002520 
637.000000	0.002550 
636.000000	0.002680 
635.000000	0.002810 
634.000000	0.002820 
633.000000	0.002930 
632.000000	0.002940 
631.000000	0.003000 
630.000000	0.003170 
629.000000	0.003320 
628.000000	0.003450 
627.000000	0.003550 
626.000000	0.003630 
625.000000	0.003750 
624.000000	0.003900 
623.000000	0.004080 
622.000000	0.004110 
621.000000	0.004280 
620.000000	0.004420 
619.000000	0.004530 
618.000000	0.004770 
617.000000	0.004920 
616.000000	0.005080 
615.000000	0.005320 
614.000000	0.005440 
613.000000	0.005720 
612.000000	0.005880 
611.000000	0.006110 
610.000000	0.006450 
609.000000	0.006590 
608.000000	0.006790 
607.000000	0.007120 
606.000000	0.007400 
605.000000	0.007640 
604.000000	0.007960 
603.000000	0.008319 
602.000000	0.008659 
601.000000	0.009030 
600.000000	0.009429 
599.000000	0.009769 
598.000000	0.010230 
597.000000	0.010610 
596.000000	0.011160 
595.000000	0.011500 
594.000000	0.012110 
593.000000	0.012640 
592.000000	0.013210 
591.000000	0.013840 
590.000000	0.014470 
589.000000	0.015160 
588.000000	0.015930 
587.000000	0.016630 
586.000000	0.017470 
585.000000	0.018290 
584.000000	0.019080 
583.000000	0.019990 
582.000000	0.020910 
581.000000	0.021850 
580.000000	0.022810 
579.000000	0.023950 
578.000000	0.024950 
577.000000	0.026100 
576.000000	0.027300 
575.000000	0.028420 
574.000000	0.029810 
573.000000	0.031090 
572.000000	0.032510 
571.000000	0.034090 
570.000000	0.035600 
569.000000	0.037240 
568.000000	0.038810 
567.000000	0.040510 
566.000000	0.042290 
565.000000	0.044180 
564.000000	0.046050 
563.000000	0.048050 
562.000000	0.050220 
561.000000	0.052510 
560.000000	0.054670 
559.000000	0.057260 
558.000000	0.060020 
557.000000	0.062520 
556.000000	0.065090 
555.000000	0.067630 
554.000000	0.070310 
553.000000	0.072990 
552.000000	0.075770 
551.000000	0.078640 
550.000000	0.081449 
549.000000	0.084370 
548.000000	0.087400 
547.000000	0.090450 
546.000000	0.093270 
545.000000	0.096500 
544.000000	0.099590 
543.000000	0.103090 
542.000000	0.106280 
541.000000	0.109690 
540.000000	0.113150 
539.000000	0.116510 
538.000000	0.119840 
537.000000	0.123360 
536.000000	0.126820 
535.000000	0.130370 
534.000000	0.134000 
533.000000	0.137540 
532.000000	0.141260 
531.000000	0.144980 
530.000000	0.148680 
529.000000	0.152330 
528.000000	0.155940 
527.000000	0.159350 
526.000000	0.163120 
525.000000	0.166550 
524.000000	0.170220 
523.000000	0.173800 
522.000000	0.177170 
521.000000	0.180490 
520.000000	0.183770 
519.000000	0.186930 
518.000000	0.189930 
517.000000	0.192830 
516.000000	0.195940 
515.000000	0.198710 
514.000000	0.201720 
513.000000	0.204450 
512.000000	0.207120 
511.000000	0.209740 
510.000000	0.212090 
509.000000	0.214400 
508.000000	0.216680 
507.000000	0.218710 
506.000000	0.220840 
505.000000	0.222800 
504.000000	0.224560 
503.000000	0.226290 
502.000000	0.227710 
501.000000	0.229190 
500.000000	0.230420 
499.000000	0.231550 
498.000000	0.232400 
497.000000	0.233210 
496.000000	0.234050 
495.000000	0.234530 
494.000000	0.234780 
493.000000	0.235050 
492.000000	0.235140 
491.000000	0.235230 
490.000000	0.234730 
489.000000	0.234480 
488.000000	0.234060 
487.000000	0.233490 
486.000000	0.232550 
485.000000	0.231590 
484.000000	0.230500 
483.000000	0.229270 
482.000000	0.227890 
481.000000	0.226720 
480.000000	0.225020 
479.000000	0.223280 
478.000000	0.221490 
477.000000	0.219670 
476.000000	0.217520 
475.000000	0.215360 
474.000000	0.212860 
473.000000	0.210680 
472.000000	0.208090 
471.000000	0.205630 
470.000000	0.202950 
469.000000	0.200300 
468.000000	0.197580 
467.000000	0.194520 
466.000000	0.191700 
465.000000	0.188550 
464.000000	0.185410 
463.000000	0.182370 
462.000000	0.179520 
461.000000	0.176680 
460.000000	0.173340 
459.000000	0.170440 
458.000000	0.167340 
457.000000	0.164350 
456.000000	0.161130 
455.000000	0.157780 
454.000000	0.154790 
453.000000	0.151720 
452.000000	0.148770 
451.000000	0.145940 
450.000000	0.143000 
449.000000	0.140170 
448.000000	0.137230 
447.000000	0.134440 
446.000000	0.131700 
445.000000	0.129210 
444.000000	0.126700 
443.000000	0.124340 
442.000000	0.122050 
441.000000	0.120150 
440.000000	0.118110 
439.000000	0.116420 
438.000000	0.114630 
437.000000	0.113120 
436.000000	0.111950 
435.000000	0.110780 
434.000000	0.109900 
433.000000	0.109180 
432.000000	0.108800 
431.000000	0.108410 
430.000000	0.108590 
429.000000	0.109190 
428.000000	0.109400 
427.000000	0.110460 
426.000000	0.111870 
425.000000	0.113000 
424.000000	0.115130 
423.000000	0.117300 
422.000000	0.119970 
421.000000	0.123720 
420.000000	0.126980 
419.000000	0.130870 
418.000000	0.135010 
417.000000	0.139770 
416.000000	0.144950 
415.000000	0.150540 
414.000000	0.156570 
413.000000	0.162860 
412.000000	0.170110 
411.000000	0.177620 
410.000000	0.185970 
409.000000	0.195000 
408.000000	0.204700 
407.000000	0.214590 
406.000000	0.224760 
405.000000	0.235120 
404.000000	0.246170 
403.000000	0.257240 
402.000000	0.269090 
401.000000	0.281350 
400.000000	0.294480 

