PE UV                   SPECTRUM    ASCII       PEDS        1.60        
  -1
23MS176.SP
24/08/30
17:05:02.00
24/08/30
17:06:01.00


400.000000
1









4444

SCAN
1
1


0.0
480.0
2.00
MANUAL



UV/VIS




































#HDR
-1
-1
#GR
NM
A
0.00000011920928955078
0.0
700.000000
1.000000
301
8
0.284100
0.016210
#DATA
700.000000	0.016210 
699.000000	0.016290 
698.000000	0.016320 
697.000000	0.016430 
696.000000	0.016310 
695.000000	0.016330 
694.000000	0.016430 
693.000000	0.016400 
692.000000	0.016530 
691.000000	0.016590 
690.000000	0.016600 
689.000000	0.016600 
688.000000	0.016710 
687.000000	0.016760 
686.000000	0.016780 
685.000000	0.016800 
684.000000	0.016940 
683.000000	0.016920 
682.000000	0.016980 
681.000000	0.016990 
680.000000	0.017140 
679.000000	0.017130 
678.000000	0.017160 
677.000000	0.017230 
676.000000	0.017300 
675.000000	0.017220 
674.000000	0.017340 
673.000000	0.017360 
672.000000	0.017320 
671.000000	0.017520 
670.000000	0.017520 
669.000000	0.017630 
668.000000	0.017600 
667.000000	0.017680 
666.000000	0.017660 
665.000000	0.017730 
664.000000	0.017830 
663.000000	0.017820 
662.000000	0.017790 
661.000000	0.017950 
660.000000	0.017940 
659.000000	0.018060 
658.000000	0.017970 
657.000000	0.018120 
656.000000	0.018080 
655.000000	0.018240 
654.000000	0.018210 
653.000000	0.018330 
652.000000	0.018350 
651.000000	0.018520 
650.000000	0.018450 
649.000000	0.018500 
648.000000	0.018520 
647.000000	0.018670 
646.000000	0.018640 
645.000000	0.018730 
644.000000	0.018790 
643.000000	0.018880 
642.000000	0.018980 
641.000000	0.018950 
640.000000	0.019020 
639.000000	0.019110 
638.000000	0.019150 
637.000000	0.019170 
636.000000	0.019280 
635.000000	0.019300 
634.000000	0.019430 
633.000000	0.019520 
632.000000	0.019670 
631.000000	0.019710 
630.000000	0.019760 
629.000000	0.019820 
628.000000	0.019880 
627.000000	0.019960 
626.000000	0.020150 
625.000000	0.020310 
624.000000	0.020340 
623.000000	0.020540 
622.000000	0.020580 
621.000000	0.020680 
620.000000	0.020800 
619.000000	0.020960 
618.000000	0.021120 
617.000000	0.021250 
616.000000	0.021420 
615.000000	0.021560 
614.000000	0.021780 
613.000000	0.021940 
612.000000	0.022090 
611.000000	0.022360 
610.000000	0.022490 
609.000000	0.022720 
608.000000	0.022930 
607.000000	0.023130 
606.000000	0.023440 
605.000000	0.023770 
604.000000	0.023970 
603.000000	0.024240 
602.000000	0.024480 
601.000000	0.024800 
600.000000	0.025180 
599.000000	0.025530 
598.000000	0.025890 
597.000000	0.026270 
596.000000	0.026670 
595.000000	0.027040 
594.000000	0.027480 
593.000000	0.027850 
592.000000	0.028340 
591.000000	0.028780 
590.000000	0.029350 
589.000000	0.029790 
588.000000	0.030520 
587.000000	0.031140 
586.000000	0.031780 
585.000000	0.032430 
584.000000	0.033170 
583.000000	0.033840 
582.000000	0.034540 
581.000000	0.035330 
580.000000	0.036050 
579.000000	0.036870 
578.000000	0.037720 
577.000000	0.038720 
576.000000	0.039730 
575.000000	0.040720 
574.000000	0.041740 
573.000000	0.042850 
572.000000	0.043900 
571.000000	0.045010 
570.000000	0.046240 
569.000000	0.047590 
568.000000	0.048970 
567.000000	0.050320 
566.000000	0.051810 
565.000000	0.053200 
564.000000	0.054740 
563.000000	0.056350 
562.000000	0.057860 
561.000000	0.059700 
560.000000	0.061550 
559.000000	0.063560 
558.000000	0.065559 
557.000000	0.067530 
556.000000	0.069570 
555.000000	0.071690 
554.000000	0.073700 
553.000000	0.075920 
552.000000	0.077970 
551.000000	0.080320 
550.000000	0.082489 
549.000000	0.084849 
548.000000	0.087440 
547.000000	0.089930 
546.000000	0.092280 
545.000000	0.094780 
544.000000	0.097260 
543.000000	0.099959 
542.000000	0.102500 
541.000000	0.105170 
540.000000	0.107930 
539.000000	0.110860 
538.000000	0.113620 
537.000000	0.116450 
536.000000	0.119230 
535.000000	0.122090 
534.000000	0.124770 
533.000000	0.127810 
532.000000	0.130760 
531.000000	0.133790 
530.000000	0.136770 
529.000000	0.139880 
528.000000	0.142810 
527.000000	0.145720 
526.000000	0.148580 
525.000000	0.151370 
524.000000	0.154270 
523.000000	0.157120 
522.000000	0.159660 
521.000000	0.162510 
520.000000	0.165280 
519.000000	0.167920 
518.000000	0.170550 
517.000000	0.172960 
516.000000	0.175390 
515.000000	0.177640 
514.000000	0.179950 
513.000000	0.182250 
512.000000	0.184510 
511.000000	0.186580 
510.000000	0.188690 
509.000000	0.190620 
508.000000	0.192560 
507.000000	0.194280 
506.000000	0.195860 
505.000000	0.197530 
504.000000	0.198970 
503.000000	0.200410 
502.000000	0.201590 
501.000000	0.202810 
500.000000	0.204020 
499.000000	0.205010 
498.000000	0.205760 
497.000000	0.206500 
496.000000	0.207130 
495.000000	0.207630 
494.000000	0.207830 
493.000000	0.208060 
492.000000	0.208310 
491.000000	0.208220 
490.000000	0.208140 
489.000000	0.207800 
488.000000	0.207450 
487.000000	0.206890 
486.000000	0.206390 
485.000000	0.205560 
484.000000	0.204900 
483.000000	0.203810 
482.000000	0.202900 
481.000000	0.201810 
480.000000	0.200400 
479.000000	0.199180 
478.000000	0.197760 
477.000000	0.196490 
476.000000	0.195070 
475.000000	0.193380 
474.000000	0.191450 
473.000000	0.189720 
472.000000	0.187790 
471.000000	0.185490 
470.000000	0.183480 
469.000000	0.181330 
468.000000	0.179120 
467.000000	0.177100 
466.000000	0.174590 
465.000000	0.172330 
464.000000	0.170010 
463.000000	0.167430 
462.000000	0.165170 
461.000000	0.162830 
460.000000	0.160410 
459.000000	0.157860 
458.000000	0.155460 
457.000000	0.153410 
456.000000	0.150950 
455.000000	0.148620 
454.000000	0.146230 
453.000000	0.143720 
452.000000	0.141550 
451.000000	0.139190 
450.000000	0.136990 
449.000000	0.134840 
448.000000	0.132680 
447.000000	0.130490 
446.000000	0.128430 
445.000000	0.126440 
444.000000	0.124690 
443.000000	0.122780 
442.000000	0.120940 
441.000000	0.119700 
440.000000	0.118250 
439.000000	0.116960 
438.000000	0.115920 
437.000000	0.114990 
436.000000	0.114070 
435.000000	0.113530 
434.000000	0.113130 
433.000000	0.112790 
432.000000	0.112760 
431.000000	0.112710 
430.000000	0.113060 
429.000000	0.113670 
428.000000	0.114610 
427.000000	0.115600 
426.000000	0.116740 
425.000000	0.118650 
424.000000	0.120540 
423.000000	0.122810 
422.000000	0.125450 
421.000000	0.127750 
420.000000	0.130640 
419.000000	0.134190 
418.000000	0.138080 
417.000000	0.142520 
416.000000	0.147450 
415.000000	0.152640 
414.000000	0.158390 
413.000000	0.164670 
412.000000	0.171230 
411.000000	0.178210 
410.000000	0.185720 
409.000000	0.193740 
408.000000	0.202410 
407.000000	0.211380 
406.000000	0.220780 
405.000000	0.230370 
404.000000	0.240460 
403.000000	0.250890 
402.000000	0.261450 
401.000000	0.272600 
400.000000	0.284100 

