PE UV                   SPECTRUM    ASCII       PEDS        1.60        
  -1
23MS174.SP
24/08/30
17:13:30.00
24/08/30
17:14:38.00


400.000000
1









4444

SCAN
1
1


0.0
480.0
2.00
MANUAL



UV/VIS




































#HDR
-1
-1
#GR
NM
A
0.00000011920928955078
0.0
700.000000
1.000000
301
8
0.221420
0.015370
#DATA
700.000000	0.015370 
699.000000	0.015530 
698.000000	0.015510 
697.000000	0.015530 
696.000000	0.015500 
695.000000	0.015570 
694.000000	0.015560 
693.000000	0.015490 
692.000000	0.015580 
691.000000	0.015600 
690.000000	0.015720 
689.000000	0.015640 
688.000000	0.015700 
687.000000	0.015760 
686.000000	0.015740 
685.000000	0.015710 
684.000000	0.015850 
683.000000	0.015860 
682.000000	0.015880 
681.000000	0.015910 
680.000000	0.015920 
679.000000	0.015860 
678.000000	0.015830 
677.000000	0.015970 
676.000000	0.016030 
675.000000	0.015990 
674.000000	0.015950 
673.000000	0.016040 
672.000000	0.016050 
671.000000	0.016200 
670.000000	0.016180 
669.000000	0.016210 
668.000000	0.016140 
667.000000	0.016290 
666.000000	0.016280 
665.000000	0.016310 
664.000000	0.016390 
663.000000	0.016380 
662.000000	0.016530 
661.000000	0.016590 
660.000000	0.016580 
659.000000	0.016620 
658.000000	0.016710 
657.000000	0.016780 
656.000000	0.016740 
655.000000	0.016890 
654.000000	0.016860 
653.000000	0.016860 
652.000000	0.016940 
651.000000	0.017020 
650.000000	0.017030 
649.000000	0.017080 
648.000000	0.017080 
647.000000	0.017260 
646.000000	0.017220 
645.000000	0.017240 
644.000000	0.017310 
643.000000	0.017320 
642.000000	0.017440 
641.000000	0.017380 
640.000000	0.017520 
639.000000	0.017490 
638.000000	0.017590 
637.000000	0.017540 
636.000000	0.017660 
635.000000	0.017760 
634.000000	0.017820 
633.000000	0.017900 
632.000000	0.017990 
631.000000	0.018060 
630.000000	0.018100 
629.000000	0.018090 
628.000000	0.018260 
627.000000	0.018290 
626.000000	0.018450 
625.000000	0.018540 
624.000000	0.018580 
623.000000	0.018780 
622.000000	0.018840 
621.000000	0.018860 
620.000000	0.019040 
619.000000	0.019120 
618.000000	0.019310 
617.000000	0.019430 
616.000000	0.019550 
615.000000	0.019700 
614.000000	0.019980 
613.000000	0.020100 
612.000000	0.020300 
611.000000	0.020420 
610.000000	0.020620 
609.000000	0.020880 
608.000000	0.021020 
607.000000	0.021250 
606.000000	0.021550 
605.000000	0.021840 
604.000000	0.022030 
603.000000	0.022360 
602.000000	0.022600 
601.000000	0.022930 
600.000000	0.023150 
599.000000	0.023470 
598.000000	0.023840 
597.000000	0.024160 
596.000000	0.024540 
595.000000	0.024880 
594.000000	0.025310 
593.000000	0.025700 
592.000000	0.026090 
591.000000	0.026510 
590.000000	0.027010 
589.000000	0.027350 
588.000000	0.028000 
587.000000	0.028570 
586.000000	0.029080 
585.000000	0.029620 
584.000000	0.030230 
583.000000	0.030800 
582.000000	0.031370 
581.000000	0.032070 
580.000000	0.032620 
579.000000	0.033370 
578.000000	0.034040 
577.000000	0.034830 
576.000000	0.035640 
575.000000	0.036430 
574.000000	0.037170 
573.000000	0.038100 
572.000000	0.038870 
571.000000	0.039780 
570.000000	0.040770 
569.000000	0.041760 
568.000000	0.042800 
567.000000	0.043730 
566.000000	0.044980 
565.000000	0.045950 
564.000000	0.047060 
563.000000	0.048210 
562.000000	0.049320 
561.000000	0.050620 
560.000000	0.051970 
559.000000	0.053370 
558.000000	0.054860 
557.000000	0.056160 
556.000000	0.057540 
555.000000	0.059060 
554.000000	0.060440 
553.000000	0.061930 
552.000000	0.063560 
551.000000	0.065040 
550.000000	0.066590 
549.000000	0.068190 
548.000000	0.069819 
547.000000	0.071450 
546.000000	0.073060 
545.000000	0.074740 
544.000000	0.076450 
543.000000	0.078159 
542.000000	0.079990 
541.000000	0.081760 
540.000000	0.083540 
539.000000	0.085450 
538.000000	0.087220 
537.000000	0.089080 
536.000000	0.090840 
535.000000	0.092680 
534.000000	0.094460 
533.000000	0.096430 
532.000000	0.098380 
531.000000	0.100410 
530.000000	0.102320 
529.000000	0.104350 
528.000000	0.106230 
527.000000	0.108030 
526.000000	0.109810 
525.000000	0.111680 
524.000000	0.113440 
523.000000	0.115370 
522.000000	0.117050 
521.000000	0.118730 
520.000000	0.120480 
519.000000	0.122220 
518.000000	0.123840 
517.000000	0.125300 
516.000000	0.126920 
515.000000	0.128210 
514.000000	0.129850 
513.000000	0.131280 
512.000000	0.132770 
511.000000	0.134010 
510.000000	0.135420 
509.000000	0.136670 
508.000000	0.137970 
507.000000	0.139080 
506.000000	0.139890 
505.000000	0.141010 
504.000000	0.141960 
503.000000	0.142770 
502.000000	0.143480 
501.000000	0.144340 
500.000000	0.144980 
499.000000	0.145670 
498.000000	0.145950 
497.000000	0.146340 
496.000000	0.146960 
495.000000	0.147380 
494.000000	0.147290 
493.000000	0.147440 
492.000000	0.147600 
491.000000	0.147560 
490.000000	0.147340 
489.000000	0.147190 
488.000000	0.146760 
487.000000	0.146680 
486.000000	0.146140 
485.000000	0.145640 
484.000000	0.145220 
483.000000	0.144610 
482.000000	0.143940 
481.000000	0.143210 
480.000000	0.142180 
479.000000	0.141520 
478.000000	0.140570 
477.000000	0.139590 
476.000000	0.138620 
475.000000	0.137690 
474.000000	0.136300 
473.000000	0.135180 
472.000000	0.133820 
471.000000	0.132330 
470.000000	0.131200 
469.000000	0.129620 
468.000000	0.128220 
467.000000	0.126870 
466.000000	0.125280 
465.000000	0.123890 
464.000000	0.122210 
463.000000	0.120710 
462.000000	0.119150 
461.000000	0.117610 
460.000000	0.116120 
459.000000	0.114590 
458.000000	0.112880 
457.000000	0.111620 
456.000000	0.109940 
455.000000	0.108500 
454.000000	0.106870 
453.000000	0.105200 
452.000000	0.103880 
451.000000	0.102580 
450.000000	0.101230 
449.000000	0.099800 
448.000000	0.098630 
447.000000	0.097020 
446.000000	0.095810 
445.000000	0.094450 
444.000000	0.093299 
443.000000	0.092280 
442.000000	0.091090 
441.000000	0.090550 
440.000000	0.089610 
439.000000	0.088990 
438.000000	0.088330 
437.000000	0.087910 
436.000000	0.087630 
435.000000	0.087270 
434.000000	0.087030 
433.000000	0.087069 
432.000000	0.087260 
431.000000	0.087570 
430.000000	0.088210 
429.000000	0.088900 
428.000000	0.089460 
427.000000	0.090360 
426.000000	0.091770 
425.000000	0.093290 
424.000000	0.094670 
423.000000	0.096780 
422.000000	0.098970 
421.000000	0.101220 
420.000000	0.103680 
419.000000	0.106510 
418.000000	0.109620 
417.000000	0.113090 
416.000000	0.117020 
415.000000	0.121130 
414.000000	0.125480 
413.000000	0.130200 
412.000000	0.135200 
411.000000	0.140530 
410.000000	0.146400 
409.000000	0.152520 
408.000000	0.159390 
407.000000	0.166210 
406.000000	0.173390 
405.000000	0.180570 
404.000000	0.188310 
403.000000	0.196280 
402.000000	0.204170 
401.000000	0.212500 
400.000000	0.221420 

