PE UV                   SPECTRUM    ASCII       PEDS        1.60        
  -1
23MS202.SP
24/09/02
16:39:04.00
24/09/02
16:40:34.00


400.000000
1









4444

SCAN
1
1


0.0
480.0
2.00
MANUAL



UV/VIS




































#HDR
-1
-1
#GR
NM
A
0.00000011920928955078
0.0
700.000000
1.000000
301
8
0.504920
0.013070
#DATA
700.000000	0.013070 
699.000000	0.013130 
698.000000	0.013170 
697.000000	0.013160 
696.000000	0.013260 
695.000000	0.013250 
694.000000	0.013250 
693.000000	0.013240 
692.000000	0.013310 
691.000000	0.013300 
690.000000	0.013280 
689.000000	0.013350 
688.000000	0.013370 
687.000000	0.013320 
686.000000	0.013350 
685.000000	0.013370 
684.000000	0.013430 
683.000000	0.013510 
682.000000	0.013480 
681.000000	0.013480 
680.000000	0.013550 
679.000000	0.013610 
678.000000	0.013520 
677.000000	0.013530 
676.000000	0.013660 
675.000000	0.013690 
674.000000	0.013630 
673.000000	0.013720 
672.000000	0.013790 
671.000000	0.013710 
670.000000	0.013780 
669.000000	0.013830 
668.000000	0.013800 
667.000000	0.013950 
666.000000	0.013890 
665.000000	0.013890 
664.000000	0.013990 
663.000000	0.014010 
662.000000	0.014100 
661.000000	0.014110 
660.000000	0.014140 
659.000000	0.014140 
658.000000	0.014220 
657.000000	0.014210 
656.000000	0.014320 
655.000000	0.014340 
654.000000	0.014470 
653.000000	0.014460 
652.000000	0.014610 
651.000000	0.014660 
650.000000	0.014670 
649.000000	0.014790 
648.000000	0.014780 
647.000000	0.014910 
646.000000	0.014940 
645.000000	0.015000 
644.000000	0.015160 
643.000000	0.015330 
642.000000	0.015340 
641.000000	0.015450 
640.000000	0.015500 
639.000000	0.015550 
638.000000	0.015630 
637.000000	0.015820 
636.000000	0.015880 
635.000000	0.016050 
634.000000	0.016130 
633.000000	0.016250 
632.000000	0.016300 
631.000000	0.016460 
630.000000	0.014930 
629.000000	0.016320 
628.000000	0.016720 
627.000000	0.017080 
626.000000	0.017130 
625.000000	0.017350 
624.000000	0.017620 
623.000000	0.017900 
622.000000	0.017990 
621.000000	0.018170 
620.000000	0.018360 
619.000000	0.018630 
618.000000	0.018840 
617.000000	0.019080 
616.000000	0.019320 
615.000000	0.019710 
614.000000	0.019840 
613.000000	0.020310 
612.000000	0.020520 
611.000000	0.020790 
610.000000	0.021260 
609.000000	0.021510 
608.000000	0.021860 
607.000000	0.022320 
606.000000	0.022680 
605.000000	0.023150 
604.000000	0.023590 
603.000000	0.024060 
602.000000	0.024580 
601.000000	0.025070 
600.000000	0.025640 
599.000000	0.026270 
598.000000	0.026890 
597.000000	0.027520 
596.000000	0.028220 
595.000000	0.028930 
594.000000	0.029750 
593.000000	0.030620 
592.000000	0.031410 
591.000000	0.032310 
590.000000	0.033300 
589.000000	0.034320 
588.000000	0.035420 
587.000000	0.036570 
586.000000	0.037840 
585.000000	0.038950 
584.000000	0.040310 
583.000000	0.041610 
582.000000	0.043070 
581.000000	0.044500 
580.000000	0.046000 
579.000000	0.047660 
578.000000	0.049390 
577.000000	0.051200 
576.000000	0.053020 
575.000000	0.055060 
574.000000	0.057120 
573.000000	0.059070 
572.000000	0.061310 
571.000000	0.063620 
570.000000	0.066100 
569.000000	0.068709 
568.000000	0.071490 
567.000000	0.074090 
566.000000	0.076960 
565.000000	0.079890 
564.000000	0.082890 
563.000000	0.086069 
562.000000	0.089510 
561.000000	0.093070 
560.000000	0.096690 
559.000000	0.100540 
558.000000	0.104950 
557.000000	0.109040 
556.000000	0.113110 
555.000000	0.117340 
554.000000	0.121370 
553.000000	0.125840 
552.000000	0.130350 
551.000000	0.134850 
550.000000	0.139450 
549.000000	0.144520 
548.000000	0.149390 
547.000000	0.154270 
546.000000	0.159060 
545.000000	0.164060 
544.000000	0.169100 
543.000000	0.174540 
542.000000	0.179890 
541.000000	0.185410 
540.000000	0.191150 
539.000000	0.196870 
538.000000	0.202490 
537.000000	0.208290 
536.000000	0.214030 
535.000000	0.219730 
534.000000	0.225540 
533.000000	0.231450 
532.000000	0.237560 
531.000000	0.243680 
530.000000	0.249900 
529.000000	0.256050 
528.000000	0.262060 
527.000000	0.267830 
526.000000	0.273640 
525.000000	0.279480 
524.000000	0.285240 
523.000000	0.290870 
522.000000	0.296610 
521.000000	0.302150 
520.000000	0.307750 
519.000000	0.313180 
518.000000	0.318200 
517.000000	0.323030 
516.000000	0.328080 
515.000000	0.332690 
514.000000	0.337540 
513.000000	0.342180 
512.000000	0.346690 
511.000000	0.351130 
510.000000	0.355270 
509.000000	0.359280 
508.000000	0.363160 
507.000000	0.366570 
506.000000	0.369900 
505.000000	0.373120 
504.000000	0.376330 
503.000000	0.379280 
502.000000	0.381760 
501.000000	0.384390 
500.000000	0.386540 
499.000000	0.388480 
498.000000	0.389920 
497.000000	0.391320 
496.000000	0.392900 
495.000000	0.393790 
494.000000	0.394430 
493.000000	0.394880 
492.000000	0.395210 
491.000000	0.395230 
490.000000	0.394830 
489.000000	0.394480 
488.000000	0.393880 
487.000000	0.392900 
486.000000	0.391600 
485.000000	0.390280 
484.000000	0.388530 
483.000000	0.386810 
482.000000	0.384250 
481.000000	0.382190 
480.000000	0.379810 
479.000000	0.377060 
478.000000	0.374390 
477.000000	0.371560 
476.000000	0.368270 
475.000000	0.364670 
474.000000	0.360640 
473.000000	0.357060 
472.000000	0.353000 
471.000000	0.348920 
470.000000	0.344610 
469.000000	0.340190 
468.000000	0.335910 
467.000000	0.331200 
466.000000	0.326560 
465.000000	0.321670 
464.000000	0.316400 
463.000000	0.311320 
462.000000	0.306710 
461.000000	0.301570 
460.000000	0.296550 
459.000000	0.292060 
458.000000	0.286870 
457.000000	0.281890 
456.000000	0.276860 
455.000000	0.271730 
454.000000	0.266450 
453.000000	0.261450 
452.000000	0.256540 
451.000000	0.251700 
450.000000	0.246940 
449.000000	0.242590 
448.000000	0.237720 
447.000000	0.233180 
446.000000	0.228880 
445.000000	0.224600 
444.000000	0.220310 
443.000000	0.216590 
442.000000	0.212420 
441.000000	0.209320 
440.000000	0.205870 
439.000000	0.202960 
438.000000	0.200200 
437.000000	0.197880 
436.000000	0.195460 
435.000000	0.193730 
434.000000	0.192230 
433.000000	0.191270 
432.000000	0.190460 
431.000000	0.190200 
430.000000	0.190340 
429.000000	0.191080 
428.000000	0.191930 
427.000000	0.193330 
426.000000	0.195440 
425.000000	0.198090 
424.000000	0.201480 
423.000000	0.205160 
422.000000	0.209790 
421.000000	0.215490 
420.000000	0.220970 
419.000000	0.227320 
418.000000	0.234540 
417.000000	0.242420 
416.000000	0.251410 
415.000000	0.261120 
414.000000	0.271570 
413.000000	0.282550 
412.000000	0.294440 
411.000000	0.307210 
410.000000	0.321020 
409.000000	0.336040 
408.000000	0.352620 
407.000000	0.369510 
406.000000	0.387010 
405.000000	0.405160 
404.000000	0.423600 
403.000000	0.442920 
402.000000	0.462780 
401.000000	0.483200 
400.000000	0.504920 

