PE UV                   SPECTRUM    ASCII       PEDS        1.60        
  -1
23MS084.SP
24/09/05
16:19:16.00
24/09/05
16:20:27.00


400.000000
1









4444

SCAN
1
1


0.0
480.0
2.00
MANUAL



UV/VIS




































#HDR
-1
-1
#GR
NM
A
0.00000011920928955078
0.0
700.000000
1.000000
301
8
0.938290
0.209850
#DATA
700.000000	0.209850 
699.000000	0.210400 
698.000000	0.211030 
697.000000	0.211420 
696.000000	0.211880 
695.000000	0.212390 
694.000000	0.212890 
693.000000	0.213200 
692.000000	0.213780 
691.000000	0.214250 
690.000000	0.214660 
689.000000	0.215030 
688.000000	0.215610 
687.000000	0.216090 
686.000000	0.216510 
685.000000	0.217000 
684.000000	0.217520 
683.000000	0.217840 
682.000000	0.218090 
681.000000	0.218630 
680.000000	0.219130 
679.000000	0.219610 
678.000000	0.220250 
677.000000	0.220860 
676.000000	0.221280 
675.000000	0.221740 
674.000000	0.222020 
673.000000	0.222550 
672.000000	0.223130 
671.000000	0.223470 
670.000000	0.223730 
669.000000	0.224180 
668.000000	0.224780 
667.000000	0.225390 
666.000000	0.225690 
665.000000	0.226250 
664.000000	0.226910 
663.000000	0.227250 
662.000000	0.227510 
661.000000	0.227980 
660.000000	0.228580 
659.000000	0.228980 
658.000000	0.229520 
657.000000	0.230060 
656.000000	0.230690 
655.000000	0.231190 
654.000000	0.231610 
653.000000	0.232300 
652.000000	0.232830 
651.000000	0.233280 
650.000000	0.233770 
649.000000	0.234310 
648.000000	0.234700 
647.000000	0.235220 
646.000000	0.235770 
645.000000	0.236210 
644.000000	0.236540 
643.000000	0.237200 
642.000000	0.237610 
641.000000	0.238190 
640.000000	0.238530 
639.000000	0.238920 
638.000000	0.239450 
637.000000	0.239950 
636.000000	0.240500 
635.000000	0.241050 
634.000000	0.241630 
633.000000	0.242270 
632.000000	0.242860 
631.000000	0.243310 
630.000000	0.243740 
629.000000	0.244240 
628.000000	0.244870 
627.000000	0.245470 
626.000000	0.246000 
625.000000	0.246710 
624.000000	0.247280 
623.000000	0.248040 
622.000000	0.248590 
621.000000	0.249180 
620.000000	0.249870 
619.000000	0.250520 
618.000000	0.251320 
617.000000	0.252020 
616.000000	0.252680 
615.000000	0.253500 
614.000000	0.254210 
613.000000	0.254970 
612.000000	0.255830 
611.000000	0.256880 
610.000000	0.257710 
609.000000	0.258600 
608.000000	0.259450 
607.000000	0.260280 
606.000000	0.261180 
605.000000	0.261970 
604.000000	0.262740 
603.000000	0.263980 
602.000000	0.265000 
601.000000	0.265980 
600.000000	0.266880 
599.000000	0.267950 
598.000000	0.268870 
597.000000	0.269860 
596.000000	0.271100 
595.000000	0.272270 
594.000000	0.273400 
593.000000	0.274640 
592.000000	0.275890 
591.000000	0.276950 
590.000000	0.278180 
589.000000	0.279530 
588.000000	0.280800 
587.000000	0.282280 
586.000000	0.283570 
585.000000	0.285020 
584.000000	0.286370 
583.000000	0.287900 
582.000000	0.289180 
581.000000	0.290410 
580.000000	0.291750 
579.000000	0.293250 
578.000000	0.294750 
577.000000	0.296170 
576.000000	0.297920 
575.000000	0.299420 
574.000000	0.301310 
573.000000	0.302940 
572.000000	0.304560 
571.000000	0.306270 
570.000000	0.308100 
569.000000	0.309950 
568.000000	0.311680 
567.000000	0.313680 
566.000000	0.315620 
565.000000	0.317460 
564.000000	0.319650 
563.000000	0.321880 
562.000000	0.324020 
561.000000	0.326210 
560.000000	0.328170 
559.000000	0.330410 
558.000000	0.332420 
557.000000	0.334790 
556.000000	0.337290 
555.000000	0.339540 
554.000000	0.342010 
553.000000	0.344390 
552.000000	0.346980 
551.000000	0.349610 
550.000000	0.352010 
549.000000	0.354510 
548.000000	0.357160 
547.000000	0.359720 
546.000000	0.362240 
545.000000	0.364890 
544.000000	0.367750 
543.000000	0.370580 
542.000000	0.373210 
541.000000	0.375970 
540.000000	0.378700 
539.000000	0.381340 
538.000000	0.384150 
537.000000	0.387160 
536.000000	0.390030 
535.000000	0.392870 
534.000000	0.395770 
533.000000	0.398830 
532.000000	0.401620 
531.000000	0.404400 
530.000000	0.407390 
529.000000	0.410580 
528.000000	0.413530 
527.000000	0.416570 
526.000000	0.419450 
525.000000	0.422470 
524.000000	0.425200 
523.000000	0.427980 
522.000000	0.430800 
521.000000	0.433580 
520.000000	0.436570 
519.000000	0.439160 
518.000000	0.441940 
517.000000	0.444530 
516.000000	0.447070 
515.000000	0.449690 
514.000000	0.452390 
513.000000	0.455120 
512.000000	0.457610 
511.000000	0.460160 
510.000000	0.462620 
509.000000	0.465020 
508.000000	0.467320 
507.000000	0.469690 
506.000000	0.472040 
505.000000	0.474590 
504.000000	0.476610 
503.000000	0.478560 
502.000000	0.480820 
501.000000	0.482940 
500.000000	0.484920 
499.000000	0.487130 
498.000000	0.488890 
497.000000	0.490820 
496.000000	0.492680 
495.000000	0.494510 
494.000000	0.496140 
493.000000	0.497830 
492.000000	0.499250 
491.000000	0.500510 
490.000000	0.502210 
489.000000	0.503440 
488.000000	0.504880 
487.000000	0.506240 
486.000000	0.507310 
485.000000	0.508400 
484.000000	0.509420 
483.000000	0.510460 
482.000000	0.511240 
481.000000	0.512520 
480.000000	0.513410 
479.000000	0.514040 
478.000000	0.515170 
477.000000	0.516080 
476.000000	0.516360 
475.000000	0.517140 
474.000000	0.517530 
473.000000	0.518500 
472.000000	0.519090 
471.000000	0.519530 
470.000000	0.520320 
469.000000	0.520330 
468.000000	0.520900 
467.000000	0.520840 
466.000000	0.521400 
465.000000	0.522250 
464.000000	0.522500 
463.000000	0.523110 
462.000000	0.523470 
461.000000	0.523980 
460.000000	0.524640 
459.000000	0.524850 
458.000000	0.525140 
457.000000	0.525640 
456.000000	0.526110 
455.000000	0.526630 
454.000000	0.526869 
453.000000	0.528010 
452.000000	0.528180 
451.000000	0.528930 
450.000000	0.529699 
449.000000	0.530730 
448.000000	0.531730 
447.000000	0.532900 
446.000000	0.533720 
445.000000	0.535090 
444.000000	0.536700 
443.000000	0.538000 
442.000000	0.539140 
441.000000	0.541460 
440.000000	0.543239 
439.000000	0.545720 
438.000000	0.548250 
437.000000	0.550340 
436.000000	0.553030 
435.000000	0.556130 
434.000000	0.558690 
433.000000	0.562650 
432.000000	0.566690 
431.000000	0.570680 
430.000000	0.574840 
429.000000	0.579460 
428.000000	0.583680 
427.000000	0.589460 
426.000000	0.594100 
425.000000	0.600610 
424.000000	0.608030 
423.000000	0.614670 
422.000000	0.622530 
421.000000	0.632800 
420.000000	0.641220 
419.000000	0.650240 
418.000000	0.659390 
417.000000	0.669540 
416.000000	0.680090 
415.000000	0.691370 
414.000000	0.703680 
413.000000	0.716640 
412.000000	0.730080 
411.000000	0.744200 
410.000000	0.759220 
409.000000	0.775070 
408.000000	0.791260 
407.000000	0.808090 
406.000000	0.825659 
405.000000	0.843220 
404.000000	0.861370 
403.000000	0.880020 
402.000000	0.898320 
401.000000	0.918409 
400.000000	0.938290 

