PE IR       SUBTECH     SPECTRUM    ASCII       PEDS        4.00        
   -1
23ms092_cis.asc
24/10/22
16:28:54.00
24/10/22
16:28:54.00
Administrator
Sample 1338 By Administrator Date Tuesday, October 22 2024
400.000000
#HDR
-1
-1
#GR
cm-1
%T
1.0
0.0
4000.000000
-1.000000
3601
8
96.757295
19.792272
#DATA
4000.000000	81.953666
3999.000000	81.940358
3998.000000	81.930711
3997.000000	81.923394
3996.000000	81.918099
3995.000000	81.915191
3994.000000	81.913909
3993.000000	81.912488
3992.000000	81.910749
3991.000000	81.911024
3990.000000	81.914858
3989.000000	81.920918
3988.000000	81.927878
3987.000000	81.937494
3986.000000	81.953034
3985.000000	81.975188
3984.000000	82.001431
3983.000000	82.028750
3982.000000	82.055907
3981.000000	82.083514
3980.000000	82.112413
3979.000000	82.143104
3978.000000	82.176923
3977.000000	82.215018
3976.000000	82.256207
3975.000000	82.296730
3974.000000	82.333544
3973.000000	82.366711
3972.000000	82.397467
3971.000000	82.427236
3970.000000	82.456878
3969.000000	82.486634
3968.000000	82.516725
3967.000000	82.547835
3966.000000	82.580839
3965.000000	82.616956
3964.000000	82.657487
3963.000000	82.702504
3962.000000	82.751051
3961.000000	82.800567
3960.000000	82.847252
3959.000000	82.892089
3958.000000	82.939744
3957.000000	82.992250
3956.000000	83.046197
3955.000000	83.096862
3954.000000	83.143111
3953.000000	83.185360
3952.000000	83.223754
3951.000000	83.258629
3950.000000	83.290071
3949.000000	83.318975
3948.000000	83.349486
3947.000000	83.384951
3946.000000	83.422565
3945.000000	83.458611
3944.000000	83.497286
3943.000000	83.542992
3942.000000	83.589962
3941.000000	83.627032
3940.000000	83.650505
3939.000000	83.673520
3938.000000	83.710173
3937.000000	83.756646
3936.000000	83.796753
3935.000000	83.823339
3934.000000	83.850120
3933.000000	83.890267
3932.000000	83.937496
3931.000000	83.974304
3930.000000	83.992426
3929.000000	84.004662
3928.000000	84.024221
3927.000000	84.048560
3926.000000	84.072883
3925.000000	84.098849
3924.000000	84.122193
3923.000000	84.128692
3922.000000	84.113723
3921.000000	84.096831
3920.000000	84.098348
3919.000000	84.114887
3918.000000	84.132386
3917.000000	84.150831
3916.000000	84.177976
3915.000000	84.206814
3914.000000	84.225668
3913.000000	84.243108
3912.000000	84.269645
3911.000000	84.305221
3910.000000	84.338785
3909.000000	84.365920
3908.000000	84.391681
3907.000000	84.412185
3906.000000	84.414857
3905.000000	84.397212
3904.000000	84.373949
3903.000000	84.362080
3902.000000	84.361872
3901.000000	84.370042
3900.000000	84.400615
3899.000000	84.458551
3898.000000	84.522607
3897.000000	84.574719
3896.000000	84.620038
3895.000000	84.680264
3894.000000	84.755227
3893.000000	84.820965
3892.000000	84.858513
3891.000000	84.886599
3890.000000	84.921268
3889.000000	84.938383
3888.000000	84.923587
3887.000000	84.916902
3886.000000	84.965372
3885.000000	85.060013
3884.000000	85.134571
3883.000000	85.148660
3882.000000	85.134984
3881.000000	85.144337
3880.000000	85.185848
3879.000000	85.230270
3878.000000	85.244736
3877.000000	85.228646
3876.000000	85.213983
3875.000000	85.235797
3874.000000	85.295268
3873.000000	85.339484
3872.000000	85.316710
3871.000000	85.257745
3870.000000	85.248675
3869.000000	85.318464
3868.000000	85.385324
3867.000000	85.380466
3866.000000	85.359904
3865.000000	85.402557
3864.000000	85.479949
3863.000000	85.521422
3862.000000	85.516435
3861.000000	85.516578
3860.000000	85.553573
3859.000000	85.623759
3858.000000	85.716751
3857.000000	85.820917
3856.000000	85.908908
3855.000000	85.935116
3854.000000	85.881203
3853.000000	85.815219
3852.000000	85.795934
3851.000000	85.791028
3850.000000	85.782086
3849.000000	85.806129
3848.000000	85.866702
3847.000000	85.930650
3846.000000	85.978987
3845.000000	86.013363
3844.000000	86.039991
3843.000000	86.073319
3842.000000	86.108732
3841.000000	86.135004
3840.000000	86.150441
3839.000000	86.162169
3838.000000	86.177661
3837.000000	86.199675
3836.000000	86.225226
3835.000000	86.248270
3834.000000	86.263827
3833.000000	86.280069
3832.000000	86.310771
3831.000000	86.357346
3830.000000	86.407793
3829.000000	86.445671
3828.000000	86.462154
3827.000000	86.482910
3826.000000	86.533921
3825.000000	86.596589
3824.000000	86.625476
3823.000000	86.615423
3822.000000	86.610728
3821.000000	86.657569
3820.000000	86.739169
3819.000000	86.776540
3818.000000	86.744633
3817.000000	86.711479
3816.000000	86.749690
3815.000000	86.840559
3814.000000	86.899124
3813.000000	86.896669
3812.000000	86.892721
3811.000000	86.939289
3810.000000	87.014979
3809.000000	87.057122
3808.000000	87.051709
3807.000000	87.058384
3806.000000	87.114388
3805.000000	87.175554
3804.000000	87.182586
3803.000000	87.161482
3802.000000	87.178456
3801.000000	87.249065
3800.000000	87.313324
3799.000000	87.312151
3798.000000	87.275237
3797.000000	87.270977
3796.000000	87.320227
3795.000000	87.380374
3794.000000	87.412724
3793.000000	87.428059
3792.000000	87.457282
3791.000000	87.505048
3790.000000	87.554129
3789.000000	87.591397
3788.000000	87.619110
3787.000000	87.640809
3786.000000	87.656066
3785.000000	87.671188
3784.000000	87.693852
3783.000000	87.717929
3782.000000	87.731088
3781.000000	87.736944
3780.000000	87.749567
3779.000000	87.778446
3778.000000	87.811539
3777.000000	87.827446
3776.000000	87.826839
3775.000000	87.840658
3774.000000	87.886179
3773.000000	87.935282
3772.000000	87.953743
3771.000000	87.957882
3770.000000	87.984823
3769.000000	88.031011
3768.000000	88.059621
3767.000000	88.060284
3766.000000	88.071071
3765.000000	88.123776
3764.000000	88.195750
3763.000000	88.240818
3762.000000	88.252490
3761.000000	88.276625
3760.000000	88.328942
3759.000000	88.375586
3758.000000	88.400297
3757.000000	88.424513
3756.000000	88.458667
3755.000000	88.483916
3754.000000	88.497755
3753.000000	88.527738
3752.000000	88.569445
3751.000000	88.578548
3750.000000	88.565435
3749.000000	88.597839
3748.000000	88.668161
3747.000000	88.696714
3746.000000	88.668887
3745.000000	88.655406
3744.000000	88.714054
3743.000000	88.796861
3742.000000	88.799060
3741.000000	88.734656
3740.000000	88.694643
3739.000000	88.698574
3738.000000	88.705459
3737.000000	88.708817
3736.000000	88.753086
3735.000000	88.823638
3734.000000	88.845556
3733.000000	88.813014
3732.000000	88.794859
3731.000000	88.824247
3730.000000	88.861107
3729.000000	88.865069
3728.000000	88.862549
3727.000000	88.903175
3726.000000	88.986762
3725.000000	89.061654
3724.000000	89.103271
3723.000000	89.140706
3722.000000	89.197155
3721.000000	89.273932
3720.000000	89.355095
3719.000000	89.429376
3718.000000	89.508185
3717.000000	89.600994
3716.000000	89.685878
3715.000000	89.728937
3714.000000	89.731018
3713.000000	89.725139
3712.000000	89.727072
3711.000000	89.726957
3710.000000	89.723467
3709.000000	89.730071
3708.000000	89.758260
3707.000000	89.807922
3706.000000	89.868361
3705.000000	89.927339
3704.000000	89.978479
3703.000000	90.023836
3702.000000	90.066816
3701.000000	90.113373
3700.000000	90.160421
3699.000000	90.191794
3698.000000	90.212665
3697.000000	90.254860
3696.000000	90.324240
3695.000000	90.386195
3694.000000	90.419495
3693.000000	90.449064
3692.000000	90.498828
3691.000000	90.548979
3690.000000	90.568136
3689.000000	90.570417
3688.000000	90.603962
3687.000000	90.669125
3686.000000	90.717197
3685.000000	90.736349
3684.000000	90.760008
3683.000000	90.803391
3682.000000	90.845144
3681.000000	90.867313
3680.000000	90.895599
3679.000000	90.937116
3678.000000	90.950894
3677.000000	90.925798
3676.000000	90.919116
3675.000000	90.984710
3674.000000	91.070367
3673.000000	91.077007
3672.000000	91.016962
3671.000000	91.000205
3670.000000	91.071444
3669.000000	91.163459
3668.000000	91.210911
3667.000000	91.221005
3666.000000	91.229821
3665.000000	91.259931
3664.000000	91.303170
3663.000000	91.338487
3662.000000	91.359577
3661.000000	91.371431
3660.000000	91.381968
3659.000000	91.383298
3658.000000	91.367987
3657.000000	91.351716
3656.000000	91.364581
3655.000000	91.402180
3654.000000	91.409373
3653.000000	91.356574
3652.000000	91.293605
3651.000000	91.282069
3650.000000	91.307289
3649.000000	91.310312
3648.000000	91.294829
3647.000000	91.309758
3646.000000	91.353553
3645.000000	91.391808
3644.000000	91.414174
3643.000000	91.439669
3642.000000	91.476529
3641.000000	91.504053
3640.000000	91.503156
3639.000000	91.482518
3638.000000	91.463103
3637.000000	91.441966
3636.000000	91.402707
3635.000000	91.353224
3634.000000	91.318156
3633.000000	91.291959
3632.000000	91.232387
3631.000000	91.126305
3630.000000	91.019631
3629.000000	90.965356
3628.000000	90.958223
3627.000000	90.945850
3626.000000	90.899381
3625.000000	90.848131
3624.000000	90.828453
3623.000000	90.829620
3622.000000	90.812781
3621.000000	90.764952
3620.000000	90.698982
3619.000000	90.621549
3618.000000	90.535636
3617.000000	90.443763
3616.000000	90.345164
3615.000000	90.245315
3614.000000	90.150802
3613.000000	90.052562
3612.000000	89.927952
3611.000000	89.765080
3610.000000	89.586751
3609.000000	89.435986
3608.000000	89.324278
3607.000000	89.222376
3606.000000	89.103643
3605.000000	88.970224
3604.000000	88.840503
3603.000000	88.719074
3602.000000	88.596902
3601.000000	88.474734
3600.000000	88.358301
3599.000000	88.239081
3598.000000	88.113981
3597.000000	87.990308
3596.000000	87.873366
3595.000000	87.758418
3594.000000	87.636506
3593.000000	87.504370
3592.000000	87.364081
3591.000000	87.218830
3590.000000	87.084893
3589.000000	86.992433
3588.000000	86.954274
3587.000000	86.947026
3586.000000	86.937327
3585.000000	86.913437
3584.000000	86.882271
3583.000000	86.849419
3582.000000	86.811394
3581.000000	86.762014
3580.000000	86.698158
3579.000000	86.618065
3578.000000	86.523981
3577.000000	86.424292
3576.000000	86.324667
3575.000000	86.224780
3574.000000	86.121271
3573.000000	86.011048
3572.000000	85.891051
3571.000000	85.754417
3570.000000	85.598211
3569.000000	85.437855
3568.000000	85.295324
3567.000000	85.170395
3566.000000	85.043564
3565.000000	84.904157
3564.000000	84.759034
3563.000000	84.620277
3562.000000	84.490442
3561.000000	84.360863
3560.000000	84.220136
3559.000000	84.061846
3558.000000	83.887519
3557.000000	83.706197
3556.000000	83.525437
3555.000000	83.343348
3554.000000	83.153439
3553.000000	82.953734
3552.000000	82.746473
3551.000000	82.529554
3550.000000	82.296084
3549.000000	82.048451
3548.000000	81.800068
3547.000000	81.559284
3546.000000	81.319806
3545.000000	81.072856
3544.000000	80.817606
3543.000000	80.557295
3542.000000	80.291702
3541.000000	80.018141
3540.000000	79.733118
3539.000000	79.430923
3538.000000	79.108758
3537.000000	78.770399
3536.000000	78.422308
3535.000000	78.064747
3534.000000	77.693595
3533.000000	77.309097
3532.000000	76.914432
3531.000000	76.505771
3530.000000	76.071377
3529.000000	75.605213
3528.000000	75.114055
3527.000000	74.607562
3526.000000	74.089105
3525.000000	73.560175
3524.000000	73.023323
3523.000000	72.476523
3522.000000	71.912347
3521.000000	71.326087
3520.000000	70.719761
3519.000000	70.095208
3518.000000	69.450197
3517.000000	68.782450
3516.000000	68.093893
3515.000000	67.388975
3514.000000	66.670637
3513.000000	65.938387
3512.000000	65.188627
3511.000000	64.415320
3510.000000	63.614857
3509.000000	62.793287
3508.000000	61.962864
3507.000000	61.129252
3506.000000	60.287084
3505.000000	59.428473
3504.000000	58.550646
3503.000000	57.656251
3502.000000	56.752537
3501.000000	55.850436
3500.000000	54.957676
3499.000000	54.071361
3498.000000	53.182153
3497.000000	52.285342
3496.000000	51.383993
3495.000000	50.483296
3494.000000	49.588408
3493.000000	48.706450
3492.000000	47.843103
3491.000000	46.995835
3490.000000	46.156594
3489.000000	45.323432
3488.000000	44.504819
3487.000000	43.711612
3486.000000	42.950013
3485.000000	42.220741
3484.000000	41.517607
3483.000000	40.828032
3482.000000	40.143345
3481.000000	39.470005
3480.000000	38.823982
3479.000000	38.212606
3478.000000	37.628259
3477.000000	37.058856
3476.000000	36.496490
3475.000000	35.937202
3474.000000	35.380884
3473.000000	34.833467
3472.000000	34.303943
3471.000000	33.799059
3470.000000	33.326279
3469.000000	32.898927
3468.000000	32.531543
3467.000000	32.230447
3466.000000	31.994268
3465.000000	31.822641
3464.000000	31.716731
3463.000000	31.674162
3462.000000	31.692894
3461.000000	31.777788
3460.000000	31.935972
3459.000000	32.164379
3458.000000	32.448319
3457.000000	32.771798
3456.000000	33.121882
3455.000000	33.484538
3454.000000	33.844364
3453.000000	34.188810
3452.000000	34.507253
3451.000000	34.785984
3450.000000	35.008084
3449.000000	35.159495
3448.000000	35.231436
3447.000000	35.219386
3446.000000	35.127643
3445.000000	34.970023
3444.000000	34.760619
3443.000000	34.505587
3442.000000	34.207250
3441.000000	33.875768
3440.000000	33.529134
3439.000000	33.184103
3438.000000	32.854863
3437.000000	32.557830
3436.000000	32.310086
3435.000000	32.120984
3434.000000	31.990253
3433.000000	31.914869
3432.000000	31.895251
3431.000000	31.934818
3430.000000	32.040091
3429.000000	32.221164
3428.000000	32.484380
3427.000000	32.828634
3426.000000	33.249927
3425.000000	33.748069
3424.000000	34.325570
3423.000000	34.979134
3422.000000	35.702020
3421.000000	36.489503
3420.000000	37.337066
3419.000000	38.236585
3418.000000	39.176387
3417.000000	40.146612
3416.000000	41.138528
3415.000000	42.141352
3414.000000	43.145987
3413.000000	44.148405
3412.000000	45.145560
3411.000000	46.130212
3410.000000	47.094127
3409.000000	48.034105
3408.000000	48.949585
3407.000000	49.835632
3406.000000	50.684577
3405.000000	51.492875
3404.000000	52.262085
3403.000000	52.996479
3402.000000	53.703431
3401.000000	54.393015
3400.000000	55.071084
3399.000000	55.732818
3398.000000	56.368148
3397.000000	56.971967
3396.000000	57.545353
3395.000000	58.091555
3394.000000	58.615299
3393.000000	59.124686
3392.000000	59.627516
3391.000000	60.125070
3390.000000	60.614346
3389.000000	61.093650
3388.000000	61.562847
3387.000000	62.020316
3386.000000	62.464484
3385.000000	62.897571
3384.000000	63.323287
3383.000000	63.742900
3382.000000	64.157065
3381.000000	64.569004
3380.000000	64.981545
3379.000000	65.393070
3378.000000	65.800463
3377.000000	66.204192
3376.000000	66.606012
3375.000000	67.003943
3374.000000	67.393981
3373.000000	67.775636
3372.000000	68.152072
3371.000000	68.525967
3370.000000	68.898989
3369.000000	69.273163
3368.000000	69.648980
3367.000000	70.023152
3366.000000	70.391433
3365.000000	70.752767
3364.000000	71.108053
3363.000000	71.457059
3362.000000	71.799932
3361.000000	72.139526
3360.000000	72.478673
3359.000000	72.816411
3358.000000	73.149949
3357.000000	73.478772
3356.000000	73.802926
3355.000000	74.119833
3354.000000	74.426917
3353.000000	74.726256
3352.000000	75.022886
3351.000000	75.318948
3350.000000	75.612422
3349.000000	75.900509
3348.000000	76.181411
3347.000000	76.453690
3346.000000	76.717217
3345.000000	76.974301
3344.000000	77.226849
3343.000000	77.473174
3342.000000	77.710363
3341.000000	77.938574
3340.000000	78.160671
3339.000000	78.378552
3338.000000	78.591663
3337.000000	78.798355
3336.000000	78.995855
3335.000000	79.180303
3334.000000	79.349530
3333.000000	79.504489
3332.000000	79.646404
3331.000000	79.773080
3330.000000	79.880349
3329.000000	79.966437
3328.000000	80.031408
3327.000000	80.074109
3326.000000	80.091605
3325.000000	80.080795
3324.000000	80.038811
3323.000000	79.961604
3322.000000	79.845716
3321.000000	79.689660
3320.000000	79.490850
3319.000000	79.244370
3318.000000	78.943712
3317.000000	78.584211
3316.000000	78.161050
3315.000000	77.665405
3314.000000	77.087662
3313.000000	76.419668
3312.000000	75.653897
3311.000000	74.781989
3310.000000	73.794843
3309.000000	72.689584
3308.000000	71.466391
3307.000000	70.123793
3306.000000	68.659750
3305.000000	67.070529
3304.000000	65.353170
3303.000000	63.501718
3302.000000	61.511928
3301.000000	59.388491
3300.000000	57.142532
3299.000000	54.791858
3298.000000	52.365612
3297.000000	49.908858
3296.000000	47.476996
3295.000000	45.123458
3294.000000	42.895705
3293.000000	40.836601
3292.000000	38.977868
3291.000000	37.326811
3290.000000	35.869555
3289.000000	34.577985
3288.000000	33.416842
3287.000000	32.349461
3286.000000	31.343162
3285.000000	30.380199
3284.000000	29.453827
3283.000000	28.564648
3282.000000	27.725297
3281.000000	26.960602
3280.000000	26.301146
3279.000000	25.772379
3278.000000	25.394953
3277.000000	25.189713
3276.000000	25.168560
3275.000000	25.327524
3274.000000	25.648317
3273.000000	26.102302
3272.000000	26.651358
3271.000000	27.243553
3270.000000	27.820720
3269.000000	28.328601
3268.000000	28.719307
3267.000000	28.953384
3266.000000	29.009563
3265.000000	28.890375
3264.000000	28.616222
3263.000000	28.218988
3262.000000	27.738970
3261.000000	27.226298
3260.000000	26.731418
3259.000000	26.295123
3258.000000	25.950070
3257.000000	25.723691
3256.000000	25.632140
3255.000000	25.675245
3254.000000	25.842281
3253.000000	26.116856
3252.000000	26.477368
3251.000000	26.893181
3250.000000	27.331744
3249.000000	27.768020
3248.000000	28.181694
3247.000000	28.553497
3246.000000	28.867644
3245.000000	29.116391
3244.000000	29.297865
3243.000000	29.413992
3242.000000	29.471779
3241.000000	29.483970
3240.000000	29.462766
3239.000000	29.414022
3238.000000	29.343045
3237.000000	29.258269
3236.000000	29.168033
3235.000000	29.077723
3234.000000	28.992178
3233.000000	28.916320
3232.000000	28.847091
3231.000000	28.770623
3230.000000	28.672397
3229.000000	28.545427
3228.000000	28.386590
3227.000000	28.190565
3226.000000	27.953495
3225.000000	27.678282
3224.000000	27.369434
3223.000000	27.028588
3222.000000	26.658715
3221.000000	26.268925
3220.000000	25.870699
3219.000000	25.472203
3218.000000	25.080702
3217.000000	24.703906
3216.000000	24.344140
3215.000000	23.995894
3214.000000	23.653786
3213.000000	23.318214
3212.000000	22.989177
3211.000000	22.661026
3210.000000	22.328924
3209.000000	21.996303
3208.000000	21.670283
3207.000000	21.354855
3206.000000	21.053805
3205.000000	20.774461
3204.000000	20.523798
3203.000000	20.304337
3202.000000	20.118541
3201.000000	19.972864
3200.000000	19.871259
3199.000000	19.811673
3198.000000	19.792272
3197.000000	19.816499
3196.000000	19.888382
3195.000000	20.005397
3194.000000	20.163551
3193.000000	20.361915
3192.000000	20.597887
3191.000000	20.865205
3190.000000	21.158523
3189.000000	21.477588
3188.000000	21.821371
3187.000000	22.183039
3186.000000	22.556415
3185.000000	22.940605
3184.000000	23.335666
3183.000000	23.738275
3182.000000	24.145589
3181.000000	24.558436
3180.000000	24.975484
3179.000000	25.389999
3178.000000	25.796414
3177.000000	26.195444
3176.000000	26.588934
3175.000000	26.974630
3174.000000	27.349893
3173.000000	27.715309
3172.000000	28.070967
3171.000000	28.413546
3170.000000	28.741444
3169.000000	29.057801
3168.000000	29.364620
3167.000000	29.659358
3166.000000	29.939732
3165.000000	30.207336
3164.000000	30.462844
3163.000000	30.702342
3162.000000	30.922880
3161.000000	31.125735
3160.000000	31.311621
3159.000000	31.477586
3158.000000	31.621826
3157.000000	31.747949
3156.000000	31.860166
3155.000000	31.959969
3154.000000	32.051062
3153.000000	32.141781
3152.000000	32.238973
3151.000000	32.343214
3150.000000	32.453743
3149.000000	32.573157
3148.000000	32.703540
3147.000000	32.842797
3146.000000	32.988758
3145.000000	33.142307
3144.000000	33.302851
3143.000000	33.465642
3142.000000	33.626942
3141.000000	33.787407
3140.000000	33.946654
3139.000000	34.099576
3138.000000	34.241391
3137.000000	34.371548
3136.000000	34.488816
3135.000000	34.586845
3134.000000	34.658955
3133.000000	34.701642
3132.000000	34.710907
3131.000000	34.678970
3130.000000	34.597535
3129.000000	34.462317
3128.000000	34.270048
3127.000000	34.018738
3126.000000	33.713780
3125.000000	33.369165
3124.000000	33.001200
3123.000000	32.622720
3122.000000	32.246696
3121.000000	31.887883
3120.000000	31.555646
3119.000000	31.249887
3118.000000	30.967236
3117.000000	30.706674
3116.000000	30.465894
3115.000000	30.238579
3114.000000	30.019139
3113.000000	29.806354
3112.000000	29.599070
3111.000000	29.393742
3110.000000	29.190384
3109.000000	28.995133
3108.000000	28.814069
3107.000000	28.649512
3106.000000	28.504816
3105.000000	28.388276
3104.000000	28.307047
3103.000000	28.263416
3102.000000	28.261250
3101.000000	28.309094
3100.000000	28.414940
3099.000000	28.580045
3098.000000	28.802905
3097.000000	29.084174
3096.000000	29.421953
3095.000000	29.810694
3094.000000	30.245829
3093.000000	30.726286
3092.000000	31.249592
3091.000000	31.807468
3090.000000	32.391615
3089.000000	32.996801
3088.000000	33.616675
3087.000000	34.242753
3086.000000	34.869663
3085.000000	35.497696
3084.000000	36.126009
3083.000000	36.748674
3082.000000	37.360498
3081.000000	37.961469
3080.000000	38.552731
3079.000000	39.132817
3078.000000	39.700933
3077.000000	40.258348
3076.000000	40.804125
3075.000000	41.333565
3074.000000	41.843859
3073.000000	42.337384
3072.000000	42.816110
3071.000000	43.278332
3070.000000	43.723123
3069.000000	44.153701
3068.000000	44.573464
3067.000000	44.981828
3066.000000	45.377690
3065.000000	45.762734
3064.000000	46.138586
3063.000000	46.504646
3062.000000	46.860705
3061.000000	47.208748
3060.000000	47.549496
3059.000000	47.880852
3058.000000	48.202393
3057.000000	48.517091
3056.000000	48.826957
3055.000000	49.130605
3054.000000	49.427250
3053.000000	49.719674
3052.000000	50.010159
3051.000000	50.297356
3050.000000	50.579444
3049.000000	50.856753
3048.000000	51.129434
3047.000000	51.395924
3046.000000	51.656362
3045.000000	51.914025
3044.000000	52.171008
3043.000000	52.426072
3042.000000	52.678339
3041.000000	52.929200
3040.000000	53.178602
3039.000000	53.423099
3038.000000	53.660589
3037.000000	53.893505
3036.000000	54.125134
3035.000000	54.356203
3034.000000	54.586843
3033.000000	54.818230
3032.000000	55.049917
3031.000000	55.279297
3030.000000	55.505813
3029.000000	55.731964
3028.000000	55.958293
3027.000000	56.181274
3026.000000	56.398285
3025.000000	56.610958
3024.000000	56.820886
3023.000000	57.025579
3022.000000	57.221037
3021.000000	57.404710
3020.000000	57.573635
3019.000000	57.721743
3018.000000	57.842431
3017.000000	57.931512
3016.000000	57.986633
3015.000000	58.008341
3014.000000	58.004473
3013.000000	57.992267
3012.000000	57.993116
3011.000000	58.026498
3010.000000	58.107474
3009.000000	58.243716
3008.000000	58.430674
3007.000000	58.651516
3006.000000	58.883881
3005.000000	59.105142
3004.000000	59.291160
3003.000000	59.414427
3002.000000	59.447459
3001.000000	59.367020
3000.000000	59.159672
2999.000000	58.832383
2998.000000	58.426614
2997.000000	58.019695
2996.000000	57.704816
2995.000000	57.561279
2994.000000	57.629296
2993.000000	57.899532
2992.000000	58.316982
2991.000000	58.804558
2990.000000	59.293762
2989.000000	59.742967
2988.000000	60.135870
2987.000000	60.470831
2986.000000	60.754637
2985.000000	60.996827
2984.000000	61.203493
2983.000000	61.374141
2982.000000	61.506381
2981.000000	61.599008
2980.000000	61.649395
2979.000000	61.651248
2978.000000	61.598549
2977.000000	61.492372
2976.000000	61.342297
2975.000000	61.166529
2974.000000	60.991411
2973.000000	60.846172
2972.000000	60.752291
2971.000000	60.714367
2970.000000	60.718393
2969.000000	60.732322
2968.000000	60.707691
2967.000000	60.591609
2966.000000	60.350306
2965.000000	59.987704
2964.000000	59.544185
2963.000000	59.079531
2962.000000	58.654865
2961.000000	58.318304
2960.000000	58.097602
2959.000000	58.001119
2958.000000	58.027040
2957.000000	58.167381
2956.000000	58.404359
2955.000000	58.709374
2954.000000	59.048744
2953.000000	59.389205
2952.000000	59.696657
2951.000000	59.940232
2950.000000	60.103328
2949.000000	60.192036
2948.000000	60.228764
2947.000000	60.234842
2946.000000	60.212146
2945.000000	60.127872
2944.000000	59.916509
2943.000000	59.512922
2942.000000	58.912012
2941.000000	58.211188
2940.000000	57.596012
2939.000000	57.267292
2938.000000	57.350590
2937.000000	57.844651
2936.000000	58.632810
2935.000000	59.548909
2934.000000	60.450072
2933.000000	61.255070
2932.000000	61.938978
2931.000000	62.510720
2930.000000	62.994263
2929.000000	63.414571
2928.000000	63.790096
2927.000000	64.131276
2926.000000	64.446002
2925.000000	64.741320
2924.000000	65.020040
2923.000000	65.279843
2922.000000	65.518080
2921.000000	65.734146
2920.000000	65.926021
2919.000000	66.089744
2918.000000	66.223866
2917.000000	66.331783
2916.000000	66.418230
2915.000000	66.486337
2914.000000	66.539451
2913.000000	66.581802
2912.000000	66.615609
2911.000000	66.639989
2910.000000	66.653568
2909.000000	66.655132
2908.000000	66.640017
2907.000000	66.598243
2906.000000	66.517597
2905.000000	66.385040
2904.000000	66.185205
2903.000000	65.901892
2902.000000	65.527762
2901.000000	65.070800
2900.000000	64.556331
2899.000000	64.027601
2898.000000	63.541989
2897.000000	63.160588
2896.000000	62.928693
2895.000000	62.862512
2894.000000	62.951153
2893.000000	63.165323
2892.000000	63.466140
2891.000000	63.813301
2890.000000	64.174554
2889.000000	64.528774
2888.000000	64.862534
2887.000000	65.166816
2886.000000	65.437320
2885.000000	65.674562
2884.000000	65.879916
2883.000000	66.054678
2882.000000	66.202957
2881.000000	66.332175
2880.000000	66.448999
2879.000000	66.557141
2878.000000	66.659888
2877.000000	66.761129
2876.000000	66.862214
2875.000000	66.960473
2874.000000	67.053111
2873.000000	67.140236
2872.000000	67.223621
2871.000000	67.306112
2870.000000	67.393601
2869.000000	67.494102
2868.000000	67.612078
2867.000000	67.745324
2866.000000	67.888413
2865.000000	68.036308
2864.000000	68.183797
2863.000000	68.325427
2862.000000	68.458529
2861.000000	68.584166
2860.000000	68.703765
2859.000000	68.817285
2858.000000	68.925931
2857.000000	69.033671
2856.000000	69.144354
2855.000000	69.259713
2854.000000	69.380842
2853.000000	69.507912
2852.000000	69.636337
2851.000000	69.756112
2850.000000	69.857532
2849.000000	69.936434
2848.000000	69.994004
2847.000000	70.035047
2846.000000	70.067891
2845.000000	70.102415
2844.000000	70.145211
2843.000000	70.197436
2842.000000	70.257956
2841.000000	70.326467
2840.000000	70.402549
2839.000000	70.484595
2838.000000	70.571467
2837.000000	70.663288
2836.000000	70.759665
2835.000000	70.859138
2834.000000	70.961055
2833.000000	71.065788
2832.000000	71.172358
2831.000000	71.278227
2830.000000	71.382351
2829.000000	71.485999
2828.000000	71.589637
2827.000000	71.691566
2826.000000	71.790538
2825.000000	71.887036
2824.000000	71.980827
2823.000000	72.069791
2822.000000	72.152807
2821.000000	72.231623
2820.000000	72.308468
2819.000000	72.383881
2818.000000	72.457932
2817.000000	72.531269
2816.000000	72.603431
2815.000000	72.672029
2814.000000	72.735167
2813.000000	72.793227
2812.000000	72.847452
2811.000000	72.898735
2810.000000	72.948620
2809.000000	72.999343
2808.000000	73.051588
2807.000000	73.103817
2806.000000	73.154637
2805.000000	73.203953
2804.000000	73.251191
2803.000000	73.294868
2802.000000	73.335114
2801.000000	73.374668
2800.000000	73.416211
2799.000000	73.460309
2798.000000	73.506488
2797.000000	73.554003
2796.000000	73.600661
2795.000000	73.643304
2794.000000	73.680920
2793.000000	73.715641
2792.000000	73.749874
2791.000000	73.784294
2790.000000	73.819162
2789.000000	73.855018
2788.000000	73.890780
2787.000000	73.923392
2786.000000	73.950942
2785.000000	73.974767
2784.000000	73.997797
2783.000000	74.022950
2782.000000	74.053739
2781.000000	74.093643
2780.000000	74.143149
2779.000000	74.199008
2778.000000	74.257577
2777.000000	74.317428
2776.000000	74.378067
2775.000000	74.438418
2774.000000	74.497924
2773.000000	74.557188
2772.000000	74.616228
2771.000000	74.673578
2770.000000	74.727915
2769.000000	74.779031
2768.000000	74.826600
2767.000000	74.869877
2766.000000	74.909489
2765.000000	74.947584
2764.000000	74.985244
2763.000000	75.021449
2762.000000	75.055122
2761.000000	75.086244
2760.000000	75.114240
2759.000000	75.137534
2758.000000	75.156071
2757.000000	75.172379
2756.000000	75.188868
2755.000000	75.205605
2754.000000	75.221578
2753.000000	75.236663
2752.000000	75.251612
2751.000000	75.267696
2750.000000	75.287066
2749.000000	75.311548
2748.000000	75.340126
2747.000000	75.369231
2746.000000	75.396208
2745.000000	75.421007
2744.000000	75.444252
2743.000000	75.465788
2742.000000	75.485641
2741.000000	75.504185
2740.000000	75.520407
2739.000000	75.532155
2738.000000	75.539467
2737.000000	75.546612
2736.000000	75.560213
2735.000000	75.586615
2734.000000	75.630620
2733.000000	75.693319
2732.000000	75.769920
2731.000000	75.851763
2730.000000	75.931799
2729.000000	76.007419
2728.000000	76.078134
2727.000000	76.143181
2726.000000	76.202338
2725.000000	76.256470
2724.000000	76.305676
2723.000000	76.348589
2722.000000	76.384288
2721.000000	76.413184
2720.000000	76.435690
2719.000000	76.451823
2718.000000	76.463160
2717.000000	76.473414
2716.000000	76.485798
2715.000000	76.501458
2714.000000	76.521004
2713.000000	76.545650
2712.000000	76.575944
2711.000000	76.611019
2710.000000	76.649734
2709.000000	76.690985
2708.000000	76.732399
2707.000000	76.770655
2706.000000	76.803996
2705.000000	76.832830
2704.000000	76.857281
2703.000000	76.876089
2702.000000	76.888511
2701.000000	76.895029
2700.000000	76.895535
2699.000000	76.888535
2698.000000	76.873272
2697.000000	76.851509
2696.000000	76.826480
2695.000000	76.801769
2694.000000	76.781437
2693.000000	76.768783
2692.000000	76.763778
2691.000000	76.763091
2690.000000	76.763334
2689.000000	76.763146
2688.000000	76.762326
2687.000000	76.761169
2686.000000	76.761487
2685.000000	76.766116
2684.000000	76.776541
2683.000000	76.792584
2682.000000	76.814302
2681.000000	76.842237
2680.000000	76.875318
2679.000000	76.910659
2678.000000	76.946203
2677.000000	76.981382
2676.000000	77.015001
2675.000000	77.044829
2674.000000	77.069834
2673.000000	77.090599
2672.000000	77.106969
2671.000000	77.117646
2670.000000	77.123179
2669.000000	77.127446
2668.000000	77.135217
2667.000000	77.149920
2666.000000	77.174041
2665.000000	77.208930
2664.000000	77.252742
2663.000000	77.300344
2662.000000	77.346153
2661.000000	77.385802
2660.000000	77.415368
2659.000000	77.431803
2658.000000	77.435285
2657.000000	77.429490
2656.000000	77.418771
2655.000000	77.406719
2654.000000	77.397750
2653.000000	77.397224
2652.000000	77.408696
2651.000000	77.432765
2650.000000	77.468982
2649.000000	77.516336
2648.000000	77.571294
2647.000000	77.627787
2646.000000	77.680608
2645.000000	77.727661
2644.000000	77.768526
2643.000000	77.803612
2642.000000	77.835691
2641.000000	77.869681
2640.000000	77.909089
2639.000000	77.953703
2638.000000	78.001267
2637.000000	78.049454
2636.000000	78.095541
2635.000000	78.136450
2634.000000	78.170781
2633.000000	78.199503
2632.000000	78.223875
2631.000000	78.244238
2630.000000	78.261055
2629.000000	78.275376
2628.000000	78.287224
2627.000000	78.295298
2626.000000	78.299350
2625.000000	78.301007
2624.000000	78.301861
2623.000000	78.302433
2622.000000	78.303449
2621.000000	78.306137
2620.000000	78.309993
2619.000000	78.312142
2618.000000	78.309748
2617.000000	78.301518
2616.000000	78.286587
2615.000000	78.263791
2614.000000	78.233295
2613.000000	78.197336
2612.000000	78.158479
2611.000000	78.118831
2610.000000	78.081305
2609.000000	78.049692
2608.000000	78.026673
2607.000000	78.013353
2606.000000	78.010844
2605.000000	78.020592
2604.000000	78.042333
2603.000000	78.073549
2602.000000	78.111847
2601.000000	78.155340
2600.000000	78.200927
2599.000000	78.244682
2598.000000	78.284711
2597.000000	78.321926
2596.000000	78.357200
2595.000000	78.390137
2594.000000	78.421311
2593.000000	78.453075
2592.000000	78.486815
2591.000000	78.521374
2590.000000	78.555098
2589.000000	78.587377
2588.000000	78.617243
2587.000000	78.642515
2586.000000	78.661875
2585.000000	78.676334
2584.000000	78.687915
2583.000000	78.698855
2582.000000	78.713044
2581.000000	78.735982
2580.000000	78.771632
2579.000000	78.820219
2578.000000	78.879368
2577.000000	78.945926
2576.000000	79.015813
2575.000000	79.084453
2574.000000	79.149165
2573.000000	79.210071
2572.000000	79.268412
2571.000000	79.325150
2570.000000	79.381354
2569.000000	79.437916
2568.000000	79.493880
2567.000000	79.546394
2566.000000	79.593221
2565.000000	79.634318
2564.000000	79.670741
2563.000000	79.704009
2562.000000	79.736791
2561.000000	79.772202
2560.000000	79.811279
2559.000000	79.852141
2558.000000	79.892147
2557.000000	79.929397
2556.000000	79.962285
2555.000000	79.990010
2554.000000	80.014510
2553.000000	80.040264
2552.000000	80.071167
2551.000000	80.108548
2550.000000	80.152003
2549.000000	80.199938
2548.000000	80.248644
2547.000000	80.293072
2546.000000	80.329983
2545.000000	80.359561
2544.000000	80.383704
2543.000000	80.404454
2542.000000	80.424154
2541.000000	80.444565
2540.000000	80.464719
2539.000000	80.480625
2538.000000	80.488286
2537.000000	80.485934
2536.000000	80.473122
2535.000000	80.450289
2534.000000	80.419629
2533.000000	80.384906
2532.000000	80.349135
2531.000000	80.313098
2530.000000	80.276835
2529.000000	80.240695
2528.000000	80.204784
2527.000000	80.169236
2526.000000	80.135501
2525.000000	80.105675
2524.000000	80.079764
2523.000000	80.055153
2522.000000	80.029198
2521.000000	80.000517
2520.000000	79.967523
2519.000000	79.927898
2518.000000	79.880631
2517.000000	79.827035
2516.000000	79.768837
2515.000000	79.707202
2514.000000	79.644077
2513.000000	79.582677
2512.000000	79.525851
2511.000000	79.475758
2510.000000	79.435437
2509.000000	79.408718
2508.000000	79.397707
2507.000000	79.401393
2506.000000	79.417769
2505.000000	79.444676
2504.000000	79.478574
2503.000000	79.515257
2502.000000	79.552278
2501.000000	79.589655
2500.000000	79.627316
2499.000000	79.663795
2498.000000	79.697934
2497.000000	79.729348
2496.000000	79.756450
2495.000000	79.776292
2494.000000	79.787383
2493.000000	79.791003
2492.000000	79.789649
2491.000000	79.786052
2490.000000	79.784223
2489.000000	79.788727
2488.000000	79.801267
2487.000000	79.819576
2486.000000	79.840295
2485.000000	79.861211
2484.000000	79.880463
2483.000000	79.896358
2482.000000	79.909279
2481.000000	79.922062
2480.000000	79.937371
2479.000000	79.956020
2478.000000	79.978384
2477.000000	80.005096
2476.000000	80.035640
2475.000000	80.068404
2474.000000	80.103049
2473.000000	80.141467
2472.000000	80.185478
2471.000000	80.235409
2470.000000	80.291205
2469.000000	80.352293
2468.000000	80.415701
2467.000000	80.476439
2466.000000	80.530966
2465.000000	80.578735
2464.000000	80.620025
2463.000000	80.654643
2462.000000	80.683787
2461.000000	80.710755
2460.000000	80.738016
2459.000000	80.765325
2458.000000	80.791253
2457.000000	80.814826
2456.000000	80.834748
2455.000000	80.849002
2454.000000	80.857054
2453.000000	80.860875
2452.000000	80.862966
2451.000000	80.864950
2450.000000	80.868875
2449.000000	80.877841
2448.000000	80.893996
2447.000000	80.917389
2446.000000	80.947618
2445.000000	80.984972
2444.000000	81.028522
2443.000000	81.075010
2442.000000	81.120879
2441.000000	81.164132
2440.000000	81.203730
2439.000000	81.238880
2438.000000	81.270178
2437.000000	81.299678
2436.000000	81.328583
2435.000000	81.355722
2434.000000	81.379098
2433.000000	81.397380
2432.000000	81.409111
2431.000000	81.412711
2430.000000	81.408044
2429.000000	81.396999
2428.000000	81.381284
2427.000000	81.360621
2426.000000	81.334182
2425.000000	81.301738
2424.000000	81.263194
2423.000000	81.218878
2422.000000	81.171527
2421.000000	81.126686
2420.000000	81.089933
2419.000000	81.064696
2418.000000	81.052606
2417.000000	81.053538
2416.000000	81.063875
2415.000000	81.076935
2414.000000	81.086477
2413.000000	81.088656
2412.000000	81.080410
2411.000000	81.058747
2410.000000	81.023037
2409.000000	80.976050
2408.000000	80.921519
2407.000000	80.861976
2406.000000	80.800259
2405.000000	80.740414
2404.000000	80.685424
2403.000000	80.635858
2402.000000	80.592048
2401.000000	80.555681
2400.000000	80.527701
2399.000000	80.506624
2398.000000	80.490266
2397.000000	80.477290
2396.000000	80.465486
2395.000000	80.450657
2394.000000	80.428927
2393.000000	80.398982
2392.000000	80.360045
2391.000000	80.310417
2390.000000	80.249860
2389.000000	80.180306
2388.000000	80.104585
2387.000000	80.023308
2386.000000	79.936555
2385.000000	79.846553
2384.000000	79.754174
2383.000000	79.660170
2382.000000	79.568266
2381.000000	79.489300
2380.000000	79.439560
2379.000000	79.433260
2378.000000	79.479233
2377.000000	79.578657
2376.000000	79.716925
2375.000000	79.858790
2374.000000	79.958893
2373.000000	79.976089
2372.000000	79.883339
2371.000000	79.671456
2370.000000	79.349027
2369.000000	78.948957
2368.000000	78.516406
2367.000000	78.090363
2366.000000	77.698116
2365.000000	77.366989
2364.000000	77.133846
2363.000000	76.999174
2362.000000	76.947913
2361.000000	76.988668
2360.000000	77.114356
2359.000000	77.326519
2358.000000	77.603377
2357.000000	77.914813
2356.000000	78.232719
2355.000000	78.474555
2354.000000	78.582444
2353.000000	78.569110
2352.000000	78.540157
2351.000000	78.567530
2350.000000	78.605753
2349.000000	78.624990
2348.000000	78.603315
2347.000000	78.578229
2346.000000	78.602084
2345.000000	78.700340
2344.000000	78.846614
2343.000000	78.936028
2342.000000	78.974393
2341.000000	78.997301
2340.000000	79.015667
2339.000000	79.018132
2338.000000	79.011983
2337.000000	79.021786
2336.000000	79.059933
2335.000000	79.104144
2334.000000	79.137987
2333.000000	79.150082
2332.000000	79.159009
2331.000000	79.194819
2330.000000	79.244353
2329.000000	79.321441
2328.000000	79.397131
2327.000000	79.478524
2326.000000	79.559865
2325.000000	79.627183
2324.000000	79.689359
2323.000000	79.734174
2322.000000	79.794477
2321.000000	79.870295
2320.000000	79.963719
2319.000000	80.048205
2318.000000	80.097383
2317.000000	80.090774
2316.000000	80.014477
2315.000000	79.881793
2314.000000	79.715150
2313.000000	79.549127
2312.000000	79.398097
2311.000000	79.271114
2310.000000	79.164852
2309.000000	79.078060
2308.000000	79.004669
2307.000000	78.938084
2306.000000	78.873817
2305.000000	78.804681
2304.000000	78.728079
2303.000000	78.644103
2302.000000	78.561115
2301.000000	78.487355
2300.000000	78.421960
2299.000000	78.361947
2298.000000	78.302952
2297.000000	78.248420
2296.000000	78.199546
2295.000000	78.162742
2294.000000	78.144433
2293.000000	78.151100
2292.000000	78.183910
2291.000000	78.240270
2290.000000	78.318163
2289.000000	78.413224
2288.000000	78.520051
2287.000000	78.631745
2286.000000	78.744938
2285.000000	78.855008
2284.000000	78.956259
2283.000000	79.043658
2282.000000	79.119571
2281.000000	79.189302
2280.000000	79.255683
2279.000000	79.316949
2278.000000	79.371882
2277.000000	79.421386
2276.000000	79.466265
2275.000000	79.508842
2274.000000	79.553168
2273.000000	79.605433
2272.000000	79.669949
2271.000000	79.749066
2270.000000	79.844133
2269.000000	79.954041
2268.000000	80.074921
2267.000000	80.202582
2266.000000	80.334645
2265.000000	80.470360
2264.000000	80.606879
2263.000000	80.741953
2262.000000	80.875687
2261.000000	81.008217
2260.000000	81.138048
2259.000000	81.261057
2258.000000	81.375420
2257.000000	81.480094
2256.000000	81.574474
2255.000000	81.658962
2254.000000	81.736707
2253.000000	81.812677
2252.000000	81.889846
2251.000000	81.969772
2250.000000	82.053284
2249.000000	82.139528
2248.000000	82.224740
2247.000000	82.304930
2246.000000	82.377921
2245.000000	82.443217
2244.000000	82.500040
2243.000000	82.548200
2242.000000	82.589863
2241.000000	82.628239
2240.000000	82.664796
2239.000000	82.698928
2238.000000	82.729575
2237.000000	82.755053
2236.000000	82.772888
2235.000000	82.781626
2234.000000	82.783091
2233.000000	82.781280
2232.000000	82.780045
2231.000000	82.782984
2230.000000	82.793874
2229.000000	82.814609
2228.000000	82.842981
2227.000000	82.874160
2226.000000	82.903691
2225.000000	82.928024
2224.000000	82.943903
2223.000000	82.950102
2222.000000	82.949243
2221.000000	82.946253
2220.000000	82.945372
2219.000000	82.949872
2218.000000	82.962761
2217.000000	82.985008
2216.000000	83.013566
2215.000000	83.043374
2214.000000	83.071266
2213.000000	83.096711
2212.000000	83.120389
2211.000000	83.144290
2210.000000	83.172329
2209.000000	83.207915
2208.000000	83.250372
2207.000000	83.294787
2206.000000	83.334706
2205.000000	83.364125
2204.000000	83.378700
2203.000000	83.378011
2202.000000	83.366600
2201.000000	83.351303
2200.000000	83.337610
2199.000000	83.328979
2198.000000	83.327516
2197.000000	83.332715
2196.000000	83.340620
2195.000000	83.346860
2194.000000	83.350795
2193.000000	83.355522
2192.000000	83.364942
2191.000000	83.382510
2190.000000	83.411205
2189.000000	83.451797
2188.000000	83.501026
2187.000000	83.553423
2186.000000	83.604579
2185.000000	83.651676
2184.000000	83.692517
2183.000000	83.726521
2182.000000	83.756070
2181.000000	83.784565
2180.000000	83.813420
2179.000000	83.842126
2178.000000	83.870078
2177.000000	83.896409
2176.000000	83.918925
2175.000000	83.935553
2174.000000	83.946386
2173.000000	83.952700
2172.000000	83.954657
2171.000000	83.951737
2170.000000	83.944706
2169.000000	83.935264
2168.000000	83.924418
2167.000000	83.913080
2166.000000	83.903670
2165.000000	83.898882
2164.000000	83.898933
2163.000000	83.901647
2162.000000	83.904777
2161.000000	83.906949
2160.000000	83.907363
2159.000000	83.906765
2158.000000	83.908486
2157.000000	83.916726
2156.000000	83.933679
2155.000000	83.958850
2154.000000	83.989836
2153.000000	84.022175
2152.000000	84.049852
2151.000000	84.068385
2150.000000	84.077718
2149.000000	84.081470
2148.000000	84.084372
2147.000000	84.091328
2146.000000	84.106372
2145.000000	84.129580
2144.000000	84.155605
2143.000000	84.177019
2142.000000	84.188946
2141.000000	84.190351
2140.000000	84.183095
2139.000000	84.171781
2138.000000	84.162951
2137.000000	84.161630
2136.000000	84.168149
2135.000000	84.178745
2134.000000	84.188032
2133.000000	84.189950
2132.000000	84.179031
2131.000000	84.153894
2130.000000	84.119214
2129.000000	84.082750
2128.000000	84.050857
2127.000000	84.027319
2126.000000	84.013848
2125.000000	84.008933
2124.000000	84.007564
2123.000000	84.005088
2122.000000	84.001374
2121.000000	84.000198
2120.000000	84.006050
2119.000000	84.022698
2118.000000	84.052254
2117.000000	84.092624
2116.000000	84.136723
2115.000000	84.176543
2114.000000	84.207743
2113.000000	84.229497
2112.000000	84.242161
2111.000000	84.247465
2110.000000	84.249206
2109.000000	84.250987
2108.000000	84.253682
2107.000000	84.256663
2106.000000	84.260460
2105.000000	84.266282
2104.000000	84.274008
2103.000000	84.282609
2102.000000	84.291222
2101.000000	84.297805
2100.000000	84.297900
2099.000000	84.286883
2098.000000	84.263261
2097.000000	84.228635
2096.000000	84.186263
2095.000000	84.142204
2094.000000	84.105589
2093.000000	84.084137
2092.000000	84.079664
2091.000000	84.089356
2090.000000	84.109913
2089.000000	84.138425
2088.000000	84.171276
2087.000000	84.205773
2086.000000	84.242115
2085.000000	84.281167
2084.000000	84.321228
2083.000000	84.358600
2082.000000	84.389361
2081.000000	84.408928
2080.000000	84.412289
2079.000000	84.397760
2078.000000	84.369921
2077.000000	84.336222
2076.000000	84.301785
2075.000000	84.269129
2074.000000	84.239342
2073.000000	84.210439
2072.000000	84.176023
2071.000000	84.128890
2070.000000	84.067099
2069.000000	83.994383
2068.000000	83.915487
2067.000000	83.833587
2066.000000	83.751565
2065.000000	83.672713
2064.000000	83.598516
2063.000000	83.527409
2062.000000	83.455445
2061.000000	83.377343
2060.000000	83.289258
2059.000000	83.192851
2058.000000	83.095614
2057.000000	83.005175
2056.000000	82.924306
2055.000000	82.852412
2054.000000	82.788982
2053.000000	82.733106
2052.000000	82.681849
2051.000000	82.632354
2050.000000	82.585391
2049.000000	82.544793
2048.000000	82.513305
2047.000000	82.491315
2046.000000	82.479090
2045.000000	82.475954
2044.000000	82.477696
2043.000000	82.479014
2042.000000	82.479338
2041.000000	82.483688
2040.000000	82.497274
2039.000000	82.522314
2038.000000	82.559167
2037.000000	82.606371
2036.000000	82.660187
2035.000000	82.717382
2034.000000	82.778622
2033.000000	82.846617
2032.000000	82.921924
2031.000000	83.003184
2030.000000	83.089030
2029.000000	83.176301
2028.000000	83.258138
2027.000000	83.328315
2026.000000	83.386948
2025.000000	83.439465
2024.000000	83.491264
2023.000000	83.546128
2022.000000	83.608683
2021.000000	83.682019
2020.000000	83.761261
2019.000000	83.834354
2018.000000	83.891869
2017.000000	83.934481
2016.000000	83.971022
2015.000000	84.012614
2014.000000	84.068411
2013.000000	84.142105
2012.000000	84.229632
2011.000000	84.322276
2010.000000	84.412441
2009.000000	84.494436
2008.000000	84.562973
2007.000000	84.616853
2006.000000	84.663089
2005.000000	84.713030
2004.000000	84.773775
2003.000000	84.845275
2002.000000	84.924122
2001.000000	85.004010
2000.000000	85.075541
1999.000000	85.131038
1998.000000	85.169709
1997.000000	85.199391
1996.000000	85.231927
1995.000000	85.274505
1994.000000	85.325351
1993.000000	85.378320
1992.000000	85.431041
1991.000000	85.486631
1990.000000	85.546829
1989.000000	85.607755
1988.000000	85.664720
1987.000000	85.718218
1986.000000	85.773952
1985.000000	85.837229
1984.000000	85.907964
1983.000000	85.981466
1982.000000	86.052510
1981.000000	86.117719
1980.000000	86.177085
1979.000000	86.233325
1978.000000	86.288568
1977.000000	86.344417
1976.000000	86.403685
1975.000000	86.467722
1974.000000	86.532781
1973.000000	86.593437
1972.000000	86.649433
1971.000000	86.704556
1970.000000	86.758847
1969.000000	86.807097
1968.000000	86.845105
1967.000000	86.873902
1966.000000	86.896965
1965.000000	86.915136
1964.000000	86.926091
1963.000000	86.926451
1962.000000	86.914337
1961.000000	86.893858
1960.000000	86.875426
1959.000000	86.867179
1958.000000	86.866806
1957.000000	86.865091
1956.000000	86.856324
1955.000000	86.841469
1954.000000	86.824036
1953.000000	86.809583
1952.000000	86.806509
1951.000000	86.822400
1950.000000	86.858474
1949.000000	86.906851
1948.000000	86.955822
1947.000000	86.996506
1946.000000	87.022150
1945.000000	87.025625
1944.000000	87.003274
1943.000000	86.964019
1942.000000	86.931283
1941.000000	86.927014
1940.000000	86.954975
1939.000000	87.001487
1938.000000	87.044720
1937.000000	87.066230
1936.000000	87.061162
1935.000000	87.036860
1934.000000	87.003957
1933.000000	86.972354
1932.000000	86.949949
1931.000000	86.942686
1930.000000	86.951810
1929.000000	86.968565
1928.000000	86.981721
1927.000000	86.987921
1926.000000	86.990701
1925.000000	86.989524
1924.000000	86.977386
1923.000000	86.958778
1922.000000	86.954026
1921.000000	86.973458
1920.000000	87.003439
1919.000000	87.023217
1918.000000	87.027514
1917.000000	87.026373
1916.000000	87.024545
1915.000000	87.020856
1914.000000	87.017590
1913.000000	87.014912
1912.000000	87.006851
1911.000000	86.990494
1910.000000	86.971805
1909.000000	86.956257
1908.000000	86.944327
1907.000000	86.937882
1906.000000	86.944337
1905.000000	86.965446
1904.000000	86.989528
1903.000000	87.009762
1902.000000	87.033873
1901.000000	87.067583
1900.000000	87.107242
1899.000000	87.151754
1898.000000	87.207392
1897.000000	87.273079
1896.000000	87.332791
1895.000000	87.377077
1894.000000	87.415981
1893.000000	87.457211
1892.000000	87.489986
1891.000000	87.502443
1890.000000	87.503154
1889.000000	87.515719
1888.000000	87.552298
1887.000000	87.607229
1886.000000	87.670505
1885.000000	87.727627
1884.000000	87.761856
1883.000000	87.772662
1882.000000	87.778250
1881.000000	87.792499
1880.000000	87.815944
1879.000000	87.849224
1878.000000	87.899099
1877.000000	87.965464
1876.000000	88.031513
1875.000000	88.080383
1874.000000	88.113258
1873.000000	88.138265
1872.000000	88.153725
1871.000000	88.154924
1870.000000	88.148135
1869.000000	88.151515
1868.000000	88.179060
1867.000000	88.230297
1866.000000	88.299811
1865.000000	88.376116
1864.000000	88.437964
1863.000000	88.473442
1862.000000	88.494855
1861.000000	88.521053
1860.000000	88.554742
1859.000000	88.591748
1858.000000	88.637225
1857.000000	88.694012
1856.000000	88.748734
1855.000000	88.788680
1854.000000	88.817977
1853.000000	88.843090
1852.000000	88.864883
1851.000000	88.887103
1850.000000	88.915742
1849.000000	88.950470
1848.000000	88.983591
1847.000000	89.013595
1846.000000	89.044445
1845.000000	89.072729
1844.000000	89.097666
1843.000000	89.127337
1842.000000	89.161283
1841.000000	89.194972
1840.000000	89.227859
1839.000000	89.256230
1838.000000	89.280858
1837.000000	89.310059
1836.000000	89.349674
1835.000000	89.400342
1834.000000	89.455650
1833.000000	89.501309
1832.000000	89.523996
1831.000000	89.514775
1830.000000	89.485611
1829.000000	89.474370
1828.000000	89.502291
1827.000000	89.556612
1826.000000	89.617250
1825.000000	89.678451
1824.000000	89.743374
1823.000000	89.804766
1822.000000	89.850769
1821.000000	89.881145
1820.000000	89.900642
1819.000000	89.909954
1818.000000	89.918577
1817.000000	89.947270
1816.000000	90.002089
1815.000000	90.064288
1814.000000	90.109744
1813.000000	90.126818
1812.000000	90.110802
1811.000000	90.062594
1810.000000	90.007751
1809.000000	89.979645
1808.000000	89.981224
1807.000000	89.996336
1806.000000	90.023626
1805.000000	90.066536
1804.000000	90.103630
1803.000000	90.101076
1802.000000	90.051842
1801.000000	89.991019
1800.000000	89.958255
1799.000000	89.961942
1798.000000	89.994261
1797.000000	90.042326
1796.000000	90.086636
1795.000000	90.114987
1794.000000	90.126650
1793.000000	90.126154
1792.000000	90.119785
1791.000000	90.112968
1790.000000	90.116093
1789.000000	90.139097
1788.000000	90.173393
1787.000000	90.196831
1786.000000	90.204466
1785.000000	90.213382
1784.000000	90.234632
1783.000000	90.260366
1782.000000	90.274667
1781.000000	90.272829
1780.000000	90.265040
1779.000000	90.262003
1778.000000	90.266674
1777.000000	90.275511
1776.000000	90.291111
1775.000000	90.323091
1774.000000	90.366036
1773.000000	90.408451
1772.000000	90.462988
1771.000000	90.526982
1770.000000	90.568990
1769.000000	90.586497
1768.000000	90.605011
1767.000000	90.638385
1766.000000	90.682946
1765.000000	90.738817
1764.000000	90.810334
1763.000000	90.878382
1762.000000	90.915674
1761.000000	90.930745
1760.000000	90.938551
1759.000000	90.929577
1758.000000	90.894622
1757.000000	90.848200
1756.000000	90.838218
1755.000000	90.883272
1754.000000	90.947408
1753.000000	90.997840
1752.000000	91.026931
1751.000000	91.037624
1750.000000	91.029549
1749.000000	91.006994
1748.000000	91.000927
1747.000000	91.041899
1746.000000	91.113443
1745.000000	91.184429
1744.000000	91.250078
1743.000000	91.310739
1742.000000	91.353620
1741.000000	91.371533
1740.000000	91.377050
1739.000000	91.384183
1738.000000	91.385101
1737.000000	91.380253
1736.000000	91.382565
1735.000000	91.378569
1734.000000	91.387363
1733.000000	91.441297
1732.000000	91.482623
1731.000000	91.472680
1730.000000	91.446232
1729.000000	91.423728
1728.000000	91.414948
1727.000000	91.421345
1726.000000	91.432800
1725.000000	91.438331
1724.000000	91.437589
1723.000000	91.439526
1722.000000	91.454975
1721.000000	91.482244
1720.000000	91.506524
1719.000000	91.492840
1718.000000	91.436221
1717.000000	91.399342
1716.000000	91.390196
1715.000000	91.369742
1714.000000	91.371410
1713.000000	91.429733
1712.000000	91.511102
1711.000000	91.575781
1710.000000	91.626444
1709.000000	91.670391
1708.000000	91.690695
1707.000000	91.670998
1706.000000	91.635202
1705.000000	91.633428
1704.000000	91.664642
1703.000000	91.707757
1702.000000	91.759427
1701.000000	91.817690
1700.000000	91.904119
1699.000000	91.990224
1698.000000	92.021863
1697.000000	92.035263
1696.000000	92.070204
1695.000000	92.120614
1694.000000	92.158726
1693.000000	92.172142
1692.000000	92.199630
1691.000000	92.249817
1690.000000	92.290512
1689.000000	92.301144
1688.000000	92.301505
1687.000000	92.317361
1686.000000	92.323092
1685.000000	92.248586
1684.000000	92.145015
1683.000000	92.143363
1682.000000	92.195050
1681.000000	92.211280
1680.000000	92.205360
1679.000000	92.195668
1678.000000	92.175538
1677.000000	92.111672
1676.000000	92.002414
1675.000000	91.906826
1674.000000	91.858033
1673.000000	91.812803
1672.000000	91.755102
1671.000000	91.705418
1670.000000	91.667860
1669.000000	91.635847
1668.000000	91.607701
1667.000000	91.580190
1666.000000	91.538796
1665.000000	91.463350
1664.000000	91.344587
1663.000000	91.218058
1662.000000	91.129013
1661.000000	91.055778
1660.000000	90.966099
1659.000000	90.869800
1658.000000	90.770913
1657.000000	90.649531
1656.000000	90.502441
1655.000000	90.301352
1654.000000	89.911717
1653.000000	89.399411
1652.000000	88.990954
1651.000000	88.575504
1650.000000	88.025287
1649.000000	87.334451
1648.000000	86.338717
1647.000000	84.911483
1646.000000	83.141145
1645.000000	81.161912
1644.000000	78.927430
1643.000000	76.341360
1642.000000	73.362755
1641.000000	70.070126
1640.000000	66.720652
1639.000000	63.619422
1638.000000	60.930755
1637.000000	58.697343
1636.000000	57.104900
1635.000000	56.492244
1634.000000	56.879514
1633.000000	57.958796
1632.000000	59.467281
1631.000000	61.252539
1630.000000	63.208186
1629.000000	65.248750
1628.000000	67.291504
1627.000000	69.227607
1626.000000	70.984211
1625.000000	72.604932
1624.000000	74.181571
1623.000000	75.714932
1622.000000	77.101208
1621.000000	78.274368
1620.000000	79.290044
1619.000000	80.240993
1618.000000	81.158385
1617.000000	82.023909
1616.000000	82.800915
1615.000000	83.426829
1614.000000	83.882129
1613.000000	84.234537
1612.000000	84.552760
1611.000000	84.841265
1610.000000	85.057487
1609.000000	85.174768
1608.000000	85.194055
1607.000000	85.095447
1606.000000	84.819372
1605.000000	84.309646
1604.000000	83.553670
1603.000000	82.550938
1602.000000	81.309827
1601.000000	79.900162
1600.000000	78.458488
1599.000000	77.119662
1598.000000	75.951097
1597.000000	74.964308
1596.000000	74.150408
1595.000000	73.475799
1594.000000	72.871591
1593.000000	72.274481
1592.000000	71.673188
1591.000000	71.083498
1590.000000	70.499342
1589.000000	69.895604
1588.000000	69.258124
1587.000000	68.568833
1586.000000	67.781798
1585.000000	66.857081
1584.000000	65.817548
1583.000000	64.721056
1582.000000	63.588128
1581.000000	62.424351
1580.000000	61.268884
1579.000000	60.116737
1578.000000	58.790614
1577.000000	57.004492
1576.000000	54.772816
1575.000000	52.570738
1574.000000	50.755783
1573.000000	49.263743
1572.000000	47.913433
1571.000000	46.611683
1570.000000	45.403705
1569.000000	44.441272
1568.000000	43.865939
1567.000000	43.706149
1566.000000	43.866179
1565.000000	44.205750
1564.000000	44.671703
1563.000000	45.308340
1562.000000	46.152067
1561.000000	47.178246
1560.000000	48.380943
1559.000000	49.822438
1558.000000	51.383482
1557.000000	52.749184
1556.000000	53.852847
1555.000000	54.852011
1554.000000	55.779863
1553.000000	56.576574
1552.000000	57.235487
1551.000000	57.853074
1550.000000	58.522401
1549.000000	59.275476
1548.000000	60.121873
1547.000000	61.093959
1546.000000	62.200243
1545.000000	63.368405
1544.000000	64.505113
1543.000000	65.588554
1542.000000	66.655222
1541.000000	67.721420
1540.000000	68.784293
1539.000000	69.832768
1538.000000	70.768377
1537.000000	71.526725
1536.000000	72.200636
1535.000000	72.905619
1534.000000	73.664388
1533.000000	74.418799
1532.000000	75.114535
1531.000000	75.744149
1530.000000	76.335499
1529.000000	76.901387
1528.000000	77.437960
1527.000000	77.957754
1526.000000	78.467637
1525.000000	78.947450
1524.000000	79.385275
1523.000000	79.792892
1522.000000	80.163566
1521.000000	80.481126
1520.000000	80.754390
1519.000000	81.006537
1518.000000	81.265348
1517.000000	81.541630
1516.000000	81.834477
1515.000000	82.143905
1514.000000	82.448869
1513.000000	82.729163
1512.000000	82.976060
1511.000000	83.192477
1510.000000	83.386079
1509.000000	83.560129
1508.000000	83.696642
1507.000000	83.832323
1506.000000	84.121906
1505.000000	84.522345
1504.000000	84.833198
1503.000000	85.047371
1502.000000	85.227728
1501.000000	85.387439
1500.000000	85.529639
1499.000000	85.673175
1498.000000	85.825226
1497.000000	85.990017
1496.000000	86.182445
1495.000000	86.389365
1494.000000	86.571279
1493.000000	86.713290
1492.000000	86.827423
1491.000000	86.915239
1490.000000	86.970332
1489.000000	87.013448
1488.000000	87.071890
1487.000000	87.147997
1486.000000	87.224080
1485.000000	87.255540
1484.000000	87.213983
1483.000000	87.091232
1482.000000	86.853760
1481.000000	86.465874
1480.000000	85.923265
1479.000000	85.202161
1478.000000	84.198219
1477.000000	82.817759
1476.000000	81.102703
1475.000000	79.165162
1474.000000	77.018889
1473.000000	74.693895
1472.000000	72.496824
1471.000000	70.787055
1470.000000	69.618119
1469.000000	68.868979
1468.000000	68.481878
1467.000000	68.488482
1466.000000	68.949799
1465.000000	69.855401
1464.000000	71.033735
1463.000000	72.184682
1462.000000	73.063323
1461.000000	73.575432
1460.000000	73.700346
1459.000000	73.392646
1458.000000	72.564438
1457.000000	71.368273
1456.000000	70.303984
1455.000000	69.658086
1454.000000	69.318032
1453.000000	69.134143
1452.000000	69.031746
1451.000000	68.984192
1450.000000	68.998274
1449.000000	69.116070
1448.000000	69.377288
1447.000000	69.771392
1446.000000	70.248463
1445.000000	70.781478
1444.000000	71.386865
1443.000000	72.077994
1442.000000	72.859547
1441.000000	73.747769
1440.000000	74.763807
1439.000000	75.914302
1438.000000	77.191716
1437.000000	78.550152
1436.000000	79.853820
1435.000000	80.934428
1434.000000	81.753519
1433.000000	82.408190
1432.000000	82.973903
1431.000000	83.456705
1430.000000	83.859304
1429.000000	84.219320
1428.000000	84.559965
1427.000000	84.869257
1426.000000	85.130288
1425.000000	85.341322
1424.000000	85.530977
1423.000000	85.730947
1422.000000	85.952247
1421.000000	86.182995
1420.000000	86.391682
1419.000000	86.550506
1418.000000	86.670280
1417.000000	86.790341
1416.000000	86.932547
1415.000000	87.092041
1414.000000	87.252054
1413.000000	87.411930
1412.000000	87.585110
1411.000000	87.770275
1410.000000	87.948942
1409.000000	88.111271
1408.000000	88.248734
1407.000000	88.345143
1406.000000	88.393932
1405.000000	88.416812
1404.000000	88.456598
1403.000000	88.522052
1402.000000	88.564822
1401.000000	88.504866
1400.000000	88.268573
1399.000000	87.858104
1398.000000	87.389619
1397.000000	87.019033
1396.000000	86.848627
1395.000000	86.901488
1394.000000	87.113636
1393.000000	87.381462
1392.000000	87.649455
1391.000000	87.924249
1390.000000	88.223600
1389.000000	88.538874
1388.000000	88.845146
1387.000000	89.134711
1386.000000	89.422036
1385.000000	89.713071
1384.000000	89.997024
1383.000000	90.253984
1382.000000	90.466931
1381.000000	90.625578
1380.000000	90.716935
1379.000000	90.729472
1378.000000	90.658329
1377.000000	90.478623
1376.000000	90.087818
1375.000000	89.274574
1374.000000	87.756473
1373.000000	85.309457
1372.000000	81.924811
1371.000000	77.934135
1370.000000	74.051210
1369.000000	71.207154
1368.000000	70.098886
1367.000000	70.711841
1366.000000	72.358912
1365.000000	74.156264
1364.000000	75.390245
1363.000000	75.670670
1362.000000	75.048856
1361.000000	74.039165
1360.000000	73.382249
1359.000000	73.676595
1358.000000	75.099157
1357.000000	77.340590
1356.000000	79.828819
1355.000000	82.070885
1354.000000	83.849050
1353.000000	85.187295
1352.000000	86.197786
1351.000000	86.984540
1350.000000	87.625576
1349.000000	88.165016
1348.000000	88.618647
1347.000000	88.992206
1346.000000	89.296716
1345.000000	89.544975
1344.000000	89.752552
1343.000000	89.940246
1342.000000	90.130156
1341.000000	90.329848
1340.000000	90.528995
1339.000000	90.716667
1338.000000	90.885921
1337.000000	91.024512
1336.000000	91.116168
1335.000000	91.152666
1334.000000	91.133895
1333.000000	91.040663
1332.000000	90.813479
1331.000000	90.363665
1330.000000	89.606548
1329.000000	88.494506
1328.000000	87.011397
1327.000000	85.146526
1326.000000	82.906140
1325.000000	80.409340
1324.000000	78.008630
1323.000000	76.221810
1322.000000	75.423586
1321.000000	75.577017
1320.000000	76.289605
1319.000000	77.120332
1318.000000	77.840901
1317.000000	78.445314
1316.000000	79.002578
1315.000000	79.564308
1314.000000	80.169993
1313.000000	80.875807
1312.000000	81.736879
1311.000000	82.755293
1310.000000	83.851754
1309.000000	84.893485
1308.000000	85.754198
1307.000000	86.363448
1306.000000	86.713175
1305.000000	86.816232
1304.000000	86.673623
1303.000000	86.267922
1302.000000	85.577532
1301.000000	84.615004
1300.000000	83.475312
1299.000000	82.353496
1298.000000	81.477938
1297.000000	80.985908
1296.000000	80.845025
1295.000000	80.875853
1294.000000	80.841790
1293.000000	80.537054
1292.000000	79.836709
1291.000000	78.702781
1290.000000	77.148125
1289.000000	75.216861
1288.000000	73.037434
1287.000000	70.896054
1286.000000	69.192220
1285.000000	68.255720
1284.000000	68.180959
1283.000000	68.826369
1282.000000	69.971217
1281.000000	71.452929
1280.000000	73.160302
1279.000000	74.927089
1278.000000	76.491127
1277.000000	77.597896
1276.000000	78.131823
1275.000000	78.151392
1274.000000	77.839403
1273.000000	77.448542
1272.000000	77.259498
1271.000000	77.511825
1270.000000	78.306993
1269.000000	79.559597
1268.000000	81.050023
1267.000000	82.538507
1266.000000	83.857207
1265.000000	84.940880
1264.000000	85.805518
1263.000000	86.506116
1262.000000	87.100751
1261.000000	87.632257
1260.000000	88.121833
1259.000000	88.568683
1258.000000	88.959768
1257.000000	89.279576
1256.000000	89.521367
1255.000000	89.696247
1254.000000	89.831412
1253.000000	89.960010
1252.000000	90.106281
1251.000000	90.278462
1250.000000	90.469143
1249.000000	90.658814
1248.000000	90.825464
1247.000000	90.956258
1246.000000	91.053466
1245.000000	91.131290
1244.000000	91.206792
1243.000000	91.292151
1242.000000	91.389354
1241.000000	91.488220
1240.000000	91.570872
1239.000000	91.621614
1238.000000	91.636131
1237.000000	91.621363
1236.000000	91.588895
1235.000000	91.549298
1234.000000	91.506238
1233.000000	91.452942
1232.000000	91.374509
1231.000000	91.256600
1230.000000	91.094807
1229.000000	90.893208
1228.000000	90.657406
1227.000000	90.386539
1226.000000	90.065010
1225.000000	89.660463
1224.000000	89.122587
1223.000000	88.395179
1222.000000	87.431242
1221.000000	86.200918
1220.000000	84.705939
1219.000000	82.980776
1218.000000	81.084134
1217.000000	79.087254
1216.000000	77.070470
1215.000000	75.129529
1214.000000	73.377783
1213.000000	71.938872
1212.000000	70.928329
1211.000000	70.421195
1210.000000	70.400079
1209.000000	70.749612
1208.000000	71.297215
1207.000000	71.856207
1206.000000	72.261673
1205.000000	72.392511
1204.000000	72.187023
1203.000000	71.646906
1202.000000	70.836504
1201.000000	69.887783
1200.000000	68.997714
1199.000000	68.388429
1198.000000	68.230463
1197.000000	68.578402
1196.000000	69.373283
1195.000000	70.484076
1194.000000	71.764605
1193.000000	73.104998
1192.000000	74.446413
1191.000000	75.770296
1190.000000	77.069117
1189.000000	78.329958
1188.000000	79.532681
1187.000000	80.651179
1186.000000	81.658083
1185.000000	82.538707
1184.000000	83.298569
1183.000000	83.950897
1182.000000	84.506635
1181.000000	84.971833
1180.000000	85.357042
1179.000000	85.681235
1178.000000	85.958477
1177.000000	86.191474
1176.000000	86.372479
1175.000000	86.491895
1174.000000	86.543135
1173.000000	86.512008
1172.000000	86.371957
1171.000000	86.080007
1170.000000	85.581242
1169.000000	84.824361
1168.000000	83.777661
1167.000000	82.458496
1166.000000	80.954476
1165.000000	79.425892
1164.000000	78.080874
1163.000000	77.121443
1162.000000	76.670606
1161.000000	76.734639
1160.000000	77.222764
1159.000000	77.988508
1158.000000	78.884597
1157.000000	79.795428
1156.000000	80.648629
1155.000000	81.406051
1154.000000	82.042456
1153.000000	82.533685
1152.000000	82.856759
1151.000000	82.995945
1150.000000	82.944981
1149.000000	82.714335
1148.000000	82.316453
1147.000000	81.749007
1146.000000	80.981109
1145.000000	79.939252
1144.000000	78.527888
1143.000000	76.648994
1142.000000	74.244843
1141.000000	71.356449
1140.000000	68.153187
1139.000000	64.906808
1138.000000	61.880517
1137.000000	59.210901
1136.000000	56.869344
1135.000000	54.732641
1134.000000	52.710258
1133.000000	50.888649
1132.000000	49.581523
1131.000000	49.195841
1130.000000	50.022738
1129.000000	52.054559
1128.000000	54.979024
1127.000000	58.297379
1126.000000	61.467454
1125.000000	64.027641
1124.000000	65.654205
1123.000000	66.166006
1122.000000	65.517783
1121.000000	63.805918
1120.000000	61.216358
1119.000000	58.000050
1118.000000	54.510428
1117.000000	51.275960
1116.000000	48.973283
1115.000000	48.202729
1114.000000	49.173863
1113.000000	51.569639
1112.000000	54.693172
1111.000000	57.728185
1110.000000	60.031447
1109.000000	61.359659
1108.000000	61.933922
1107.000000	62.267773
1106.000000	62.835401
1105.000000	63.814477
1104.000000	65.059191
1103.000000	66.234123
1102.000000	66.941877
1101.000000	66.851918
1100.000000	65.847461
1099.000000	64.167795
1098.000000	62.418455
1097.000000	61.353753
1096.000000	61.520372
1095.000000	62.993733
1094.000000	65.384149
1093.000000	68.099658
1092.000000	70.663148
1091.000000	72.841308
1090.000000	74.598207
1089.000000	75.992314
1088.000000	77.107648
1087.000000	78.026490
1086.000000	78.820350
1085.000000	79.541697
1084.000000	80.217428
1083.000000	80.855558
1082.000000	81.443474
1081.000000	81.957821
1080.000000	82.378838
1079.000000	82.697078
1078.000000	82.917594
1077.000000	83.046527
1076.000000	83.079222
1075.000000	82.991485
1074.000000	82.724794
1073.000000	82.195644
1072.000000	81.284005
1071.000000	79.832937
1070.000000	77.654536
1069.000000	74.519083
1068.000000	70.231050
1067.000000	64.761020
1066.000000	58.431507
1065.000000	52.009163
1064.000000	46.526169
1063.000000	42.806866
1062.000000	40.960670
1061.000000	40.261425
1060.000000	39.588111
1059.000000	38.170949
1058.000000	36.062994
1057.000000	34.095509
1056.000000	33.348056
1055.000000	34.467437
1054.000000	37.365057
1053.000000	41.384402
1052.000000	45.749197
1051.000000	49.908850
1050.000000	53.598032
1049.000000	56.771605
1048.000000	59.503572
1047.000000	61.899729
1046.000000	64.027312
1045.000000	65.908262
1044.000000	67.541616
1043.000000	68.935652
1042.000000	70.114725
1041.000000	71.108298
1040.000000	71.958244
1039.000000	72.705367
1038.000000	73.374090
1037.000000	73.968896
1036.000000	74.482837
1035.000000	74.913615
1034.000000	75.261454
1033.000000	75.530589
1032.000000	75.738110
1031.000000	75.911330
1030.000000	76.075635
1029.000000	76.242012
1028.000000	76.408481
1027.000000	76.565762
1026.000000	76.695068
1025.000000	76.772927
1024.000000	76.781009
1023.000000	76.710706
1022.000000	76.558514
1021.000000	76.314049
1020.000000	75.962187
1019.000000	75.481290
1018.000000	74.834904
1017.000000	73.975992
1016.000000	72.854948
1015.000000	71.448055
1014.000000	69.786236
1013.000000	67.981612
1012.000000	66.231275
1011.000000	64.756971
1010.000000	63.689413
1009.000000	62.976929
1008.000000	62.418758
1007.000000	61.822404
1006.000000	61.201251
1005.000000	60.833142
1004.000000	61.102808
1003.000000	62.223725
1002.000000	64.052759
1001.000000	66.177053
1000.000000	68.151297
999.000000	69.679982
998.000000	70.650832
997.000000	71.082070
996.000000	71.078948
995.000000	70.815687
994.000000	70.517554
993.000000	70.418151
992.000000	70.698480
991.000000	71.417232
990.000000	72.481945
989.000000	73.706091
988.000000	74.919787
987.000000	76.032556
986.000000	77.024836
985.000000	77.906811
984.000000	78.690831
983.000000	79.382384
982.000000	79.980246
981.000000	80.482780
980.000000	80.899997
979.000000	81.259467
978.000000	81.590275
977.000000	81.910527
976.000000	82.226743
975.000000	82.537334
974.000000	82.834018
973.000000	83.103104
972.000000	83.336405
971.000000	83.538595
970.000000	83.721266
969.000000	83.894591
968.000000	84.066081
967.000000	84.242511
966.000000	84.426342
965.000000	84.612409
964.000000	84.793553
963.000000	84.966699
962.000000	85.131545
961.000000	85.286712
960.000000	85.431111
959.000000	85.566979
958.000000	85.697224
957.000000	85.822711
956.000000	85.945950
955.000000	86.074640
954.000000	86.216829
953.000000	86.373232
952.000000	86.536822
951.000000	86.697958
950.000000	86.846511
949.000000	86.972845
948.000000	87.073209
947.000000	87.155919
946.000000	87.239041
945.000000	87.340473
944.000000	87.470008
943.000000	87.625769
942.000000	87.792860
941.000000	87.947418
940.000000	88.067863
939.000000	88.147108
938.000000	88.195720
937.000000	88.235481
936.000000	88.290665
935.000000	88.379821
934.000000	88.506893
933.000000	88.656556
932.000000	88.801384
931.000000	88.917282
930.000000	88.993891
929.000000	89.036046
928.000000	89.061036
927.000000	89.093482
926.000000	89.155025
925.000000	89.252259
924.000000	89.373102
923.000000	89.494804
922.000000	89.595646
921.000000	89.663075
920.000000	89.698070
919.000000	89.715979
918.000000	89.739740
917.000000	89.786788
916.000000	89.860356
915.000000	89.950140
914.000000	90.038185
913.000000	90.105861
912.000000	90.140555
911.000000	90.141900
910.000000	90.118033
909.000000	90.069438
908.000000	89.975649
907.000000	89.791550
906.000000	89.459247
905.000000	88.921229
904.000000	88.144291
903.000000	87.164014
902.000000	86.124726
901.000000	85.265240
900.000000	84.827150
899.000000	84.927927
898.000000	85.491004
897.000000	86.302998
896.000000	87.137671
895.000000	87.853634
894.000000	88.415368
893.000000	88.850550
892.000000	89.206559
891.000000	89.521976
890.000000	89.813528
889.000000	90.071926
888.000000	90.273987
887.000000	90.391902
886.000000	90.395705
885.000000	90.255033
884.000000	89.954422
883.000000	89.525994
882.000000	89.053947
881.000000	88.627568
880.000000	88.271104
879.000000	87.923858
878.000000	87.511201
877.000000	87.050476
876.000000	86.689013
875.000000	86.615120
874.000000	86.922220
873.000000	87.542849
872.000000	88.302579
871.000000	89.025657
870.000000	89.604546
869.000000	90.010190
868.000000	90.267804
867.000000	90.431892
866.000000	90.562132
865.000000	90.703606
864.000000	90.874548
863.000000	91.067256
862.000000	91.254104
861.000000	91.398866
860.000000	91.476420
859.000000	91.489064
858.000000	91.467708
857.000000	91.455515
856.000000	91.487143
855.000000	91.576131
854.000000	91.709924
853.000000	91.853358
852.000000	91.963413
851.000000	92.011030
850.000000	91.995908
849.000000	91.945513
848.000000	91.902119
847.000000	91.904657
846.000000	91.970370
845.000000	92.085714
844.000000	92.213751
843.000000	92.314397
842.000000	92.363140
841.000000	92.358254
840.000000	92.319133
839.000000	92.279765
838.000000	92.274604
837.000000	92.320655
836.000000	92.408693
835.000000	92.510551
834.000000	92.594461
833.000000	92.639521
832.000000	92.644709
831.000000	92.629855
830.000000	92.624727
829.000000	92.651554
828.000000	92.714037
827.000000	92.799952
826.000000	92.888994
825.000000	92.959903
824.000000	92.999994
823.000000	93.015668
822.000000	93.029910
821.000000	93.063917
820.000000	93.120727
819.000000	93.185724
818.000000	93.237049
817.000000	93.254584
816.000000	93.226909
815.000000	93.160003
814.000000	93.078284
813.000000	93.009096
812.000000	92.962729
811.000000	92.923331
810.000000	92.854289
809.000000	92.711408
808.000000	92.456905
807.000000	92.074668
806.000000	91.572191
805.000000	90.965611
804.000000	90.261284
803.000000	89.440803
802.000000	88.460452
801.000000	87.253712
800.000000	85.749855
799.000000	83.910538
798.000000	81.752098
797.000000	79.348433
796.000000	76.810708
795.000000	74.265942
794.000000	71.837817
793.000000	69.637206
792.000000	67.762702
791.000000	66.300515
790.000000	65.318471
789.000000	64.848023
788.000000	64.881560
787.000000	65.366796
786.000000	66.213392
785.000000	67.308062
784.000000	68.523169
783.000000	69.729653
782.000000	70.806142
781.000000	71.655509
780.000000	72.217865
779.000000	72.481817
778.000000	72.484697
777.000000	72.295187
776.000000	71.981534
775.000000	71.587601
774.000000	71.142713
773.000000	70.692139
772.000000	70.323708
771.000000	70.159198
770.000000	70.316762
769.000000	70.861457
768.000000	71.777809
767.000000	72.977098
766.000000	74.334664
765.000000	75.733459
764.000000	77.085683
763.000000	78.341095
762.000000	79.486041
761.000000	80.532853
760.000000	81.498826
759.000000	82.392350
758.000000	83.213459
757.000000	83.956935
756.000000	84.613989
755.000000	85.180123
754.000000	85.670552
753.000000	86.120130
752.000000	86.563885
751.000000	87.019065
750.000000	87.481401
749.000000	87.928469
748.000000	88.322930
747.000000	88.626770
746.000000	88.826282
745.000000	88.944042
744.000000	89.026745
743.000000	89.124498
742.000000	89.275077
741.000000	89.488645
740.000000	89.734854
739.000000	89.952875
738.000000	90.084845
737.000000	90.103122
736.000000	90.014350
735.000000	89.853695
734.000000	89.677365
733.000000	89.540986
732.000000	89.469027
731.000000	89.445641
730.000000	89.434573
729.000000	89.398442
728.000000	89.304593
727.000000	89.133862
726.000000	88.891752
725.000000	88.600339
724.000000	88.266491
723.000000	87.861356
722.000000	87.331139
721.000000	86.621093
720.000000	85.688213
719.000000	84.514116
718.000000	83.133763
717.000000	81.659200
716.000000	80.263973
715.000000	79.131812
714.000000	78.406477
713.000000	78.156032
712.000000	78.355999
711.000000	78.907009
710.000000	79.689649
709.000000	80.609239
708.000000	81.596370
707.000000	82.592501
706.000000	83.550651
705.000000	84.439718
704.000000	85.232683
703.000000	85.905680
702.000000	86.463438
701.000000	86.949078
700.000000	87.411355
699.000000	87.876442
698.000000	88.351006
697.000000	88.826291
696.000000	89.262672
695.000000	89.595507
694.000000	89.789842
693.000000	89.874942
692.000000	89.911601
691.000000	89.953074
690.000000	90.047188
689.000000	90.236423
688.000000	90.512778
687.000000	90.794714
686.000000	90.991742
685.000000	91.068428
684.000000	91.030699
683.000000	90.902333
682.000000	90.751040
681.000000	90.682470
680.000000	90.754873
679.000000	90.928778
678.000000	91.140512
677.000000	91.337130
676.000000	91.428016
675.000000	91.401878
674.000000	91.310800
673.000000	91.220103
672.000000	91.332986
671.000000	92.037488
670.000000	93.516205
669.000000	95.324827
668.000000	96.718509
667.000000	96.757295
666.000000	95.099616
665.000000	93.130027
664.000000	91.932096
663.000000	91.475178
662.000000	91.357117
661.000000	91.336060
660.000000	91.366950
659.000000	91.420748
658.000000	91.454640
657.000000	91.454085
656.000000	91.405760
655.000000	91.358768
654.000000	91.354408
653.000000	91.352396
652.000000	91.313162
651.000000	91.261931
650.000000	91.226778
649.000000	91.190251
648.000000	91.149135
647.000000	91.146730
646.000000	91.199337
645.000000	91.258422
644.000000	91.279229
643.000000	91.261692
642.000000	91.201888
641.000000	91.068224
640.000000	90.868777
639.000000	90.682165
638.000000	90.577432
637.000000	90.549200
636.000000	90.560801
635.000000	90.587619
634.000000	90.584966
633.000000	90.480691
632.000000	90.247351
631.000000	89.942967
630.000000	89.648326
629.000000	89.403577
628.000000	89.228495
627.000000	89.142442
626.000000	89.115713
625.000000	89.056169
624.000000	88.886892
623.000000	88.604099
622.000000	88.238661
621.000000	87.812254
620.000000	87.366093
619.000000	86.974539
618.000000	86.681439
617.000000	86.446956
616.000000	86.192350
615.000000	85.863123
614.000000	85.421175
613.000000	84.833014
612.000000	84.111082
611.000000	83.325675
610.000000	82.535530
609.000000	81.736836
608.000000	80.906282
607.000000	80.039736
606.000000	79.108308
605.000000	78.040294
604.000000	76.793032
603.000000	75.401810
602.000000	73.915088
601.000000	72.339630
600.000000	70.691158
599.000000	69.036973
598.000000	67.425131
597.000000	65.829993
596.000000	64.227178
595.000000	62.654366
594.000000	61.144596
593.000000	59.668859
592.000000	58.221487
591.000000	56.881051
590.000000	55.711847
589.000000	54.678200
588.000000	53.720952
587.000000	52.831607
586.000000	51.976811
585.000000	51.046962
584.000000	49.968063
583.000000	48.795534
582.000000	47.631786
581.000000	46.546400
580.000000	45.640183
579.000000	45.091133
578.000000	45.019942
577.000000	45.397432
576.000000	46.131203
575.000000	47.127462
574.000000	48.227285
573.000000	49.206652
572.000000	49.948387
571.000000	50.547520
570.000000	51.196901
569.000000	52.027464
568.000000	53.088077
567.000000	54.365192
566.000000	55.742669
565.000000	57.034572
564.000000	58.131007
563.000000	59.057624
562.000000	59.868102
561.000000	60.565968
560.000000	61.168584
559.000000	61.749828
558.000000	62.358939
557.000000	62.971283
556.000000	63.562567
555.000000	64.164298
554.000000	64.793220
553.000000	65.404932
552.000000	65.967585
551.000000	66.512788
550.000000	67.067432
549.000000	67.602039
548.000000	68.096488
547.000000	68.588095
546.000000	69.105619
545.000000	69.615753
544.000000	70.083633
543.000000	70.523702
542.000000	70.951500
541.000000	71.345006
540.000000	71.698466
539.000000	72.053501
538.000000	72.434013
537.000000	72.805717
536.000000	73.135577
535.000000	73.439324
534.000000	73.725886
533.000000	73.964111
532.000000	74.131668
531.000000	74.254656
530.000000	74.360411
529.000000	74.432856
528.000000	74.442926
527.000000	74.390652
526.000000	74.264567
525.000000	74.008090
524.000000	73.581770
523.000000	73.015081
522.000000	72.380117
521.000000	71.747643
520.000000	71.179855
519.000000	70.692280
518.000000	70.161225
517.000000	69.336924
516.000000	68.018372
515.000000	66.208953
514.000000	64.098143
513.000000	61.975428
512.000000	60.180695
511.000000	59.038380
510.000000	58.715154
509.000000	59.162353
508.000000	60.233710
507.000000	61.764487
506.000000	63.533446
505.000000	65.291899
504.000000	66.895339
503.000000	68.346107
502.000000	69.676597
501.000000	70.882461
500.000000	71.976691
499.000000	73.019154
498.000000	74.031859
497.000000	74.957210
496.000000	75.730948
495.000000	76.348362
494.000000	76.844593
493.000000	77.252919
492.000000	77.627005
491.000000	78.053572
490.000000	78.577274
489.000000	79.158540
488.000000	79.718819
487.000000	80.200773
486.000000	80.565408
485.000000	80.786636
484.000000	80.896651
483.000000	80.994631
482.000000	81.161435
481.000000	81.395443
480.000000	81.662965
479.000000	81.952193
478.000000	82.219762
477.000000	82.368480
476.000000	82.333436
475.000000	82.128544
474.000000	81.759130
473.000000	81.163664
472.000000	80.319480
471.000000	79.353754
470.000000	78.436895
469.000000	77.671597
468.000000	77.144086
467.000000	76.922190
466.000000	76.894048
465.000000	76.745701
464.000000	76.197030
463.000000	75.237452
462.000000	74.146186
461.000000	73.316558
460.000000	73.115307
459.000000	73.785488
458.000000	75.264599
457.000000	77.105141
456.000000	78.802814
455.000000	80.157864
454.000000	81.171572
453.000000	81.840923
452.000000	82.195651
451.000000	82.385822
450.000000	82.535446
449.000000	82.613989
448.000000	82.517962
447.000000	82.179100
446.000000	81.558165
445.000000	80.658859
444.000000	79.641035
443.000000	78.833862
442.000000	78.512701
441.000000	78.699330
440.000000	79.280264
439.000000	80.149074
438.000000	81.145698
437.000000	82.017758
436.000000	82.575074
435.000000	82.821660
434.000000	82.851991
433.000000	82.727866
432.000000	82.543453
431.000000	82.469844
430.000000	82.604996
429.000000	82.846813
428.000000	83.030346
427.000000	83.090952
426.000000	83.007053
425.000000	82.716644
424.000000	82.245062
423.000000	81.811444
422.000000	81.594490
421.000000	81.523412
420.000000	81.458984
419.000000	81.458613
418.000000	81.621764
417.000000	81.784268
416.000000	81.797606
415.000000	81.756250
414.000000	81.763673
413.000000	81.758505
412.000000	81.696810
411.000000	81.710400
410.000000	81.918279
409.000000	82.197757
408.000000	82.391519
407.000000	82.563642
406.000000	82.801898
405.000000	82.963795
404.000000	82.920638
403.000000	82.831419
402.000000	82.910016
401.000000	83.103467
400.000000	83.245265
