PE IR       SUBTECH     SPECTRUM    ASCII       PEDS        4.00        
   -1
23ms182-cis.asc
24/10/17
15:10:25.00
24/10/17
15:10:25.00
Administrator
Sample 1286 By Administrator Date Thursday, October 17 2024
400.000000
#HDR
-1
-1
#GR
cm-1
%T
1.0
0.0
4000.000000
-1.000000
3601
8
85.932626
6.259654
#DATA
4000.000000	54.221965
3999.000000	54.189149
3998.000000	54.160078
3997.000000	54.134245
3996.000000	54.110011
3995.000000	54.085884
3994.000000	54.061604
3993.000000	54.037530
3992.000000	54.013266
3991.000000	53.987535
3990.000000	53.959461
3989.000000	53.929337
3988.000000	53.897657
3987.000000	53.864189
3986.000000	53.828569
3985.000000	53.790959
3984.000000	53.751598
3983.000000	53.710100
3982.000000	53.666280
3981.000000	53.621641
3980.000000	53.579744
3979.000000	53.545017
3978.000000	53.521201
3977.000000	53.510578
3976.000000	53.514504
3975.000000	53.533573
3974.000000	53.567106
3973.000000	53.613712
3972.000000	53.671431
3971.000000	53.737642
3970.000000	53.808698
3969.000000	53.880734
3968.000000	53.950459
3967.000000	54.015219
3966.000000	54.073079
3965.000000	54.122763
3964.000000	54.163571
3963.000000	54.195089
3962.000000	54.217821
3961.000000	54.234032
3960.000000	54.247196
3959.000000	54.260385
3958.000000	54.274999
3957.000000	54.292971
3956.000000	54.317714
3955.000000	54.352448
3954.000000	54.398732
3953.000000	54.455685
3952.000000	54.521487
3951.000000	54.594348
3950.000000	54.673664
3949.000000	54.759585
3948.000000	54.851248
3947.000000	54.947901
3946.000000	55.049248
3945.000000	55.152499
3944.000000	55.250380
3943.000000	55.335815
3942.000000	55.410543
3941.000000	55.483419
3940.000000	55.559438
3939.000000	55.635542
3938.000000	55.704704
3937.000000	55.765100
3936.000000	55.822496
3935.000000	55.882067
3934.000000	55.943044
3933.000000	55.999936
3932.000000	56.049971
3931.000000	56.093550
3930.000000	56.129906
3929.000000	56.159821
3928.000000	56.187487
3927.000000	56.217825
3926.000000	56.247948
3925.000000	56.269639
3924.000000	56.284382
3923.000000	56.302387
3922.000000	56.326824
3921.000000	56.351545
3920.000000	56.373022
3919.000000	56.397525
3918.000000	56.430309
3917.000000	56.468034
3916.000000	56.506359
3915.000000	56.546681
3914.000000	56.592055
3913.000000	56.642473
3912.000000	56.695930
3911.000000	56.754522
3910.000000	56.818618
3909.000000	56.886974
3908.000000	56.958368
3907.000000	57.029043
3906.000000	57.091705
3905.000000	57.135973
3904.000000	57.164209
3903.000000	57.195608
3902.000000	57.244619
3901.000000	57.306131
3900.000000	57.361669
3899.000000	57.401355
3898.000000	57.434301
3897.000000	57.471538
3896.000000	57.512836
3895.000000	57.555924
3894.000000	57.599715
3893.000000	57.644288
3892.000000	57.680818
3891.000000	57.700119
3890.000000	57.708281
3889.000000	57.724540
3888.000000	57.762354
3887.000000	57.810052
3886.000000	57.841335
3885.000000	57.854211
3884.000000	57.871604
3883.000000	57.904728
3882.000000	57.937167
3881.000000	57.946464
3880.000000	57.934484
3879.000000	57.925805
3878.000000	57.939009
3877.000000	57.973671
3876.000000	58.012806
3875.000000	58.032833
3874.000000	58.029159
3873.000000	58.029280
3872.000000	58.060545
3871.000000	58.107296
3870.000000	58.131139
3869.000000	58.134511
3868.000000	58.151616
3867.000000	58.195323
3866.000000	58.239839
3865.000000	58.256623
3864.000000	58.255865
3863.000000	58.266450
3862.000000	58.292236
3861.000000	58.325858
3860.000000	58.362674
3859.000000	58.403997
3858.000000	58.455423
3857.000000	58.522580
3856.000000	58.599037
3855.000000	58.644031
3854.000000	58.630820
3853.000000	58.609369
3852.000000	58.622849
3851.000000	58.645468
3850.000000	58.646242
3849.000000	58.628192
3848.000000	58.611386
3847.000000	58.615493
3846.000000	58.642402
3845.000000	58.681090
3844.000000	58.718282
3843.000000	58.745022
3842.000000	58.765831
3841.000000	58.795199
3840.000000	58.826851
3839.000000	58.845305
3838.000000	58.852839
3837.000000	58.860871
3836.000000	58.872727
3835.000000	58.884594
3834.000000	58.898080
3833.000000	58.915667
3832.000000	58.932743
3831.000000	58.949954
3830.000000	58.975840
3829.000000	59.014588
3828.000000	59.057965
3827.000000	59.089966
3826.000000	59.102026
3825.000000	59.111630
3824.000000	59.142517
3823.000000	59.193157
3822.000000	59.231560
3821.000000	59.235902
3820.000000	59.230873
3819.000000	59.251788
3818.000000	59.302420
3817.000000	59.349167
3816.000000	59.363612
3815.000000	59.365945
3814.000000	59.391352
3813.000000	59.433544
3812.000000	59.462033
3811.000000	59.471867
3810.000000	59.489211
3809.000000	59.534973
3808.000000	59.595578
3807.000000	59.640265
3806.000000	59.665104
3805.000000	59.697128
3804.000000	59.752497
3803.000000	59.817218
3802.000000	59.852157
3801.000000	59.852988
3800.000000	59.858907
3799.000000	59.886389
3798.000000	59.918133
3797.000000	59.933272
3796.000000	59.936141
3795.000000	59.949976
3794.000000	59.987420
3793.000000	60.034736
3792.000000	60.073668
3791.000000	60.103778
3790.000000	60.134171
3789.000000	60.167681
3788.000000	60.202230
3787.000000	60.237338
3786.000000	60.272557
3785.000000	60.302593
3784.000000	60.323438
3783.000000	60.342640
3782.000000	60.369242
3781.000000	60.399214
3780.000000	60.419380
3779.000000	60.429310
3778.000000	60.442848
3777.000000	60.469183
3776.000000	60.499390
3775.000000	60.519301
3774.000000	60.528467
3773.000000	60.539734
3772.000000	60.559483
3771.000000	60.577018
3770.000000	60.582257
3769.000000	60.583997
3768.000000	60.595766
3767.000000	60.618315
3766.000000	60.639556
3765.000000	60.647268
3764.000000	60.648171
3763.000000	60.661786
3762.000000	60.692323
3761.000000	60.723147
3760.000000	60.741558
3759.000000	60.761283
3758.000000	60.792317
3757.000000	60.825306
3756.000000	60.856527
3755.000000	60.894333
3754.000000	60.942861
3753.000000	60.988451
3752.000000	61.022074
3751.000000	61.061367
3750.000000	61.112363
3749.000000	61.149626
3748.000000	61.166495
3747.000000	61.195687
3746.000000	61.251542
3745.000000	61.299706
3744.000000	61.330513
3743.000000	61.374268
3742.000000	61.428869
3741.000000	61.467477
3740.000000	61.481806
3739.000000	61.500501
3738.000000	61.555325
3737.000000	61.638084
3736.000000	61.716265
3735.000000	61.773042
3734.000000	61.823609
3733.000000	61.879718
3732.000000	61.930521
3731.000000	61.966191
3730.000000	61.992972
3729.000000	62.026969
3728.000000	62.072278
3727.000000	62.113532
3726.000000	62.144179
3725.000000	62.174940
3724.000000	62.209943
3723.000000	62.236542
3722.000000	62.247719
3721.000000	62.255028
3720.000000	62.270469
3719.000000	62.298849
3718.000000	62.332456
3717.000000	62.362914
3716.000000	62.395131
3715.000000	62.436082
3714.000000	62.483885
3713.000000	62.529504
3712.000000	62.567971
3711.000000	62.604490
3710.000000	62.643756
3709.000000	62.686772
3708.000000	62.728722
3707.000000	62.762126
3706.000000	62.789574
3705.000000	62.819231
3704.000000	62.854656
3703.000000	62.888939
3702.000000	62.916005
3701.000000	62.938686
3700.000000	62.961435
3699.000000	62.986677
3698.000000	63.013338
3697.000000	63.035599
3696.000000	63.053038
3695.000000	63.073788
3694.000000	63.101092
3693.000000	63.131616
3692.000000	63.159146
3691.000000	63.181274
3690.000000	63.200604
3689.000000	63.226811
3688.000000	63.262909
3687.000000	63.294802
3686.000000	63.312845
3685.000000	63.318317
3684.000000	63.315128
3683.000000	63.313313
3682.000000	63.328124
3681.000000	63.356861
3680.000000	63.380271
3679.000000	63.389118
3678.000000	63.404007
3677.000000	63.434626
3676.000000	63.454662
3675.000000	63.454801
3674.000000	63.451790
3673.000000	63.458785
3672.000000	63.474634
3671.000000	63.479686
3670.000000	63.463423
3669.000000	63.450848
3668.000000	63.458761
3667.000000	63.469252
3666.000000	63.462916
3665.000000	63.441833
3664.000000	63.419533
3663.000000	63.406552
3662.000000	63.398124
3661.000000	63.380737
3660.000000	63.354177
3659.000000	63.327672
3658.000000	63.307105
3657.000000	63.284178
3656.000000	63.251565
3655.000000	63.213665
3654.000000	63.174753
3653.000000	63.134571
3652.000000	63.087783
3651.000000	63.024834
3650.000000	62.950936
3649.000000	62.890031
3648.000000	62.849112
3647.000000	62.808215
3646.000000	62.750500
3645.000000	62.680206
3644.000000	62.609318
3643.000000	62.543470
3642.000000	62.478218
3641.000000	62.411733
3640.000000	62.347479
3639.000000	62.282000
3638.000000	62.207948
3637.000000	62.125686
3636.000000	62.044984
3635.000000	61.966514
3634.000000	61.879324
3633.000000	61.781216
3632.000000	61.682505
3631.000000	61.584884
3630.000000	61.467197
3629.000000	61.324085
3628.000000	61.191106
3627.000000	61.085677
3626.000000	60.981057
3625.000000	60.854309
3624.000000	60.710247
3623.000000	60.567642
3622.000000	60.437523
3621.000000	60.309947
3620.000000	60.166345
3619.000000	60.005393
3618.000000	59.842886
3617.000000	59.690314
3616.000000	59.548389
3615.000000	59.407471
3614.000000	59.255822
3613.000000	59.096133
3612.000000	58.944389
3611.000000	58.810072
3610.000000	58.686553
3609.000000	58.560795
3608.000000	58.426244
3607.000000	58.285989
3606.000000	58.143498
3605.000000	57.997656
3604.000000	57.847191
3603.000000	57.690566
3602.000000	57.528256
3601.000000	57.362717
3600.000000	57.197748
3599.000000	57.034711
3598.000000	56.869880
3597.000000	56.697989
3596.000000	56.518927
3595.000000	56.333225
3594.000000	56.143350
3593.000000	55.956546
3592.000000	55.777520
3591.000000	55.605992
3590.000000	55.437447
3589.000000	55.264914
3588.000000	55.084615
3587.000000	54.903001
3586.000000	54.731138
3585.000000	54.572290
3584.000000	54.420713
3583.000000	54.269261
3582.000000	54.117123
3581.000000	53.968661
3580.000000	53.827525
3579.000000	53.692256
3578.000000	53.559791
3577.000000	53.430638
3576.000000	53.307230
3575.000000	53.190871
3574.000000	53.080501
3573.000000	52.976789
3572.000000	52.880547
3571.000000	52.791733
3570.000000	52.711114
3569.000000	52.639225
3568.000000	52.573530
3567.000000	52.511730
3566.000000	52.455755
3565.000000	52.407628
3564.000000	52.366123
3563.000000	52.328773
3562.000000	52.295379
3561.000000	52.268929
3560.000000	52.251385
3559.000000	52.240819
3558.000000	52.233704
3557.000000	52.228951
3556.000000	52.227049
3555.000000	52.227428
3554.000000	52.227567
3553.000000	52.225755
3552.000000	52.223106
3551.000000	52.221168
3550.000000	52.219802
3549.000000	52.217698
3548.000000	52.212930
3547.000000	52.204049
3546.000000	52.190937
3545.000000	52.175186
3544.000000	52.158008
3543.000000	52.138361
3542.000000	52.114276
3541.000000	52.085571
3540.000000	52.052566
3539.000000	52.013587
3538.000000	51.966150
3537.000000	51.909931
3536.000000	51.847129
3535.000000	51.778092
3534.000000	51.701205
3533.000000	51.614908
3532.000000	51.518592
3531.000000	51.411231
3530.000000	51.291226
3529.000000	51.158419
3528.000000	51.013881
3527.000000	50.858167
3526.000000	50.690844
3525.000000	50.511610
3524.000000	50.320059
3523.000000	50.114944
3522.000000	49.895035
3521.000000	49.660436
3520.000000	49.411250
3519.000000	49.145621
3518.000000	48.861892
3517.000000	48.561502
3516.000000	48.247416
3515.000000	47.919951
3514.000000	47.578160
3513.000000	47.222627
3512.000000	46.853189
3511.000000	46.466074
3510.000000	46.058419
3509.000000	45.634482
3508.000000	45.202175
3507.000000	44.763662
3506.000000	44.313552
3505.000000	43.847051
3504.000000	43.366887
3503.000000	42.881278
3502.000000	42.397381
3501.000000	41.917807
3500.000000	41.440754
3499.000000	40.962272
3498.000000	40.480501
3497.000000	39.998528
3496.000000	39.521882
3495.000000	39.053439
3494.000000	38.593421
3493.000000	38.143438
3492.000000	37.706073
3491.000000	37.281220
3490.000000	36.867381
3489.000000	36.466430
3488.000000	36.083952
3487.000000	35.724736
3486.000000	35.390229
3485.000000	35.079175
3484.000000	34.787139
3483.000000	34.507404
3482.000000	34.237399
3481.000000	33.983346
3480.000000	33.754042
3479.000000	33.550106
3478.000000	33.363611
3477.000000	33.186797
3476.000000	33.016092
3475.000000	32.849386
3474.000000	32.684372
3473.000000	32.520602
3472.000000	32.360082
3471.000000	32.206100
3470.000000	32.065456
3469.000000	31.949882
3468.000000	31.870527
3467.000000	31.831463
3466.000000	31.831147
3465.000000	31.868630
3464.000000	31.944119
3463.000000	32.056655
3462.000000	32.207060
3461.000000	32.400618
3460.000000	32.642158
3459.000000	32.928470
3458.000000	33.249313
3457.000000	33.594913
3456.000000	33.957709
3455.000000	34.328953
3454.000000	34.698903
3453.000000	35.058596
3452.000000	35.399196
3451.000000	35.710950
3450.000000	35.984901
3449.000000	36.215492
3448.000000	36.399034
3447.000000	36.531762
3446.000000	36.613087
3445.000000	36.646702
3444.000000	36.636758
3443.000000	36.585882
3442.000000	36.498048
3441.000000	36.382518
3440.000000	36.250890
3439.000000	36.112740
3438.000000	35.977922
3437.000000	35.859297
3436.000000	35.769162
3435.000000	35.713442
3434.000000	35.692182
3433.000000	35.704323
3432.000000	35.751452
3431.000000	35.837613
3430.000000	35.968744
3429.000000	36.151735
3428.000000	36.389812
3427.000000	36.681771
3426.000000	37.024824
3425.000000	37.417294
3424.000000	37.857784
3423.000000	38.341625
3422.000000	38.862877
3421.000000	39.416313
3420.000000	39.995408
3419.000000	40.591109
3418.000000	41.193717
3417.000000	41.796245
3416.000000	42.393991
3415.000000	42.982779
3414.000000	43.559824
3413.000000	44.124056
3412.000000	44.673378
3411.000000	45.203662
3410.000000	45.712050
3409.000000	46.199132
3408.000000	46.666193
3407.000000	47.111272
3406.000000	47.530688
3405.000000	47.923471
3404.000000	48.292116
3403.000000	48.641379
3402.000000	48.978312
3401.000000	49.310930
3400.000000	49.643303
3399.000000	49.971499
3398.000000	50.287545
3397.000000	50.586890
3396.000000	50.869749
3395.000000	51.138044
3394.000000	51.394490
3393.000000	51.644479
3392.000000	51.894584
3391.000000	52.147685
3390.000000	52.401728
3389.000000	52.652794
3388.000000	52.898122
3387.000000	53.136774
3386.000000	53.369491
3385.000000	53.598120
3384.000000	53.823610
3383.000000	54.045021
3382.000000	54.261741
3381.000000	54.475357
3380.000000	54.688093
3379.000000	54.900614
3378.000000	55.113140
3377.000000	55.327208
3376.000000	55.543574
3375.000000	55.759656
3374.000000	55.971426
3373.000000	56.177513
3372.000000	56.379806
3371.000000	56.581112
3370.000000	56.784177
3369.000000	56.991739
3368.000000	57.205077
3367.000000	57.422803
3366.000000	57.642454
3365.000000	57.862380
3364.000000	58.081403
3363.000000	58.298365
3362.000000	58.513484
3361.000000	58.728703
3360.000000	58.945100
3359.000000	59.161226
3358.000000	59.375440
3357.000000	59.588126
3356.000000	59.799808
3355.000000	60.008987
3354.000000	60.214097
3353.000000	60.416688
3352.000000	60.620495
3351.000000	60.827710
3350.000000	61.037376
3349.000000	61.246440
3348.000000	61.450880
3347.000000	61.647150
3346.000000	61.834501
3345.000000	62.015294
3344.000000	62.191774
3343.000000	62.362801
3342.000000	62.525365
3341.000000	62.677999
3340.000000	62.821134
3339.000000	62.954883
3338.000000	63.077412
3337.000000	63.185571
3336.000000	63.274883
3335.000000	63.339878
3334.000000	63.376084
3333.000000	63.380314
3332.000000	63.349845
3331.000000	63.280696
3330.000000	63.168227
3329.000000	63.009533
3328.000000	62.802130
3327.000000	62.543450
3326.000000	62.230730
3325.000000	61.860289
3324.000000	61.427744
3323.000000	60.925374
3322.000000	60.344673
3321.000000	59.677979
3320.000000	58.915517
3319.000000	58.045848
3318.000000	57.054045
3317.000000	55.924550
3316.000000	54.640616
3315.000000	53.182099
3314.000000	51.534048
3313.000000	49.690435
3312.000000	47.656124
3311.000000	45.447714
3310.000000	43.093243
3309.000000	40.637587
3308.000000	38.135355
3307.000000	35.639561
3306.000000	33.198660
3305.000000	30.855633
3304.000000	28.644957
3303.000000	26.590171
3302.000000	24.707085
3301.000000	23.007978
3300.000000	21.502066
3299.000000	20.190068
3298.000000	19.069570
3297.000000	18.139572
3296.000000	17.389274
3295.000000	16.793937
3294.000000	16.317427
3293.000000	15.923380
3292.000000	15.581321
3291.000000	15.263084
3290.000000	14.951258
3289.000000	14.643009
3288.000000	14.345527
3287.000000	14.068708
3286.000000	13.820577
3285.000000	13.607462
3284.000000	13.428230
3283.000000	13.272307
3282.000000	13.127455
3281.000000	12.986915
3280.000000	12.848076
3279.000000	12.708775
3278.000000	12.571368
3277.000000	12.446927
3276.000000	12.348919
3275.000000	12.285840
3274.000000	12.262402
3273.000000	12.283847
3272.000000	12.354676
3271.000000	12.473874
3270.000000	12.637141
3269.000000	12.839757
3268.000000	13.073526
3267.000000	13.326116
3266.000000	13.585200
3265.000000	13.841276
3264.000000	14.083045
3263.000000	14.294130
3262.000000	14.458535
3261.000000	14.566912
3260.000000	14.613546
3259.000000	14.592807
3258.000000	14.504320
3257.000000	14.354580
3256.000000	14.152572
3255.000000	13.902940
3254.000000	13.606653
3253.000000	13.265793
3252.000000	12.878504
3251.000000	12.438084
3250.000000	11.939767
3249.000000	11.387849
3248.000000	10.796517
3247.000000	10.186005
3246.000000	9.584476
3245.000000	9.027565
3244.000000	8.548849
3243.000000	8.169204
3242.000000	7.895519
3241.000000	7.720099
3240.000000	7.617378
3239.000000	7.549477
3238.000000	7.480504
3237.000000	7.389738
3236.000000	7.271371
3235.000000	7.129524
3234.000000	6.977534
3233.000000	6.831942
3232.000000	6.701077
3231.000000	6.581606
3230.000000	6.469785
3229.000000	6.371767
3228.000000	6.298756
3227.000000	6.259654
3226.000000	6.262392
3225.000000	6.315935
3224.000000	6.425614
3223.000000	6.587788
3222.000000	6.794398
3221.000000	7.037510
3220.000000	7.304833
3219.000000	7.577412
3218.000000	7.835815
3217.000000	8.066482
3216.000000	8.259924
3215.000000	8.409261
3214.000000	8.515098
3213.000000	8.587670
3212.000000	8.639531
3211.000000	8.679905
3210.000000	8.718755
3209.000000	8.769177
3208.000000	8.841635
3207.000000	8.939733
3206.000000	9.065202
3205.000000	9.221642
3204.000000	9.410344
3203.000000	9.627208
3202.000000	9.868011
3201.000000	10.132735
3200.000000	10.420158
3199.000000	10.724657
3198.000000	11.041005
3197.000000	11.367979
3196.000000	11.704225
3195.000000	12.044366
3194.000000	12.383596
3193.000000	12.720529
3192.000000	13.052493
3191.000000	13.372764
3190.000000	13.676009
3189.000000	13.962083
3188.000000	14.231486
3187.000000	14.482118
3186.000000	14.713338
3185.000000	14.929317
3184.000000	15.134136
3183.000000	15.328191
3182.000000	15.512483
3181.000000	15.691123
3180.000000	15.867304
3179.000000	16.040714
3178.000000	16.212374
3177.000000	16.387821
3176.000000	16.572324
3175.000000	16.767351
3174.000000	16.974431
3173.000000	17.197706
3172.000000	17.439137
3171.000000	17.696298
3170.000000	17.967260
3169.000000	18.253689
3168.000000	18.556498
3167.000000	18.872077
3166.000000	19.196535
3165.000000	19.528616
3164.000000	19.866120
3163.000000	20.203980
3162.000000	20.538304
3161.000000	20.867680
3160.000000	21.187471
3159.000000	21.487001
3158.000000	21.753509
3157.000000	21.975839
3156.000000	22.140170
3155.000000	22.228234
3154.000000	22.223859
3153.000000	22.118290
3152.000000	21.913527
3151.000000	21.624313
3150.000000	21.281842
3149.000000	20.929474
3148.000000	20.605303
3147.000000	20.328960
3146.000000	20.100425
3145.000000	19.904304
3144.000000	19.713224
3143.000000	19.494444
3142.000000	19.223058
3141.000000	18.889759
3140.000000	18.497083
3139.000000	18.055095
3138.000000	17.582110
3137.000000	17.103675
3136.000000	16.644030
3135.000000	16.220742
3134.000000	15.848917
3133.000000	15.544790
3132.000000	15.320147
3131.000000	15.177939
3130.000000	15.117283
3129.000000	15.135560
3128.000000	15.226283
3127.000000	15.377830
3126.000000	15.579194
3125.000000	15.824362
3124.000000	16.105939
3123.000000	16.413806
3122.000000	16.740255
3121.000000	17.082045
3120.000000	17.435479
3119.000000	17.792752
3118.000000	18.147406
3117.000000	18.497011
3116.000000	18.838084
3115.000000	19.163159
3114.000000	19.465921
3113.000000	19.744232
3112.000000	19.995942
3111.000000	20.217514
3110.000000	20.408333
3109.000000	20.572750
3108.000000	20.713945
3107.000000	20.830827
3106.000000	20.923755
3105.000000	20.997617
3104.000000	21.058424
3103.000000	21.111127
3102.000000	21.164212
3101.000000	21.231558
3100.000000	21.327178
3099.000000	21.461170
3098.000000	21.642427
3097.000000	21.880179
3096.000000	22.177878
3095.000000	22.531618
3094.000000	22.934857
3093.000000	23.381598
3092.000000	23.864005
3091.000000	24.370548
3090.000000	24.891419
3089.000000	25.420176
3088.000000	25.949656
3087.000000	26.471489
3086.000000	26.980924
3085.000000	27.478267
3084.000000	27.962959
3083.000000	28.431079
3082.000000	28.880123
3081.000000	29.312048
3080.000000	29.729049
3079.000000	30.130797
3078.000000	30.517879
3077.000000	30.892790
3076.000000	31.256297
3075.000000	31.606045
3074.000000	31.941279
3073.000000	32.265106
3072.000000	32.579832
3071.000000	32.884835
3070.000000	33.180088
3069.000000	33.468286
3068.000000	33.751454
3067.000000	34.028497
3066.000000	34.298427
3065.000000	34.562240
3064.000000	34.820127
3063.000000	35.070545
3062.000000	35.313306
3061.000000	35.550788
3060.000000	35.784278
3059.000000	36.012366
3058.000000	36.234543
3057.000000	36.452579
3056.000000	36.667245
3055.000000	36.876701
3054.000000	37.079764
3053.000000	37.277867
3052.000000	37.472094
3051.000000	37.661608
3050.000000	37.846019
3049.000000	38.026271
3048.000000	38.202196
3047.000000	38.372093
3046.000000	38.536240
3045.000000	38.697642
3044.000000	38.858148
3043.000000	39.017181
3042.000000	39.174947
3041.000000	39.333441
3040.000000	39.492669
3039.000000	39.649455
3038.000000	39.801894
3037.000000	39.951866
3036.000000	40.102020
3035.000000	40.253144
3034.000000	40.405703
3033.000000	40.560756
3032.000000	40.717673
3031.000000	40.874061
3030.000000	41.029203
3029.000000	41.184506
3028.000000	41.339847
3027.000000	41.492980
3026.000000	41.643668
3025.000000	41.794712
3024.000000	41.947294
3023.000000	42.098714
3022.000000	42.246109
3021.000000	42.389125
3020.000000	42.527493
3019.000000	42.658688
3018.000000	42.779763
3017.000000	42.888888
3016.000000	42.983932
3015.000000	43.062889
3014.000000	43.127295
3013.000000	43.183323
3012.000000	43.237978
3011.000000	43.295434
3010.000000	43.357226
3009.000000	43.421463
3008.000000	43.480111
3007.000000	43.519703
3006.000000	43.525738
3005.000000	43.486611
3004.000000	43.392753
3003.000000	43.236512
3002.000000	43.014880
3001.000000	42.728922
3000.000000	42.380928
2999.000000	41.973406
2998.000000	41.516492
2997.000000	41.037945
2996.000000	40.587625
2995.000000	40.230810
2994.000000	40.026647
2993.000000	40.000854
2992.000000	40.129722
2991.000000	40.354184
2990.000000	40.611023
2989.000000	40.855207
2988.000000	41.062718
2987.000000	41.224368
2986.000000	41.343263
2985.000000	41.430841
2984.000000	41.500772
2983.000000	41.565611
2982.000000	41.637911
2981.000000	41.728337
2980.000000	41.838821
2979.000000	41.960139
2978.000000	42.079012
2977.000000	42.187656
2976.000000	42.288544
2975.000000	42.394523
2974.000000	42.524084
2973.000000	42.689795
2972.000000	42.886750
2971.000000	43.092335
2970.000000	43.275827
2969.000000	43.406544
2968.000000	43.453961
2967.000000	43.390491
2966.000000	43.199720
2965.000000	42.881945
2964.000000	42.452183
2963.000000	41.933706
2962.000000	41.355541
2961.000000	40.747175
2960.000000	40.130646
2959.000000	39.515914
2958.000000	38.905197
2957.000000	38.304384
2956.000000	37.733842
2955.000000	37.235112
2954.000000	36.859542
2953.000000	36.638055
2952.000000	36.553551
2951.000000	36.548583
2950.000000	36.565821
2949.000000	36.581417
2948.000000	36.607643
2947.000000	36.670711
2946.000000	36.785493
2945.000000	36.935823
2944.000000	37.070965
2943.000000	37.131466
2942.000000	37.093437
2941.000000	36.997569
2940.000000	36.938325
2939.000000	37.021946
2938.000000	37.321156
2937.000000	37.848508
2936.000000	38.557090
2935.000000	39.368159
2934.000000	40.206120
2933.000000	41.018084
2932.000000	41.772600
2931.000000	42.453955
2930.000000	43.059836
2929.000000	43.596538
2928.000000	44.071751
2927.000000	44.491097
2926.000000	44.861841
2925.000000	45.193447
2924.000000	45.493120
2923.000000	45.763940
2922.000000	46.008680
2921.000000	46.231373
2920.000000	46.433694
2919.000000	46.614783
2918.000000	46.775124
2917.000000	46.917647
2916.000000	47.044079
2915.000000	47.153920
2914.000000	47.248223
2913.000000	47.330347
2912.000000	47.402339
2911.000000	47.464027
2910.000000	47.516212
2909.000000	47.561312
2908.000000	47.599827
2907.000000	47.629291
2906.000000	47.647256
2905.000000	47.651696
2904.000000	47.637590
2903.000000	47.598073
2902.000000	47.529948
2901.000000	47.435851
2900.000000	47.322373
2899.000000	47.199373
2898.000000	47.081995
2897.000000	46.987640
2896.000000	46.927335
2895.000000	46.901344
2894.000000	46.902493
2893.000000	46.919356
2892.000000	46.936413
2891.000000	46.937029
2890.000000	46.910495
2889.000000	46.854549
2888.000000	46.771532
2887.000000	46.666039
2886.000000	46.546801
2885.000000	46.426058
2884.000000	46.314528
2883.000000	46.219149
2882.000000	46.146236
2881.000000	46.102743
2880.000000	46.092438
2879.000000	46.114631
2878.000000	46.167455
2877.000000	46.249134
2876.000000	46.355237
2875.000000	46.478659
2874.000000	46.613693
2873.000000	46.756993
2872.000000	46.904100
2871.000000	47.049177
2870.000000	47.189978
2869.000000	47.329324
2868.000000	47.470668
2867.000000	47.615185
2866.000000	47.763394
2865.000000	47.915335
2864.000000	48.067532
2863.000000	48.213844
2862.000000	48.350992
2861.000000	48.480368
2860.000000	48.603913
2859.000000	48.722105
2858.000000	48.836920
2857.000000	48.952538
2856.000000	49.071326
2855.000000	49.192371
2854.000000	49.314810
2853.000000	49.438727
2852.000000	49.561592
2851.000000	49.677746
2850.000000	49.783254
2849.000000	49.878492
2848.000000	49.965355
2847.000000	50.045553
2846.000000	50.122734
2845.000000	50.202326
2844.000000	50.287402
2843.000000	50.377250
2842.000000	50.471045
2841.000000	50.570249
2840.000000	50.676365
2839.000000	50.789289
2838.000000	50.908900
2837.000000	51.035447
2836.000000	51.167395
2835.000000	51.301510
2834.000000	51.435805
2833.000000	51.569983
2832.000000	51.702632
2831.000000	51.830789
2830.000000	51.952982
2829.000000	52.070027
2828.000000	52.182213
2827.000000	52.288576
2826.000000	52.389449
2825.000000	52.486766
2824.000000	52.581139
2823.000000	52.671200
2822.000000	52.756527
2821.000000	52.838489
2820.000000	52.917437
2819.000000	52.991821
2818.000000	53.060833
2817.000000	53.125416
2816.000000	53.186101
2815.000000	53.242418
2814.000000	53.295147
2813.000000	53.346652
2812.000000	53.398350
2811.000000	53.450316
2810.000000	53.503652
2809.000000	53.560372
2808.000000	53.620341
2807.000000	53.681048
2806.000000	53.741046
2805.000000	53.801035
2804.000000	53.860996
2803.000000	53.919182
2802.000000	53.974824
2801.000000	54.029177
2800.000000	54.083004
2799.000000	54.135422
2798.000000	54.185939
2797.000000	54.235233
2796.000000	54.283260
2795.000000	54.328881
2794.000000	54.371943
2793.000000	54.413440
2792.000000	54.453216
2791.000000	54.489950
2790.000000	54.523682
2789.000000	54.555791
2788.000000	54.586151
2787.000000	54.613120
2786.000000	54.637058
2785.000000	54.661359
2784.000000	54.689310
2783.000000	54.722374
2782.000000	54.761871
2781.000000	54.809308
2780.000000	54.864063
2779.000000	54.923079
2778.000000	54.983587
2777.000000	55.044150
2776.000000	55.102825
2775.000000	55.156982
2774.000000	55.205818
2773.000000	55.250863
2772.000000	55.293484
2771.000000	55.334061
2770.000000	55.373635
2769.000000	55.413710
2768.000000	55.453930
2767.000000	55.492151
2766.000000	55.527272
2765.000000	55.559731
2764.000000	55.589164
2763.000000	55.614377
2762.000000	55.635967
2761.000000	55.656391
2760.000000	55.676899
2759.000000	55.696684
2758.000000	55.715300
2757.000000	55.732991
2756.000000	55.748150
2755.000000	55.757134
2754.000000	55.757444
2753.000000	55.749256
2752.000000	55.733631
2751.000000	55.711919
2750.000000	55.687486
2749.000000	55.665220
2748.000000	55.648496
2747.000000	55.638733
2746.000000	55.637982
2745.000000	55.649350
2744.000000	55.674342
2743.000000	55.711795
2742.000000	55.759711
2741.000000	55.815618
2740.000000	55.874798
2739.000000	55.931491
2738.000000	55.982730
2737.000000	56.029258
2736.000000	56.072949
2735.000000	56.115682
2734.000000	56.160599
2733.000000	56.210960
2732.000000	56.266636
2731.000000	56.323958
2730.000000	56.379477
2729.000000	56.431632
2728.000000	56.478853
2727.000000	56.519043
2726.000000	56.551702
2725.000000	56.578329
2724.000000	56.600026
2723.000000	56.617116
2722.000000	56.631301
2721.000000	56.645498
2720.000000	56.661107
2719.000000	56.677603
2718.000000	56.695086
2717.000000	56.714890
2716.000000	56.737461
2715.000000	56.762242
2714.000000	56.789911
2713.000000	56.822003
2712.000000	56.857859
2711.000000	56.894647
2710.000000	56.930804
2709.000000	56.967051
2708.000000	57.003721
2707.000000	57.039621
2706.000000	57.074010
2705.000000	57.107160
2704.000000	57.138482
2703.000000	57.166565
2702.000000	57.191513
2701.000000	57.214806
2700.000000	57.236637
2699.000000	57.255752
2698.000000	57.272149
2697.000000	57.287507
2696.000000	57.302482
2695.000000	57.316163
2694.000000	57.328345
2693.000000	57.339754
2692.000000	57.349782
2691.000000	57.356605
2690.000000	57.360085
2689.000000	57.362179
2688.000000	57.364162
2687.000000	57.366037
2686.000000	57.368897
2685.000000	57.375116
2684.000000	57.385598
2683.000000	57.399215
2682.000000	57.415228
2681.000000	57.433820
2680.000000	57.453943
2679.000000	57.473335
2678.000000	57.491286
2677.000000	57.508943
2676.000000	57.526698
2675.000000	57.543842
2674.000000	57.561071
2673.000000	57.580788
2672.000000	57.604331
2671.000000	57.631374
2670.000000	57.662261
2669.000000	57.698328
2668.000000	57.739741
2667.000000	57.785340
2666.000000	57.834985
2665.000000	57.889433
2664.000000	57.947455
2663.000000	58.005861
2662.000000	58.062521
2661.000000	58.116889
2660.000000	58.167506
2659.000000	58.211910
2658.000000	58.249607
2657.000000	58.282755
2656.000000	58.313361
2655.000000	58.342084
2654.000000	58.370115
2653.000000	58.399248
2652.000000	58.429600
2651.000000	58.459441
2650.000000	58.487564
2649.000000	58.513714
2648.000000	58.536604
2647.000000	58.554376
2646.000000	58.567608
2645.000000	58.579453
2644.000000	58.592510
2643.000000	58.607857
2642.000000	58.627059
2641.000000	58.652332
2640.000000	58.684147
2639.000000	58.721013
2638.000000	58.762024
2637.000000	58.807077
2636.000000	58.854389
2635.000000	58.900748
2634.000000	58.944634
2633.000000	58.986910
2632.000000	59.028212
2631.000000	59.068188
2630.000000	59.107673
2629.000000	59.148834
2628.000000	59.192515
2627.000000	59.237542
2626.000000	59.282787
2625.000000	59.327357
2624.000000	59.368741
2623.000000	59.403540
2622.000000	59.430714
2621.000000	59.452059
2620.000000	59.469111
2619.000000	59.482169
2618.000000	59.492319
2617.000000	59.501437
2616.000000	59.509733
2615.000000	59.515414
2614.000000	59.517424
2613.000000	59.516204
2612.000000	59.511519
2611.000000	59.502565
2610.000000	59.490668
2609.000000	59.479437
2608.000000	59.471566
2607.000000	59.467616
2606.000000	59.468117
2605.000000	59.474186
2604.000000	59.485469
2603.000000	59.499862
2602.000000	59.515995
2601.000000	59.533570
2600.000000	59.551196
2599.000000	59.566395
2598.000000	59.578203
2597.000000	59.587468
2596.000000	59.594396
2595.000000	59.598329
2594.000000	59.600162
2593.000000	59.602243
2592.000000	59.605247
2591.000000	59.607776
2590.000000	59.609282
2589.000000	59.610675
2588.000000	59.611626
2587.000000	59.610104
2586.000000	59.605471
2585.000000	59.599685
2584.000000	59.594901
2583.000000	59.592355
2582.000000	59.594242
2581.000000	59.603815
2580.000000	59.622743
2579.000000	59.650527
2578.000000	59.686571
2577.000000	59.730729
2576.000000	59.781071
2575.000000	59.833815
2574.000000	59.886384
2573.000000	59.938088
2572.000000	59.987999
2571.000000	60.034663
2570.000000	60.078535
2569.000000	60.122287
2568.000000	60.167828
2567.000000	60.215207
2566.000000	60.264684
2565.000000	60.317324
2564.000000	60.372830
2563.000000	60.429057
2562.000000	60.484447
2561.000000	60.538978
2560.000000	60.592453
2559.000000	60.644186
2558.000000	60.694873
2557.000000	60.746639
2556.000000	60.800641
2555.000000	60.856444
2554.000000	60.913906
2553.000000	60.973373
2552.000000	61.033671
2551.000000	61.092075
2550.000000	61.146782
2549.000000	61.197490
2548.000000	61.243649
2547.000000	61.284431
2546.000000	61.320729
2545.000000	61.355146
2544.000000	61.389391
2543.000000	61.423654
2542.000000	61.458400
2541.000000	61.494320
2540.000000	61.530317
2539.000000	61.563571
2538.000000	61.592155
2537.000000	61.615818
2536.000000	61.634211
2535.000000	61.647001
2534.000000	61.655675
2533.000000	61.663053
2532.000000	61.670588
2531.000000	61.677991
2530.000000	61.685676
2529.000000	61.694897
2528.000000	61.705340
2527.000000	61.714984
2526.000000	61.722715
2525.000000	61.728985
2524.000000	61.733526
2523.000000	61.734773
2522.000000	61.731944
2521.000000	61.725261
2520.000000	61.714069
2519.000000	61.696830
2518.000000	61.673334
2517.000000	61.644811
2516.000000	61.611162
2515.000000	61.570995
2514.000000	61.524722
2513.000000	61.475435
2512.000000	61.426396
2511.000000	61.379587
2510.000000	61.337108
2509.000000	61.301238
2508.000000	61.272265
2507.000000	61.248256
2506.000000	61.227835
2505.000000	61.211158
2504.000000	61.198155
2503.000000	61.188270
2502.000000	61.181950
2501.000000	61.180505
2500.000000	61.183822
2499.000000	61.190378
2498.000000	61.199970
2497.000000	61.213734
2496.000000	61.231838
2495.000000	61.253314
2494.000000	61.278257
2493.000000	61.307899
2492.000000	61.341900
2491.000000	61.378394
2490.000000	61.416785
2489.000000	61.458038
2488.000000	61.502203
2487.000000	61.547937
2486.000000	61.595015
2485.000000	61.644652
2484.000000	61.696839
2483.000000	61.749931
2482.000000	61.803104
2481.000000	61.857013
2480.000000	61.911742
2479.000000	61.966380
2478.000000	62.020942
2477.000000	62.076208
2476.000000	62.131388
2475.000000	62.184336
2474.000000	62.234493
2473.000000	62.283242
2472.000000	62.331142
2471.000000	62.377041
2470.000000	62.420086
2469.000000	62.460333
2468.000000	62.496780
2467.000000	62.527437
2466.000000	62.551820
2465.000000	62.571101
2464.000000	62.585823
2463.000000	62.595414
2462.000000	62.600515
2461.000000	62.603268
2460.000000	62.604418
2459.000000	62.602659
2458.000000	62.596957
2457.000000	62.587705
2456.000000	62.575285
2455.000000	62.559803
2454.000000	62.543066
2453.000000	62.528599
2452.000000	62.519272
2451.000000	62.516542
2450.000000	62.522186
2449.000000	62.537936
2448.000000	62.563130
2447.000000	62.594758
2446.000000	62.630054
2445.000000	62.667502
2444.000000	62.705160
2443.000000	62.741061
2442.000000	62.775650
2441.000000	62.811384
2440.000000	62.849858
2439.000000	62.891125
2438.000000	62.935834
2437.000000	62.985233
2436.000000	63.038487
2435.000000	63.092468
2434.000000	63.144429
2433.000000	63.192740
2432.000000	63.235046
2431.000000	63.268819
2430.000000	63.294270
2429.000000	63.314448
2428.000000	63.331774
2427.000000	63.346455
2426.000000	63.358766
2425.000000	63.369713
2424.000000	63.378977
2423.000000	63.384616
2422.000000	63.385589
2421.000000	63.382820
2420.000000	63.377163
2419.000000	63.369027
2418.000000	63.360570
2417.000000	63.355765
2416.000000	63.357196
2415.000000	63.364643
2414.000000	63.377105
2413.000000	63.393610
2412.000000	63.411309
2411.000000	63.425318
2410.000000	63.431751
2409.000000	63.429339
2408.000000	63.417976
2407.000000	63.397957
2406.000000	63.371714
2405.000000	63.343768
2404.000000	63.317734
2403.000000	63.294932
2402.000000	63.275840
2401.000000	63.260630
2400.000000	63.247309
2399.000000	63.231504
2398.000000	63.209091
2397.000000	63.176891
2396.000000	63.130996
2395.000000	63.067179
2394.000000	62.983950
2393.000000	62.883785
2392.000000	62.769949
2391.000000	62.645408
2390.000000	62.515152
2389.000000	62.386300
2388.000000	62.265479
2387.000000	62.156959
2386.000000	62.065008
2385.000000	61.995299
2384.000000	61.951311
2383.000000	61.933051
2382.000000	61.938385
2381.000000	61.963735
2380.000000	62.002518
2379.000000	62.043409
2378.000000	62.075928
2377.000000	62.095730
2376.000000	62.101644
2375.000000	62.094008
2374.000000	62.075744
2373.000000	62.054751
2372.000000	62.040591
2371.000000	62.037146
2370.000000	62.041392
2369.000000	62.054763
2368.000000	62.083215
2367.000000	62.124610
2366.000000	62.169429
2365.000000	62.223090
2364.000000	62.295103
2363.000000	62.370305
2362.000000	62.442485
2361.000000	62.510759
2360.000000	62.570966
2359.000000	62.626390
2358.000000	62.656076
2357.000000	62.658921
2356.000000	62.633828
2355.000000	62.575410
2354.000000	62.499301
2353.000000	62.449503
2352.000000	62.514139
2351.000000	62.681691
2350.000000	62.850856
2349.000000	62.938263
2348.000000	62.945700
2347.000000	62.974102
2346.000000	63.052728
2345.000000	63.155274
2344.000000	63.219447
2343.000000	63.220788
2342.000000	63.206270
2341.000000	63.191684
2340.000000	63.193273
2339.000000	63.199184
2338.000000	63.216581
2337.000000	63.248110
2336.000000	63.302766
2335.000000	63.370253
2334.000000	63.447293
2333.000000	63.509860
2332.000000	63.562959
2331.000000	63.591795
2330.000000	63.603691
2329.000000	63.618216
2328.000000	63.620113
2327.000000	63.620656
2326.000000	63.598062
2325.000000	63.576398
2324.000000	63.555947
2323.000000	63.528862
2322.000000	63.490915
2321.000000	63.428988
2320.000000	63.362195
2319.000000	63.288929
2318.000000	63.223655
2317.000000	63.155928
2316.000000	63.083200
2315.000000	62.994607
2314.000000	62.889306
2313.000000	62.767591
2312.000000	62.629102
2311.000000	62.478607
2310.000000	62.317343
2309.000000	62.152214
2308.000000	61.980035
2307.000000	61.803125
2306.000000	61.621573
2305.000000	61.440408
2304.000000	61.261835
2303.000000	61.087811
2302.000000	60.924265
2301.000000	60.778693
2300.000000	60.655759
2299.000000	60.557635
2298.000000	60.483301
2297.000000	60.432759
2296.000000	60.398005
2295.000000	60.374317
2294.000000	60.354074
2293.000000	60.336528
2292.000000	60.315795
2291.000000	60.290286
2290.000000	60.258668
2289.000000	60.224233
2288.000000	60.188329
2287.000000	60.153787
2286.000000	60.125046
2285.000000	60.105916
2284.000000	60.095572
2283.000000	60.090115
2282.000000	60.088887
2281.000000	60.093006
2280.000000	60.103633
2279.000000	60.120244
2278.000000	60.145804
2277.000000	60.183475
2276.000000	60.235230
2275.000000	60.302162
2274.000000	60.387230
2273.000000	60.493441
2272.000000	60.618699
2271.000000	60.757686
2270.000000	60.905912
2269.000000	61.059941
2268.000000	61.214817
2267.000000	61.365075
2266.000000	61.508540
2265.000000	61.646302
2264.000000	61.778416
2263.000000	61.905874
2262.000000	62.031388
2261.000000	62.159157
2260.000000	62.290430
2259.000000	62.423645
2258.000000	62.558512
2257.000000	62.694390
2256.000000	62.829799
2255.000000	62.962307
2254.000000	63.093202
2253.000000	63.225523
2252.000000	63.361103
2251.000000	63.500629
2250.000000	63.645910
2249.000000	63.798954
2248.000000	63.958536
2247.000000	64.120747
2246.000000	64.281487
2245.000000	64.437258
2244.000000	64.583287
2243.000000	64.715439
2242.000000	64.832914
2241.000000	64.938032
2240.000000	65.033024
2239.000000	65.119524
2238.000000	65.199920
2237.000000	65.276434
2236.000000	65.349370
2235.000000	65.417623
2234.000000	65.480766
2233.000000	65.538437
2232.000000	65.588988
2231.000000	65.630947
2230.000000	65.665142
2229.000000	65.693187
2228.000000	65.715144
2227.000000	65.730671
2226.000000	65.741792
2225.000000	65.751573
2224.000000	65.760907
2223.000000	65.769048
2222.000000	65.776528
2221.000000	65.785083
2220.000000	65.794892
2219.000000	65.804693
2218.000000	65.814150
2217.000000	65.824014
2216.000000	65.834356
2215.000000	65.845095
2214.000000	65.857992
2213.000000	65.875734
2212.000000	65.899376
2211.000000	65.928560
2210.000000	65.963628
2209.000000	66.005123
2208.000000	66.051561
2207.000000	66.099793
2206.000000	66.146875
2205.000000	66.189813
2204.000000	66.224612
2203.000000	66.248538
2202.000000	66.263205
2201.000000	66.273756
2200.000000	66.285671
2199.000000	66.304260
2198.000000	66.335421
2197.000000	66.383275
2196.000000	66.446627
2195.000000	66.519800
2194.000000	66.596689
2193.000000	66.672408
2192.000000	66.742644
2191.000000	66.804623
2190.000000	66.858910
2189.000000	66.908092
2188.000000	66.953780
2187.000000	66.996529
2186.000000	67.037538
2185.000000	67.078026
2184.000000	67.117148
2183.000000	67.152663
2182.000000	67.183337
2181.000000	67.208968
2180.000000	67.228881
2179.000000	67.242472
2178.000000	67.250841
2177.000000	67.255923
2176.000000	67.258468
2175.000000	67.258555
2174.000000	67.257207
2173.000000	67.255641
2172.000000	67.253721
2171.000000	67.251255
2170.000000	67.250001
2169.000000	67.252289
2168.000000	67.258348
2167.000000	67.266944
2166.000000	67.277535
2165.000000	67.289473
2164.000000	67.300152
2163.000000	67.306724
2162.000000	67.309276
2161.000000	67.310359
2160.000000	67.312295
2159.000000	67.317183
2158.000000	67.328471
2157.000000	67.349347
2156.000000	67.379648
2155.000000	67.416349
2154.000000	67.456476
2153.000000	67.497378
2152.000000	67.535338
2151.000000	67.567085
2150.000000	67.592910
2149.000000	67.616284
2148.000000	67.640734
2147.000000	67.668995
2146.000000	67.703947
2145.000000	67.747507
2144.000000	67.798553
2143.000000	67.853453
2142.000000	67.908219
2141.000000	67.958763
2140.000000	68.000332
2139.000000	68.029489
2138.000000	68.046688
2137.000000	68.055602
2136.000000	68.060597
2135.000000	68.066074
2134.000000	68.076578
2133.000000	68.094534
2132.000000	68.117759
2131.000000	68.140824
2130.000000	68.158504
2129.000000	68.166710
2128.000000	68.162010
2127.000000	68.143159
2126.000000	68.112886
2125.000000	68.076150
2124.000000	68.036929
2123.000000	67.998027
2122.000000	67.962365
2121.000000	67.932019
2120.000000	67.906571
2119.000000	67.884270
2118.000000	67.864240
2117.000000	67.845820
2116.000000	67.827026
2115.000000	67.806156
2114.000000	67.784082
2113.000000	67.762757
2112.000000	67.742452
2111.000000	67.722691
2110.000000	67.704880
2109.000000	67.691435
2108.000000	67.683063
2107.000000	67.679241
2106.000000	67.680517
2105.000000	67.687850
2104.000000	67.700251
2103.000000	67.715391
2102.000000	67.731622
2101.000000	67.747218
2100.000000	67.758918
2099.000000	67.763856
2098.000000	67.763058
2097.000000	67.760813
2096.000000	67.761776
2095.000000	67.770974
2094.000000	67.794318
2093.000000	67.835455
2092.000000	67.892702
2091.000000	67.961297
2090.000000	68.037573
2089.000000	68.119015
2088.000000	68.202055
2087.000000	68.283318
2086.000000	68.362247
2085.000000	68.439789
2084.000000	68.515857
2083.000000	68.590180
2082.000000	68.663936
2081.000000	68.737762
2080.000000	68.809366
2079.000000	68.875284
2078.000000	68.934329
2077.000000	68.986541
2076.000000	69.030762
2075.000000	69.066523
2074.000000	69.096187
2073.000000	69.123674
2072.000000	69.151040
2071.000000	69.178727
2070.000000	69.208287
2069.000000	69.241014
2068.000000	69.274173
2067.000000	69.301668
2066.000000	69.319282
2065.000000	69.327721
2064.000000	69.330618
2063.000000	69.331789
2062.000000	69.334223
2061.000000	69.339403
2060.000000	69.347169
2059.000000	69.357165
2058.000000	69.369756
2057.000000	69.384341
2056.000000	69.398245
2055.000000	69.409260
2054.000000	69.418095
2053.000000	69.427376
2052.000000	69.438911
2051.000000	69.453490
2050.000000	69.472609
2049.000000	69.497877
2048.000000	69.528198
2047.000000	69.560551
2046.000000	69.593624
2045.000000	69.627600
2044.000000	69.660997
2043.000000	69.691224
2042.000000	69.718585
2041.000000	69.746856
2040.000000	69.779341
2039.000000	69.816921
2038.000000	69.859519
2037.000000	69.906425
2036.000000	69.955139
2035.000000	70.002648
2034.000000	70.048179
2033.000000	70.092899
2032.000000	70.137979
2031.000000	70.184993
2030.000000	70.236680
2029.000000	70.295379
2028.000000	70.359920
2027.000000	70.427215
2026.000000	70.494412
2025.000000	70.558777
2024.000000	70.615650
2023.000000	70.660356
2022.000000	70.693476
2021.000000	70.720044
2020.000000	70.743207
2019.000000	70.762301
2018.000000	70.778147
2017.000000	70.796591
2016.000000	70.824254
2015.000000	70.862993
2014.000000	70.909422
2013.000000	70.957266
2012.000000	70.999394
2011.000000	71.030853
2010.000000	71.051278
2009.000000	71.063860
2008.000000	71.072148
2007.000000	71.080281
2006.000000	71.093084
2005.000000	71.114247
2004.000000	71.143734
2003.000000	71.178525
2002.000000	71.216740
2001.000000	71.255655
2000.000000	71.291915
1999.000000	71.322791
1998.000000	71.348505
1997.000000	71.374427
1996.000000	71.407901
1995.000000	71.450668
1994.000000	71.496191
1993.000000	71.536800
1992.000000	71.572686
1991.000000	71.610542
1990.000000	71.653715
1989.000000	71.698324
1988.000000	71.738613
1987.000000	71.772880
1986.000000	71.803580
1985.000000	71.833551
1984.000000	71.864580
1983.000000	71.898324
1982.000000	71.937109
1981.000000	71.981151
1980.000000	72.030253
1979.000000	72.083464
1978.000000	72.137766
1977.000000	72.189907
1976.000000	72.239440
1975.000000	72.287967
1974.000000	72.336009
1973.000000	72.383664
1972.000000	72.433251
1971.000000	72.487125
1970.000000	72.542253
1969.000000	72.590447
1968.000000	72.625391
1967.000000	72.649286
1966.000000	72.671139
1965.000000	72.698653
1964.000000	72.732643
1963.000000	72.768080
1962.000000	72.798879
1961.000000	72.822931
1960.000000	72.842219
1959.000000	72.858050
1958.000000	72.868614
1957.000000	72.872027
1956.000000	72.870044
1955.000000	72.867075
1954.000000	72.865519
1953.000000	72.865986
1952.000000	72.866959
1951.000000	72.867060
1950.000000	72.865470
1949.000000	72.858552
1948.000000	72.843213
1947.000000	72.823156
1946.000000	72.805793
1945.000000	72.791774
1944.000000	72.772245
1943.000000	72.742847
1942.000000	72.716409
1941.000000	72.711813
1940.000000	72.735510
1939.000000	72.779962
1938.000000	72.832955
1937.000000	72.886761
1936.000000	72.939307
1935.000000	72.989788
1934.000000	73.036408
1933.000000	73.079898
1932.000000	73.121270
1931.000000	73.162666
1930.000000	73.206655
1929.000000	73.249929
1928.000000	73.291006
1927.000000	73.331803
1926.000000	73.376150
1925.000000	73.416385
1924.000000	73.435040
1923.000000	73.431557
1922.000000	73.429205
1921.000000	73.446017
1920.000000	73.475281
1919.000000	73.496817
1918.000000	73.505835
1917.000000	73.513860
1916.000000	73.524100
1915.000000	73.530490
1914.000000	73.530557
1913.000000	73.526097
1912.000000	73.515568
1911.000000	73.496474
1910.000000	73.471404
1909.000000	73.444636
1908.000000	73.420695
1907.000000	73.399346
1906.000000	73.381565
1905.000000	73.364021
1904.000000	73.335880
1903.000000	73.294232
1902.000000	73.247318
1901.000000	73.201320
1900.000000	73.159364
1899.000000	73.126602
1898.000000	73.111953
1897.000000	73.114576
1896.000000	73.119372
1895.000000	73.119522
1894.000000	73.128076
1893.000000	73.155649
1892.000000	73.191000
1891.000000	73.213035
1890.000000	73.216683
1889.000000	73.219410
1888.000000	73.237934
1887.000000	73.275264
1886.000000	73.327166
1885.000000	73.384271
1884.000000	73.434489
1883.000000	73.474122
1882.000000	73.507266
1881.000000	73.533170
1880.000000	73.547959
1879.000000	73.553351
1878.000000	73.559155
1877.000000	73.575164
1876.000000	73.599630
1875.000000	73.628213
1874.000000	73.667714
1873.000000	73.726660
1872.000000	73.799669
1871.000000	73.868490
1870.000000	73.913814
1869.000000	73.932518
1868.000000	73.940515
1867.000000	73.957353
1866.000000	73.997805
1865.000000	74.063948
1864.000000	74.143131
1863.000000	74.222936
1862.000000	74.302815
1861.000000	74.383996
1860.000000	74.460033
1859.000000	74.527084
1858.000000	74.592794
1857.000000	74.664227
1856.000000	74.737602
1855.000000	74.807460
1854.000000	74.877375
1853.000000	74.946601
1852.000000	75.014229
1851.000000	75.079359
1850.000000	75.138740
1849.000000	75.189588
1848.000000	75.234220
1847.000000	75.281694
1846.000000	75.332543
1845.000000	75.371518
1844.000000	75.399141
1843.000000	75.436573
1842.000000	75.487577
1841.000000	75.540967
1840.000000	75.589628
1839.000000	75.627606
1838.000000	75.656842
1837.000000	75.683242
1836.000000	75.711433
1835.000000	75.751633
1834.000000	75.816620
1833.000000	75.908691
1832.000000	76.014067
1831.000000	76.096888
1830.000000	76.139204
1829.000000	76.170826
1828.000000	76.220319
1827.000000	76.281989
1826.000000	76.333320
1825.000000	76.371720
1824.000000	76.417506
1823.000000	76.481623
1822.000000	76.559234
1821.000000	76.644364
1820.000000	76.729458
1819.000000	76.799507
1818.000000	76.849291
1817.000000	76.887493
1816.000000	76.922463
1815.000000	76.959536
1814.000000	77.001346
1813.000000	77.050351
1812.000000	77.097372
1811.000000	77.129826
1810.000000	77.157238
1809.000000	77.192873
1808.000000	77.228932
1807.000000	77.255014
1806.000000	77.280382
1805.000000	77.320343
1804.000000	77.371077
1803.000000	77.420786
1802.000000	77.462275
1801.000000	77.504586
1800.000000	77.553318
1799.000000	77.603029
1798.000000	77.650820
1797.000000	77.693950
1796.000000	77.727620
1795.000000	77.757252
1794.000000	77.785330
1793.000000	77.804370
1792.000000	77.811712
1791.000000	77.819119
1790.000000	77.840742
1789.000000	77.882590
1788.000000	77.935438
1787.000000	77.980875
1786.000000	78.009415
1785.000000	78.027831
1784.000000	78.046530
1783.000000	78.075509
1782.000000	78.106064
1781.000000	78.133662
1780.000000	78.169846
1779.000000	78.226959
1778.000000	78.301828
1777.000000	78.375278
1776.000000	78.441985
1775.000000	78.514131
1774.000000	78.586661
1773.000000	78.637566
1772.000000	78.682428
1771.000000	78.742445
1770.000000	78.809513
1769.000000	78.881956
1768.000000	78.965471
1767.000000	79.059417
1766.000000	79.154024
1765.000000	79.249095
1764.000000	79.343893
1763.000000	79.417564
1762.000000	79.453532
1761.000000	79.484660
1760.000000	79.538495
1759.000000	79.609468
1758.000000	79.674061
1757.000000	79.717200
1756.000000	79.761708
1755.000000	79.818143
1754.000000	79.871661
1753.000000	79.917088
1752.000000	79.961410
1751.000000	80.003536
1750.000000	80.032776
1749.000000	80.035209
1748.000000	80.026655
1747.000000	80.038725
1746.000000	80.066031
1745.000000	80.087845
1744.000000	80.097344
1743.000000	80.099295
1742.000000	80.098069
1741.000000	80.091646
1740.000000	80.074362
1739.000000	80.055935
1738.000000	80.043303
1737.000000	80.046174
1736.000000	80.069271
1735.000000	80.064435
1734.000000	80.033763
1733.000000	80.043682
1732.000000	80.061059
1731.000000	80.040029
1730.000000	79.990855
1729.000000	79.938564
1728.000000	79.905229
1727.000000	79.894579
1726.000000	79.887168
1725.000000	79.869268
1724.000000	79.833502
1723.000000	79.787577
1722.000000	79.754790
1721.000000	79.749447
1720.000000	79.761911
1719.000000	79.749631
1718.000000	79.708393
1717.000000	79.705509
1716.000000	79.734556
1715.000000	79.738993
1714.000000	79.734426
1713.000000	79.756410
1712.000000	79.796521
1711.000000	79.840068
1710.000000	79.901005
1709.000000	79.998286
1708.000000	80.128587
1707.000000	80.263374
1706.000000	80.389244
1705.000000	80.515864
1704.000000	80.635755
1703.000000	80.757485
1702.000000	80.908498
1701.000000	81.044850
1700.000000	81.153402
1699.000000	81.244475
1698.000000	81.302454
1697.000000	81.355277
1696.000000	81.426822
1695.000000	81.540227
1694.000000	81.664293
1693.000000	81.752196
1692.000000	81.816774
1691.000000	81.879224
1690.000000	81.929943
1689.000000	81.944819
1688.000000	81.942026
1687.000000	81.973318
1686.000000	82.060745
1685.000000	82.116603
1684.000000	82.125978
1683.000000	82.175057
1682.000000	82.213853
1681.000000	82.190583
1680.000000	82.142843
1679.000000	82.119283
1678.000000	82.124394
1677.000000	82.127596
1676.000000	82.102166
1675.000000	82.075376
1674.000000	82.062164
1673.000000	82.035700
1672.000000	81.991460
1671.000000	81.938897
1670.000000	81.867249
1669.000000	81.774084
1668.000000	81.679816
1667.000000	81.599589
1666.000000	81.528712
1665.000000	81.452239
1664.000000	81.343676
1663.000000	81.204883
1662.000000	81.055217
1661.000000	80.879927
1660.000000	80.668448
1659.000000	80.439518
1658.000000	80.193494
1657.000000	79.917505
1656.000000	79.626096
1655.000000	79.285625
1654.000000	78.671785
1653.000000	77.791579
1652.000000	77.000137
1651.000000	76.308347
1650.000000	75.545093
1649.000000	74.563577
1648.000000	73.155375
1647.000000	71.222838
1646.000000	68.979639
1645.000000	66.696386
1644.000000	64.419228
1643.000000	62.073019
1642.000000	59.619693
1641.000000	57.142675
1640.000000	54.854820
1639.000000	52.948756
1638.000000	51.498989
1637.000000	50.524703
1636.000000	50.150125
1635.000000	50.500782
1634.000000	51.407028
1633.000000	52.597512
1632.000000	53.956320
1631.000000	55.456012
1630.000000	57.057624
1629.000000	58.705357
1628.000000	60.344286
1627.000000	61.908978
1626.000000	63.353928
1625.000000	64.716084
1624.000000	66.064287
1623.000000	67.385372
1622.000000	68.566027
1621.000000	69.531548
1620.000000	70.344665
1619.000000	71.122944
1618.000000	71.936932
1617.000000	72.792056
1616.000000	73.643528
1615.000000	74.379850
1614.000000	74.925365
1613.000000	75.316309
1612.000000	75.617225
1611.000000	75.827510
1610.000000	75.865495
1609.000000	75.656719
1608.000000	75.175470
1607.000000	74.382341
1606.000000	73.170886
1605.000000	71.419910
1604.000000	69.097662
1603.000000	66.280229
1602.000000	63.129805
1601.000000	59.838661
1600.000000	56.493320
1599.000000	52.960933
1598.000000	48.906502
1597.000000	44.047755
1596.000000	38.483695
1595.000000	32.776105
1594.000000	27.663124
1593.000000	23.661224
1592.000000	20.949969
1591.000000	19.464631
1590.000000	18.950205
1589.000000	18.995177
1588.000000	19.193694
1587.000000	19.284458
1586.000000	19.120798
1585.000000	18.664109
1584.000000	18.038152
1583.000000	17.483126
1582.000000	17.171981
1581.000000	17.110006
1580.000000	17.236280
1579.000000	17.516953
1578.000000	17.889809
1577.000000	18.199869
1576.000000	18.318592
1575.000000	18.298327
1574.000000	18.237270
1573.000000	18.150895
1572.000000	18.083398
1571.000000	18.189688
1570.000000	18.635553
1569.000000	19.422002
1568.000000	20.445465
1567.000000	21.680536
1566.000000	23.120767
1565.000000	24.642411
1564.000000	26.080192
1563.000000	27.383392
1562.000000	28.647155
1561.000000	30.031644
1560.000000	31.748534
1559.000000	33.904241
1558.000000	36.135825
1557.000000	37.973715
1556.000000	39.477713
1555.000000	40.917598
1554.000000	42.364725
1553.000000	43.712973
1552.000000	44.890138
1551.000000	45.955105
1550.000000	46.985588
1549.000000	47.983134
1548.000000	48.931258
1547.000000	49.871818
1546.000000	50.850441
1545.000000	51.836784
1544.000000	52.770943
1543.000000	53.650635
1542.000000	54.522478
1541.000000	55.385672
1540.000000	56.204440
1539.000000	56.990525
1538.000000	57.723682
1537.000000	58.370581
1536.000000	58.965660
1535.000000	59.561144
1534.000000	60.147378
1533.000000	60.692228
1532.000000	61.193800
1531.000000	61.679094
1530.000000	62.179044
1529.000000	62.681889
1528.000000	63.150592
1527.000000	63.579235
1526.000000	63.983441
1525.000000	64.368065
1524.000000	64.735049
1523.000000	65.089305
1522.000000	65.412719
1521.000000	65.698799
1520.000000	65.976534
1519.000000	66.261819
1518.000000	66.536595
1517.000000	66.764805
1516.000000	66.951792
1515.000000	67.148301
1514.000000	67.377347
1513.000000	67.627466
1512.000000	67.876393
1511.000000	68.120036
1510.000000	68.368748
1509.000000	68.610315
1508.000000	68.766253
1507.000000	68.789682
1506.000000	68.836707
1505.000000	68.991611
1504.000000	69.178830
1503.000000	69.372235
1502.000000	69.585317
1501.000000	69.811440
1500.000000	70.035362
1499.000000	70.251580
1498.000000	70.460763
1497.000000	70.670584
1496.000000	70.893953
1495.000000	71.143945
1494.000000	71.420449
1493.000000	71.717325
1492.000000	72.025339
1491.000000	72.323957
1490.000000	72.596481
1489.000000	72.848468
1488.000000	73.085156
1487.000000	73.316195
1486.000000	73.551799
1485.000000	73.764343
1484.000000	73.938016
1483.000000	74.079766
1482.000000	74.182257
1481.000000	74.230366
1480.000000	74.234511
1479.000000	74.214788
1478.000000	74.139918
1477.000000	73.943481
1476.000000	73.605667
1475.000000	73.175078
1474.000000	72.656858
1473.000000	72.020974
1472.000000	71.369011
1471.000000	70.867756
1470.000000	70.547253
1469.000000	70.344982
1468.000000	70.227576
1467.000000	70.189996
1466.000000	70.168296
1465.000000	70.000930
1464.000000	69.521527
1463.000000	68.601674
1462.000000	67.138897
1461.000000	65.088525
1460.000000	62.483867
1459.000000	59.339261
1458.000000	55.599522
1457.000000	51.611997
1456.000000	48.273662
1455.000000	45.972650
1454.000000	44.289444
1453.000000	42.810981
1452.000000	41.505404
1451.000000	40.576542
1450.000000	40.216582
1449.000000	40.518481
1448.000000	41.452513
1447.000000	42.811786
1446.000000	44.327721
1445.000000	45.898294
1444.000000	47.583900
1443.000000	49.413041
1442.000000	51.301674
1441.000000	53.130922
1440.000000	54.839157
1439.000000	56.441958
1438.000000	58.015654
1437.000000	59.621248
1436.000000	61.201389
1435.000000	62.611286
1434.000000	63.814323
1433.000000	64.898449
1432.000000	65.913002
1431.000000	66.819755
1430.000000	67.583424
1429.000000	68.235527
1428.000000	68.814900
1427.000000	69.339652
1426.000000	69.822317
1425.000000	70.272489
1424.000000	70.689583
1423.000000	71.064620
1422.000000	71.415852
1421.000000	71.773890
1420.000000	72.120171
1419.000000	72.402477
1418.000000	72.636224
1417.000000	72.881424
1416.000000	73.153886
1415.000000	73.433549
1414.000000	73.707581
1413.000000	73.978711
1412.000000	74.238305
1411.000000	74.461822
1410.000000	74.645861
1409.000000	74.809770
1408.000000	74.936255
1407.000000	74.961960
1406.000000	74.807276
1405.000000	74.405271
1404.000000	73.742418
1403.000000	72.884451
1402.000000	71.950781
1401.000000	71.039024
1400.000000	70.193359
1399.000000	69.441312
1398.000000	68.827761
1397.000000	68.424455
1396.000000	68.344012
1395.000000	68.703036
1394.000000	69.481852
1393.000000	70.483386
1392.000000	71.482522
1391.000000	72.355611
1390.000000	73.078670
1389.000000	73.676818
1388.000000	74.185458
1387.000000	74.640775
1386.000000	75.076262
1385.000000	75.508893
1384.000000	75.936611
1383.000000	76.340322
1382.000000	76.703673
1381.000000	77.021196
1380.000000	77.286414
1379.000000	77.490393
1378.000000	77.628217
1377.000000	77.680252
1376.000000	77.565867
1375.000000	77.132180
1374.000000	76.200362
1373.000000	74.637038
1372.000000	72.378493
1371.000000	69.448352
1370.000000	66.029369
1369.000000	62.547106
1368.000000	59.600794
1367.000000	57.663298
1366.000000	56.820526
1365.000000	56.801315
1364.000000	57.205145
1363.000000	57.748212
1362.000000	58.413974
1361.000000	59.402340
1360.000000	60.907864
1359.000000	62.940663
1358.000000	65.301996
1357.000000	67.675698
1356.000000	69.777568
1355.000000	71.467536
1354.000000	72.763544
1353.000000	73.772027
1352.000000	74.591446
1351.000000	75.279413
1350.000000	75.867990
1349.000000	76.382826
1348.000000	76.844371
1347.000000	77.263950
1346.000000	77.649125
1345.000000	78.005572
1344.000000	78.335135
1343.000000	78.633947
1342.000000	78.896957
1341.000000	79.117829
1340.000000	79.291590
1339.000000	79.428013
1338.000000	79.553531
1337.000000	79.693776
1336.000000	79.855881
1335.000000	80.029544
1334.000000	80.198520
1333.000000	80.339436
1332.000000	80.414704
1331.000000	80.381659
1330.000000	80.211754
1329.000000	79.898671
1328.000000	79.436110
1327.000000	78.797461
1326.000000	77.935832
1325.000000	76.808850
1324.000000	75.419992
1323.000000	73.814452
1322.000000	72.031575
1321.000000	70.088237
1320.000000	68.041282
1319.000000	66.053895
1318.000000	64.335983
1317.000000	63.001878
1316.000000	62.038755
1315.000000	61.432950
1314.000000	61.260144
1313.000000	61.611489
1312.000000	62.442678
1311.000000	63.533017
1310.000000	64.631962
1309.000000	65.634200
1308.000000	66.615627
1307.000000	67.721979
1306.000000	69.016532
1305.000000	70.418156
1304.000000	71.757279
1303.000000	72.873981
1302.000000	73.683351
1301.000000	74.184390
1300.000000	74.427638
1299.000000	74.488208
1298.000000	74.444149
1297.000000	74.339259
1296.000000	74.158569
1295.000000	73.831080
1294.000000	73.267541
1293.000000	72.397251
1292.000000	71.185762
1291.000000	69.653942
1290.000000	67.858145
1289.000000	65.835815
1288.000000	63.568583
1287.000000	61.013855
1286.000000	58.204470
1285.000000	55.337504
1284.000000	52.773864
1283.000000	50.938092
1282.000000	50.169227
1281.000000	50.583529
1280.000000	52.042480
1279.000000	54.205507
1278.000000	56.630292
1277.000000	58.910761
1276.000000	60.753563
1275.000000	62.000356
1274.000000	62.665630
1273.000000	62.983811
1272.000000	63.368185
1271.000000	64.208058
1270.000000	65.632301
1269.000000	67.454361
1268.000000	69.343648
1267.000000	71.046513
1266.000000	72.477680
1265.000000	73.667407
1264.000000	74.673048
1263.000000	75.540922
1262.000000	76.306572
1261.000000	76.996591
1260.000000	77.621533
1259.000000	78.177716
1258.000000	78.663854
1257.000000	79.081877
1256.000000	79.431324
1255.000000	79.716059
1254.000000	79.953090
1253.000000	80.168589
1252.000000	80.381959
1251.000000	80.602898
1250.000000	80.838333
1249.000000	81.089281
1248.000000	81.344110
1247.000000	81.583837
1246.000000	81.796024
1245.000000	81.978054
1244.000000	82.129587
1243.000000	82.253594
1242.000000	82.362613
1241.000000	82.472719
1240.000000	82.590028
1239.000000	82.709313
1238.000000	82.824654
1237.000000	82.930661
1236.000000	83.015308
1235.000000	83.064565
1234.000000	83.073386
1233.000000	83.045251
1232.000000	82.979515
1231.000000	82.866574
1230.000000	82.695895
1229.000000	82.448191
1228.000000	82.085293
1227.000000	81.549047
1226.000000	80.764212
1225.000000	79.645130
1224.000000	78.086878
1223.000000	75.992883
1222.000000	73.323709
1221.000000	70.125745
1220.000000	66.549090
1219.000000	62.816986
1218.000000	59.158240
1217.000000	55.735828
1216.000000	52.620192
1215.000000	49.814378
1214.000000	47.301021
1213.000000	45.079878
1212.000000	43.180330
1211.000000	41.646706
1210.000000	40.483218
1209.000000	39.650070
1208.000000	39.105705
1207.000000	38.825726
1206.000000	38.796796
1205.000000	38.985260
1204.000000	39.338149
1203.000000	39.797555
1202.000000	40.314192
1201.000000	40.893674
1200.000000	41.616674
1199.000000	42.608568
1198.000000	43.971114
1197.000000	45.727778
1196.000000	47.830049
1195.000000	50.175820
1194.000000	52.635047
1193.000000	55.084877
1192.000000	57.431655
1191.000000	59.613250
1190.000000	61.592568
1189.000000	63.356410
1188.000000	64.910272
1187.000000	66.272135
1186.000000	67.458086
1185.000000	68.481212
1184.000000	69.353401
1183.000000	70.077592
1182.000000	70.654191
1181.000000	71.079542
1180.000000	71.351098
1179.000000	71.477843
1178.000000	71.481406
1177.000000	71.397042
1176.000000	71.263461
1175.000000	71.117098
1174.000000	70.990891
1173.000000	70.907369
1172.000000	70.874282
1171.000000	70.882895
1170.000000	70.911133
1169.000000	70.927712
1168.000000	70.895525
1167.000000	70.779646
1166.000000	70.559900
1165.000000	70.244227
1164.000000	69.877081
1163.000000	69.540277
1162.000000	69.335224
1161.000000	69.351315
1160.000000	69.633428
1159.000000	70.161815
1158.000000	70.865660
1157.000000	71.655240
1156.000000	72.453992
1155.000000	73.213215
1154.000000	73.906820
1153.000000	74.518801
1152.000000	75.030917
1151.000000	75.420767
1150.000000	75.670136
1149.000000	75.778716
1148.000000	75.760449
1147.000000	75.636368
1146.000000	75.426447
1145.000000	75.129644
1144.000000	74.715626
1143.000000	74.118711
1142.000000	73.258401
1141.000000	72.079536
1140.000000	70.574223
1139.000000	68.791454
1138.000000	66.790611
1137.000000	64.582959
1136.000000	62.110163
1135.000000	59.258742
1134.000000	55.933442
1133.000000	52.131019
1132.000000	47.985554
1131.000000	43.747402
1130.000000	39.698700
1129.000000	36.077307
1128.000000	33.073211
1127.000000	30.840026
1126.000000	29.451968
1125.000000	28.881201
1124.000000	28.985627
1123.000000	29.513620
1122.000000	30.133083
1121.000000	30.493547
1120.000000	30.326895
1119.000000	29.498798
1118.000000	28.034870
1117.000000	26.176832
1116.000000	24.410342
1115.000000	23.364547
1114.000000	23.548986
1113.000000	25.124888
1112.000000	27.871482
1111.000000	31.282865
1110.000000	34.740384
1109.000000	37.706254
1108.000000	39.876177
1107.000000	41.207348
1106.000000	41.817674
1105.000000	41.875700
1104.000000	41.597730
1103.000000	41.297152
1102.000000	41.322477
1101.000000	41.890208
1100.000000	42.976387
1099.000000	44.392963
1098.000000	45.977700
1097.000000	47.708650
1096.000000	49.637572
1095.000000	51.757326
1094.000000	53.953132
1093.000000	56.065137
1092.000000	57.980771
1091.000000	59.672421
1090.000000	61.184124
1089.000000	62.592090
1088.000000	63.964282
1087.000000	65.331788
1086.000000	66.690691
1085.000000	68.011843
1084.000000	69.245407
1083.000000	70.342260
1082.000000	71.277838
1081.000000	72.063677
1080.000000	72.728214
1079.000000	73.291443
1078.000000	73.768665
1077.000000	74.163424
1076.000000	74.455040
1075.000000	74.599145
1074.000000	74.536694
1073.000000	74.216806
1072.000000	73.572642
1071.000000	72.509761
1070.000000	70.910018
1069.000000	68.602734
1068.000000	65.386701
1067.000000	61.090315
1066.000000	55.719618
1065.000000	49.597097
1064.000000	43.324165
1063.000000	37.565292
1062.000000	32.742516
1061.000000	28.871821
1060.000000	25.655051
1059.000000	22.736958
1058.000000	19.906489
1057.000000	17.214304
1056.000000	14.973361
1055.000000	13.599355
1054.000000	13.447660
1053.000000	14.661518
1052.000000	17.142515
1051.000000	20.591246
1050.000000	24.561478
1049.000000	28.621929
1048.000000	32.476236
1047.000000	35.994692
1046.000000	39.171356
1045.000000	42.055254
1044.000000	44.699958
1043.000000	47.129842
1042.000000	49.335787
1041.000000	51.293065
1040.000000	52.996258
1039.000000	54.459565
1038.000000	55.712644
1037.000000	56.798710
1036.000000	57.760913
1035.000000	58.639891
1034.000000	59.463921
1033.000000	60.248203
1032.000000	60.996938
1031.000000	61.701926
1030.000000	62.354124
1029.000000	62.950469
1028.000000	63.494268
1027.000000	63.994054
1026.000000	64.462334
1025.000000	64.915332
1024.000000	65.363011
1023.000000	65.800675
1022.000000	66.214285
1021.000000	66.581840
1020.000000	66.874366
1019.000000	67.053220
1018.000000	67.071383
1017.000000	66.878571
1016.000000	66.400701
1015.000000	65.548158
1014.000000	64.239120
1013.000000	62.425197
1012.000000	60.122263
1011.000000	57.414546
1010.000000	54.455933
1009.000000	51.446110
1008.000000	48.597913
1007.000000	46.130642
1006.000000	44.300702
1005.000000	43.385361
1004.000000	43.565389
1003.000000	44.763297
1002.000000	46.577776
1001.000000	48.436601
1000.000000	49.817657
999.000000	50.373247
998.000000	49.960121
997.000000	48.668783
996.000000	46.855839
995.000000	45.067136
994.000000	43.810085
993.000000	43.332258
992.000000	43.589109
991.000000	44.394814
990.000000	45.591757
989.000000	47.111797
988.000000	48.937292
987.000000	51.008109
986.000000	53.192222
985.000000	55.332745
984.000000	57.312361
983.000000	59.086303
982.000000	60.665068
981.000000	62.079651
980.000000	63.351717
979.000000	64.488298
978.000000	65.482456
977.000000	66.326621
976.000000	67.021957
975.000000	67.582875
974.000000	68.044558
973.000000	68.451326
972.000000	68.844336
971.000000	69.252341
970.000000	69.686815
969.000000	70.142577
968.000000	70.596942
967.000000	71.019338
966.000000	71.386149
965.000000	71.687757
964.000000	71.928273
963.000000	72.123642
962.000000	72.301111
961.000000	72.490430
960.000000	72.708947
959.000000	72.957205
958.000000	73.224177
957.000000	73.492308
956.000000	73.740213
955.000000	73.950150
954.000000	74.118982
953.000000	74.258069
952.000000	74.382968
951.000000	74.507535
950.000000	74.644350
949.000000	74.801160
948.000000	74.972635
947.000000	75.142193
946.000000	75.295333
945.000000	75.426995
944.000000	75.538573
943.000000	75.636660
942.000000	75.735921
941.000000	75.854327
940.000000	76.001208
939.000000	76.173221
938.000000	76.359970
937.000000	76.546517
936.000000	76.712064
935.000000	76.837364
934.000000	76.919103
933.000000	76.972613
932.000000	77.020014
931.000000	77.081980
930.000000	77.177388
929.000000	77.317589
928.000000	77.495619
927.000000	77.687636
926.000000	77.867568
925.000000	78.015255
924.000000	78.115152
923.000000	78.161509
922.000000	78.168959
921.000000	78.168685
920.000000	78.190180
919.000000	78.251250
918.000000	78.361084
917.000000	78.518741
916.000000	78.705329
915.000000	78.889060
914.000000	79.044084
913.000000	79.159654
912.000000	79.232962
911.000000	79.267668
910.000000	79.280895
909.000000	79.296963
908.000000	79.327307
907.000000	79.362716
906.000000	79.385731
905.000000	79.376563
904.000000	79.308744
903.000000	79.163204
902.000000	78.958932
901.000000	78.759722
900.000000	78.635078
899.000000	78.608130
898.000000	78.638805
897.000000	78.649266
896.000000	78.574495
895.000000	78.407146
894.000000	78.192209
893.000000	77.958978
892.000000	77.657787
891.000000	77.194800
890.000000	76.547428
889.000000	75.826554
888.000000	75.202206
887.000000	74.780003
886.000000	74.558570
885.000000	74.482931
884.000000	74.502515
883.000000	74.567747
882.000000	74.620539
881.000000	74.627441
880.000000	74.625520
879.000000	74.720202
878.000000	75.016053
877.000000	75.548486
876.000000	76.266173
875.000000	77.067226
874.000000	77.850848
873.000000	78.541839
872.000000	79.092743
871.000000	79.486064
870.000000	79.740684
869.000000	79.898699
868.000000	79.998819
867.000000	80.058830
866.000000	80.078644
865.000000	80.052459
864.000000	79.974675
863.000000	79.852868
862.000000	79.719428
861.000000	79.621263
860.000000	79.591290
859.000000	79.634135
858.000000	79.738718
857.000000	79.895904
856.000000	80.102649
855.000000	80.356539
854.000000	80.653325
853.000000	80.979690
852.000000	81.304486
851.000000	81.586057
850.000000	81.794793
849.000000	81.925044
848.000000	81.987257
847.000000	82.000313
846.000000	81.992478
845.000000	81.996939
844.000000	82.036125
843.000000	82.114871
842.000000	82.228623
841.000000	82.368127
840.000000	82.515213
839.000000	82.646204
838.000000	82.746581
837.000000	82.815605
836.000000	82.855497
835.000000	82.868186
834.000000	82.864862
833.000000	82.865522
832.000000	82.882901
831.000000	82.915892
830.000000	82.962066
829.000000	83.025119
828.000000	83.105590
827.000000	83.195562
826.000000	83.287902
825.000000	83.379334
824.000000	83.459589
823.000000	83.511497
822.000000	83.529542
821.000000	83.526289
820.000000	83.515917
819.000000	83.503853
818.000000	83.495642
817.000000	83.501855
816.000000	83.525774
815.000000	83.556692
814.000000	83.578866
813.000000	83.573253
812.000000	83.505458
811.000000	83.327198
810.000000	83.010214
809.000000	82.581679
808.000000	82.121980
807.000000	81.727464
806.000000	81.463493
805.000000	81.331848
804.000000	81.272751
803.000000	81.201612
802.000000	81.051289
801.000000	80.779846
800.000000	80.351486
799.000000	79.731390
798.000000	78.896846
797.000000	77.843806
796.000000	76.575609
795.000000	75.103938
794.000000	73.468206
793.000000	71.743716
792.000000	70.034861
791.000000	68.464158
790.000000	67.159640
789.000000	66.223888
788.000000	65.701575
787.000000	65.567968
786.000000	65.751398
785.000000	66.163232
784.000000	66.705882
783.000000	67.281198
782.000000	67.805901
781.000000	68.227963
780.000000	68.529996
779.000000	68.728821
778.000000	68.879130
777.000000	69.057322
776.000000	69.322887
775.000000	69.690899
774.000000	70.140653
773.000000	70.643358
772.000000	71.181089
771.000000	71.755837
770.000000	72.391645
769.000000	73.115710
768.000000	73.927790
767.000000	74.791945
766.000000	75.662678
765.000000	76.509096
764.000000	77.311143
763.000000	78.050508
762.000000	78.715975
761.000000	79.306846
760.000000	79.821274
759.000000	80.253491
758.000000	80.607382
757.000000	80.900519
756.000000	81.149371
755.000000	81.362158
754.000000	81.551517
753.000000	81.736551
752.000000	81.925041
751.000000	82.106757
750.000000	82.269268
749.000000	82.406718
748.000000	82.506929
747.000000	82.547548
746.000000	82.515505
745.000000	82.417036
744.000000	82.262799
743.000000	82.058187
742.000000	81.816015
741.000000	81.563736
740.000000	81.328626
739.000000	81.127408
738.000000	80.972162
737.000000	80.865842
736.000000	80.780883
735.000000	80.657995
734.000000	80.440110
733.000000	80.100494
732.000000	79.641004
731.000000	79.089865
730.000000	78.513593
729.000000	78.009373
728.000000	77.664058
727.000000	77.520268
726.000000	77.578208
725.000000	77.808155
724.000000	78.147572
723.000000	78.507087
722.000000	78.803141
721.000000	78.983844
720.000000	79.025151
719.000000	78.925910
718.000000	78.719585
717.000000	78.473177
716.000000	78.259318
715.000000	78.132660
714.000000	78.129853
713.000000	78.265823
712.000000	78.514551
711.000000	78.812831
710.000000	79.102775
709.000000	79.362680
708.000000	79.595851
707.000000	79.814506
706.000000	80.045376
705.000000	80.326877
704.000000	80.677556
703.000000	81.077863
702.000000	81.495219
701.000000	81.904558
700.000000	82.272912
699.000000	82.556840
698.000000	82.735962
697.000000	82.832709
696.000000	82.882479
695.000000	82.904740
694.000000	82.920824
693.000000	82.965019
692.000000	83.051845
691.000000	83.158798
690.000000	83.259880
689.000000	83.354587
688.000000	83.441925
687.000000	83.496551
686.000000	83.506613
685.000000	83.500526
684.000000	83.505292
683.000000	83.515362
682.000000	83.526621
681.000000	83.563779
680.000000	83.634385
679.000000	83.708308
678.000000	83.764127
677.000000	83.822143
676.000000	83.913335
675.000000	84.021460
674.000000	84.148772
673.000000	84.362803
672.000000	84.713080
671.000000	85.150018
670.000000	85.606063
669.000000	85.932626
668.000000	85.730574
667.000000	85.140367
666.000000	84.796228
665.000000	84.710051
664.000000	84.673764
663.000000	84.678697
662.000000	84.771047
661.000000	84.918588
660.000000	85.049305
659.000000	85.139228
658.000000	85.189966
657.000000	85.186893
656.000000	85.135069
655.000000	85.066602
654.000000	85.012954
653.000000	84.981317
652.000000	84.975518
651.000000	85.006898
650.000000	85.063987
649.000000	85.104094
648.000000	85.098910
647.000000	85.059664
646.000000	85.004208
645.000000	84.933917
644.000000	84.851003
643.000000	84.772355
642.000000	84.710984
641.000000	84.658202
640.000000	84.602642
639.000000	84.550545
638.000000	84.510648
637.000000	84.477937
636.000000	84.446917
635.000000	84.423492
634.000000	84.413710
633.000000	84.412722
632.000000	84.411696
631.000000	84.405139
630.000000	84.383823
629.000000	84.331656
628.000000	84.241269
627.000000	84.124771
626.000000	84.003580
625.000000	83.897432
624.000000	83.823520
623.000000	83.795965
622.000000	83.814363
621.000000	83.855609
620.000000	83.881838
619.000000	83.853374
618.000000	83.740729
617.000000	83.537933
616.000000	83.271013
615.000000	82.986653
614.000000	82.725894
613.000000	82.509186
612.000000	82.340385
611.000000	82.211405
610.000000	82.098331
609.000000	81.960360
608.000000	81.754513
607.000000	81.450277
606.000000	81.032907
605.000000	80.505185
604.000000	79.888488
603.000000	79.216872
602.000000	78.516105
601.000000	77.788301
600.000000	77.019208
599.000000	76.194641
598.000000	75.301785
597.000000	74.323597
596.000000	73.251326
595.000000	72.096581
594.000000	70.870590
593.000000	69.551667
592.000000	68.088496
591.000000	66.454228
590.000000	64.714503
589.000000	63.059806
588.000000	61.748185
587.000000	60.952469
586.000000	60.621725
585.000000	60.529942
584.000000	60.497890
583.000000	60.508082
582.000000	60.602160
581.000000	60.764147
580.000000	60.951048
579.000000	61.178277
578.000000	61.498647
577.000000	61.940919
576.000000	62.509274
575.000000	63.197508
574.000000	63.964759
573.000000	64.726792
572.000000	65.409625
571.000000	65.996168
570.000000	66.510225
569.000000	66.968070
568.000000	67.361265
567.000000	67.657246
566.000000	67.791204
565.000000	67.679960
564.000000	67.267403
563.000000	66.577988
562.000000	65.721230
561.000000	64.844620
560.000000	64.074026
559.000000	63.458478
558.000000	62.948433
557.000000	62.466946
556.000000	62.051068
555.000000	61.893875
554.000000	62.209130
553.000000	63.058908
552.000000	64.322840
551.000000	65.781435
550.000000	67.200754
549.000000	68.410265
548.000000	69.349241
547.000000	70.042728
546.000000	70.537340
545.000000	70.870948
544.000000	71.087112
543.000000	71.242814
542.000000	71.385272
541.000000	71.525089
540.000000	71.649285
539.000000	71.744012
538.000000	71.797244
537.000000	71.797652
536.000000	71.745535
535.000000	71.662193
534.000000	71.575518
533.000000	71.503589
532.000000	71.450837
531.000000	71.415806
530.000000	71.390876
529.000000	71.353062
528.000000	71.258709
527.000000	71.054306
526.000000	70.692234
525.000000	70.156892
524.000000	69.480130
523.000000	68.719750
522.000000	67.931649
521.000000	67.153777
520.000000	66.402545
519.000000	65.658935
518.000000	64.847121
517.000000	63.861218
516.000000	62.644674
515.000000	61.245487
514.000000	59.796991
513.000000	58.478098
512.000000	57.486749
511.000000	57.002220
510.000000	57.106161
509.000000	57.747537
508.000000	58.806710
507.000000	60.143166
506.000000	61.601238
505.000000	63.051103
504.000000	64.446259
503.000000	65.808883
502.000000	67.146484
501.000000	68.423870
500.000000	69.610187
499.000000	70.705847
498.000000	71.703819
497.000000	72.569818
496.000000	73.267849
495.000000	73.783753
494.000000	74.131508
493.000000	74.344924
492.000000	74.480737
491.000000	74.609237
490.000000	74.778411
489.000000	74.999453
488.000000	75.248828
487.000000	75.476505
486.000000	75.603655
485.000000	75.527324
484.000000	75.157728
483.000000	74.456171
482.000000	73.454276
481.000000	72.255843
480.000000	71.032040
479.000000	69.975864
478.000000	69.198581
477.000000	68.669386
476.000000	68.273004
475.000000	67.917707
474.000000	67.570570
473.000000	67.252654
472.000000	67.053349
471.000000	67.106895
470.000000	67.495243
469.000000	68.192241
468.000000	69.108471
467.000000	70.127646
466.000000	71.107871
465.000000	71.918247
464.000000	72.485763
463.000000	72.831307
462.000000	73.076502
461.000000	73.391726
460.000000	73.919260
459.000000	74.716956
458.000000	75.705402
457.000000	76.672930
456.000000	77.418229
455.000000	77.879104
454.000000	78.108432
453.000000	78.196603
452.000000	78.243593
451.000000	78.352792
450.000000	78.587989
449.000000	78.940325
448.000000	79.322835
447.000000	79.600912
446.000000	79.665482
445.000000	79.490189
444.000000	79.120888
443.000000	78.662154
442.000000	78.270948
441.000000	78.096269
440.000000	78.205317
439.000000	78.570190
438.000000	79.106081
437.000000	79.695039
436.000000	80.186075
435.000000	80.430197
434.000000	80.358570
433.000000	80.001281
432.000000	79.430150
431.000000	78.740768
430.000000	78.075141
429.000000	77.579151
428.000000	77.333173
427.000000	77.335089
426.000000	77.517773
425.000000	77.769917
424.000000	77.969205
423.000000	78.046632
422.000000	78.028504
421.000000	77.987018
420.000000	77.965026
419.000000	78.000807
418.000000	78.173933
417.000000	78.500429
416.000000	78.888328
415.000000	79.232949
414.000000	79.478521
413.000000	79.630795
412.000000	79.707219
411.000000	79.700567
410.000000	79.642215
409.000000	79.615275
408.000000	79.664137
407.000000	79.735761
406.000000	79.768340
405.000000	79.744450
404.000000	79.749135
403.000000	79.761117
402.000000	79.925214
401.000000	80.009066
400.000000	79.348302
