PE IR       SUBTECH     SPECTRUM    ASCII       PEDS        4.00        
   -1
23ms047-cis.asc
24/10/21
16:06:17.00
24/10/21
16:06:17.00
Administrator
Sample 1321 By Administrator Date Monday, October 21 2024
400.000000
#HDR
-1
-1
#GR
cm-1
%T
1.0
0.0
4000.000000
-1.000000
3601
8
86.460948
5.148988
#DATA
4000.000000	54.472267
3999.000000	54.458239
3998.000000	54.445927
3997.000000	54.435616
3996.000000	54.428296
3995.000000	54.424348
3994.000000	54.422858
3993.000000	54.422744
3992.000000	54.424056
3991.000000	54.427740
3990.000000	54.434407
3989.000000	54.443885
3988.000000	54.456151
3987.000000	54.471872
3986.000000	54.491815
3985.000000	54.516149
3984.000000	54.544522
3983.000000	54.576590
3982.000000	54.611934
3981.000000	54.649651
3980.000000	54.688508
3979.000000	54.727714
3978.000000	54.767494
3977.000000	54.808541
3976.000000	54.851018
3975.000000	54.894165
3974.000000	54.936737
3973.000000	54.977549
3972.000000	55.015946
3971.000000	55.052231
3970.000000	55.087386
3969.000000	55.122571
3968.000000	55.158689
3967.000000	55.196464
3966.000000	55.236548
3965.000000	55.279664
3964.000000	55.326633
3963.000000	55.378054
3962.000000	55.433518
3961.000000	55.491191
3960.000000	55.549084
3959.000000	55.606846
3958.000000	55.665239
3957.000000	55.724543
3956.000000	55.783663
3955.000000	55.841178
3954.000000	55.895989
3953.000000	55.947191
3952.000000	55.994449
3951.000000	56.038417
3950.000000	56.081069
3949.000000	56.124352
3948.000000	56.168120
3947.000000	56.209541
3946.000000	56.246452
3945.000000	56.281183
3944.000000	56.318918
3943.000000	56.362531
3942.000000	56.409844
3941.000000	56.456885
3940.000000	56.503427
3939.000000	56.552445
3938.000000	56.603551
3937.000000	56.651996
3936.000000	56.693275
3935.000000	56.727964
3934.000000	56.760615
3933.000000	56.794820
3932.000000	56.831249
3931.000000	56.868096
3930.000000	56.903096
3929.000000	56.933982
3928.000000	56.958287
3927.000000	56.976625
3926.000000	56.993823
3925.000000	57.013945
3924.000000	57.034874
3923.000000	57.052461
3922.000000	57.068476
3921.000000	57.086893
3920.000000	57.105845
3919.000000	57.120800
3918.000000	57.132869
3917.000000	57.147942
3916.000000	57.167511
3915.000000	57.188469
3914.000000	57.210587
3913.000000	57.236927
3912.000000	57.266919
3911.000000	57.296882
3910.000000	57.324034
3909.000000	57.349819
3908.000000	57.375315
3907.000000	57.399357
3906.000000	57.419357
3905.000000	57.433922
3904.000000	57.443270
3903.000000	57.448107
3902.000000	57.454292
3901.000000	57.473860
3900.000000	57.513606
3899.000000	57.566381
3898.000000	57.619328
3897.000000	57.669531
3896.000000	57.724149
3895.000000	57.786808
3894.000000	57.851137
3893.000000	57.911001
3892.000000	57.967049
3891.000000	58.022171
3890.000000	58.069774
3889.000000	58.107560
3888.000000	58.145717
3887.000000	58.189727
3886.000000	58.234264
3885.000000	58.269453
3884.000000	58.289029
3883.000000	58.305938
3882.000000	58.338779
3881.000000	58.386453
3880.000000	58.432321
3879.000000	58.460538
3878.000000	58.469864
3877.000000	58.475530
3876.000000	58.489122
3875.000000	58.510299
3874.000000	58.531727
3873.000000	58.544849
3872.000000	58.551503
3871.000000	58.565634
3870.000000	58.595532
3869.000000	58.628245
3868.000000	58.647806
3867.000000	58.667866
3866.000000	58.707261
3865.000000	58.755624
3864.000000	58.792555
3863.000000	58.816981
3862.000000	58.842756
3861.000000	58.877658
3860.000000	58.918055
3859.000000	58.967883
3858.000000	59.036442
3857.000000	59.120856
3856.000000	59.193444
3855.000000	59.220700
3854.000000	59.205763
3853.000000	59.181426
3852.000000	59.152586
3851.000000	59.129132
3850.000000	59.148504
3849.000000	59.211977
3848.000000	59.286971
3847.000000	59.351340
3846.000000	59.403391
3845.000000	59.447438
3844.000000	59.485133
3843.000000	59.518856
3842.000000	59.551500
3841.000000	59.586831
3840.000000	59.625145
3839.000000	59.660932
3838.000000	59.686472
3837.000000	59.703152
3836.000000	59.720548
3835.000000	59.748050
3834.000000	59.786700
3833.000000	59.830082
3832.000000	59.871965
3831.000000	59.908892
3830.000000	59.940214
3829.000000	59.971064
3828.000000	60.009608
3827.000000	60.059783
3826.000000	60.115115
3825.000000	60.164677
3824.000000	60.205376
3823.000000	60.242480
3822.000000	60.280593
3821.000000	60.322201
3820.000000	60.355292
3819.000000	60.374334
3818.000000	60.400882
3817.000000	60.442859
3816.000000	60.484231
3815.000000	60.507180
3814.000000	60.512179
3813.000000	60.527201
3812.000000	60.572762
3811.000000	60.634086
3810.000000	60.688081
3809.000000	60.729501
3808.000000	60.767594
3807.000000	60.808271
3806.000000	60.843123
3805.000000	60.866868
3804.000000	60.896098
3803.000000	60.939930
3802.000000	60.984134
3801.000000	61.012886
3800.000000	61.016732
3799.000000	61.014586
3798.000000	61.039791
3797.000000	61.091484
3796.000000	61.143771
3795.000000	61.180760
3794.000000	61.208994
3793.000000	61.243492
3792.000000	61.287484
3791.000000	61.331915
3790.000000	61.370568
3789.000000	61.404397
3788.000000	61.435474
3787.000000	61.464103
3786.000000	61.492265
3785.000000	61.522694
3784.000000	61.553986
3783.000000	61.581766
3782.000000	61.606613
3781.000000	61.634312
3780.000000	61.667252
3779.000000	61.700661
3778.000000	61.727080
3777.000000	61.748253
3776.000000	61.775040
3775.000000	61.812855
3774.000000	61.854293
3773.000000	61.891426
3772.000000	61.926799
3771.000000	61.967895
3770.000000	62.012927
3769.000000	62.051621
3768.000000	62.081819
3767.000000	62.117606
3766.000000	62.169954
3765.000000	62.231216
3764.000000	62.284686
3763.000000	62.325103
3762.000000	62.363669
3761.000000	62.409560
3760.000000	62.458795
3759.000000	62.505964
3758.000000	62.553124
3757.000000	62.605435
3756.000000	62.662059
3755.000000	62.720368
3754.000000	62.778651
3753.000000	62.831276
3752.000000	62.871938
3751.000000	62.904255
3750.000000	62.937996
3749.000000	62.972658
3748.000000	63.003790
3747.000000	63.040812
3746.000000	63.095222
3745.000000	63.168232
3744.000000	63.247605
3743.000000	63.291880
3742.000000	63.301378
3741.000000	63.333529
3740.000000	63.396991
3739.000000	63.451802
3738.000000	63.479272
3737.000000	63.502422
3736.000000	63.549101
3735.000000	63.617998
3734.000000	63.691010
3733.000000	63.758907
3732.000000	63.817551
3731.000000	63.857281
3730.000000	63.878008
3729.000000	63.896131
3728.000000	63.926494
3727.000000	63.968817
3726.000000	64.013397
3725.000000	64.052354
3724.000000	64.089451
3723.000000	64.131136
3722.000000	64.175090
3721.000000	64.214731
3720.000000	64.249107
3719.000000	64.285742
3718.000000	64.331177
3717.000000	64.384015
3716.000000	64.437336
3715.000000	64.488670
3714.000000	64.541245
3713.000000	64.595896
3712.000000	64.653546
3711.000000	64.715464
3710.000000	64.779900
3709.000000	64.844064
3708.000000	64.905957
3707.000000	64.965692
3706.000000	65.022308
3705.000000	65.075961
3704.000000	65.128596
3703.000000	65.185208
3702.000000	65.248205
3701.000000	65.311887
3700.000000	65.365448
3699.000000	65.408699
3698.000000	65.453427
3697.000000	65.505768
3696.000000	65.558306
3695.000000	65.602146
3694.000000	65.641123
3693.000000	65.682872
3692.000000	65.728374
3691.000000	65.775284
3690.000000	65.827129
3689.000000	65.886849
3688.000000	65.942955
3687.000000	65.980514
3686.000000	66.006429
3685.000000	66.041614
3684.000000	66.088790
3683.000000	66.134458
3682.000000	66.171208
3681.000000	66.206944
3680.000000	66.248201
3679.000000	66.285882
3678.000000	66.311361
3677.000000	66.336982
3676.000000	66.389314
3675.000000	66.461549
3674.000000	66.503060
3673.000000	66.503852
3672.000000	66.508909
3671.000000	66.544422
3670.000000	66.605960
3669.000000	66.670949
3668.000000	66.717341
3667.000000	66.751863
3666.000000	66.789572
3665.000000	66.830684
3664.000000	66.869885
3663.000000	66.906706
3662.000000	66.943650
3661.000000	66.979509
3660.000000	67.008771
3659.000000	67.030553
3658.000000	67.056189
3657.000000	67.098495
3656.000000	67.151583
3655.000000	67.186576
3654.000000	67.190489
3653.000000	67.184674
3652.000000	67.190836
3651.000000	67.211116
3650.000000	67.245211
3649.000000	67.297619
3648.000000	67.367336
3647.000000	67.441768
3646.000000	67.504720
3645.000000	67.551766
3644.000000	67.592487
3643.000000	67.638283
3642.000000	67.690774
3641.000000	67.743836
3640.000000	67.791968
3639.000000	67.835541
3638.000000	67.874316
3637.000000	67.904679
3636.000000	67.928657
3635.000000	67.954312
3634.000000	67.980637
3633.000000	67.990895
3632.000000	67.975062
3631.000000	67.950276
3630.000000	67.953499
3629.000000	68.007139
3628.000000	68.072578
3627.000000	68.089073
3626.000000	68.060371
3625.000000	68.022642
3624.000000	67.981443
3623.000000	67.925340
3622.000000	67.855382
3621.000000	67.788032
3620.000000	67.738522
3619.000000	67.704271
3618.000000	67.662466
3617.000000	67.593378
3616.000000	67.501797
3615.000000	67.407911
3614.000000	67.325157
3613.000000	67.247895
3612.000000	67.159828
3611.000000	67.054759
3610.000000	66.945550
3609.000000	66.848444
3608.000000	66.764315
3607.000000	66.678652
3606.000000	66.577281
3605.000000	66.458404
3604.000000	66.328150
3603.000000	66.197285
3602.000000	66.078640
3601.000000	65.979323
3600.000000	65.894577
3599.000000	65.812776
3598.000000	65.728906
3597.000000	65.645521
3596.000000	65.568396
3595.000000	65.498829
3594.000000	65.430164
3593.000000	65.346858
3592.000000	65.238655
3591.000000	65.111126
3590.000000	64.988234
3589.000000	64.903810
3588.000000	64.882009
3587.000000	64.911733
3586.000000	64.949521
3585.000000	64.959402
3584.000000	64.935092
3583.000000	64.887665
3582.000000	64.829076
3581.000000	64.766936
3580.000000	64.704514
3579.000000	64.641245
3578.000000	64.576095
3577.000000	64.507988
3576.000000	64.437288
3575.000000	64.364069
3574.000000	64.286252
3573.000000	64.197319
3572.000000	64.088915
3571.000000	63.956235
3570.000000	63.804606
3569.000000	63.653133
3568.000000	63.527421
3567.000000	63.437797
3566.000000	63.364082
3565.000000	63.274532
3564.000000	63.155114
3563.000000	63.011857
3562.000000	62.856443
3561.000000	62.696756
3560.000000	62.534927
3559.000000	62.368615
3558.000000	62.193769
3557.000000	62.007248
3556.000000	61.808494
3555.000000	61.600748
3554.000000	61.390016
3553.000000	61.180699
3552.000000	60.970204
3551.000000	60.749129
3550.000000	60.509175
3549.000000	60.250855
3548.000000	59.982939
3547.000000	59.716032
3546.000000	59.455211
3545.000000	59.196467
3544.000000	58.930359
3543.000000	58.649175
3542.000000	58.350079
3541.000000	58.033198
3540.000000	57.698903
3539.000000	57.347720
3538.000000	56.981540
3537.000000	56.603530
3536.000000	56.215300
3535.000000	55.814494
3534.000000	55.396648
3533.000000	54.958685
3532.000000	54.500523
3531.000000	54.022752
3530.000000	53.525292
3529.000000	53.008124
3528.000000	52.471862
3527.000000	51.916553
3526.000000	51.341585
3525.000000	50.747910
3524.000000	50.138743
3523.000000	49.516144
3522.000000	48.878206
3521.000000	48.220845
3520.000000	47.541582
3519.000000	46.840479
3518.000000	46.118566
3517.000000	45.377259
3516.000000	44.618786
3515.000000	43.845368
3514.000000	43.058328
3513.000000	42.257842
3512.000000	41.443424
3511.000000	40.614496
3510.000000	39.772833
3509.000000	38.924887
3508.000000	38.077576
3507.000000	37.230083
3506.000000	36.373257
3505.000000	35.499181
3504.000000	34.610679
3503.000000	33.719928
3502.000000	32.839275
3501.000000	31.974156
3500.000000	31.121968
3499.000000	30.275089
3498.000000	29.427475
3497.000000	28.580445
3496.000000	27.741346
3495.000000	26.916548
3494.000000	26.108281
3493.000000	25.318150
3492.000000	24.548474
3491.000000	23.799000
3490.000000	23.067207
3489.000000	22.353930
3488.000000	21.665781
3487.000000	21.009770
3486.000000	20.387793
3485.000000	19.796953
3484.000000	19.230785
3483.000000	18.681160
3482.000000	18.144333
3481.000000	17.625967
3480.000000	17.136075
3479.000000	16.677104
3478.000000	16.241251
3477.000000	15.818973
3476.000000	15.405169
3475.000000	14.998021
3474.000000	14.596924
3473.000000	14.203612
3472.000000	13.821823
3471.000000	13.455297
3470.000000	13.110399
3469.000000	12.798972
3468.000000	12.533507
3467.000000	12.318864
3466.000000	12.151914
3465.000000	12.028875
3464.000000	11.947798
3463.000000	11.906321
3462.000000	11.904024
3461.000000	11.945651
3460.000000	12.036852
3459.000000	12.175630
3458.000000	12.352444
3457.000000	12.558183
3456.000000	12.785802
3455.000000	13.025930
3454.000000	13.266960
3453.000000	13.499138
3452.000000	13.714279
3451.000000	13.901880
3450.000000	14.049995
3449.000000	14.150721
3448.000000	14.201013
3447.000000	14.198936
3446.000000	14.144620
3445.000000	14.042180
3444.000000	13.897300
3443.000000	13.714378
3442.000000	13.498543
3441.000000	13.259996
3440.000000	13.011173
3439.000000	12.761638
3438.000000	12.520753
3437.000000	12.302257
3436.000000	12.120352
3435.000000	11.981516
3434.000000	11.883900
3433.000000	11.823527
3432.000000	11.798914
3431.000000	11.811033
3430.000000	11.864635
3429.000000	11.968526
3428.000000	12.128592
3427.000000	12.344152
3426.000000	12.612247
3425.000000	12.933591
3424.000000	13.311578
3423.000000	13.746219
3422.000000	14.236572
3421.000000	14.783951
3420.000000	15.388048
3419.000000	16.043082
3418.000000	16.739622
3417.000000	17.470734
3416.000000	18.231210
3415.000000	19.014056
3414.000000	19.813241
3413.000000	20.625675
3412.000000	21.447632
3411.000000	22.271402
3410.000000	23.089289
3409.000000	23.898702
3408.000000	24.698703
3407.000000	25.483909
3406.000000	26.246352
3405.000000	26.981250
3404.000000	27.687614
3403.000000	28.366581
3402.000000	29.022749
3401.000000	29.664694
3400.000000	30.299347
3399.000000	30.925460
3398.000000	31.535952
3397.000000	32.124983
3396.000000	32.690174
3395.000000	33.231596
3394.000000	33.752345
3393.000000	34.259677
3392.000000	34.761489
3391.000000	35.260640
3390.000000	35.755244
3389.000000	36.242424
3388.000000	36.720262
3387.000000	37.187880
3386.000000	37.646178
3385.000000	38.098019
3384.000000	38.545278
3383.000000	38.987256
3382.000000	39.423378
3381.000000	39.855505
3380.000000	40.286045
3379.000000	40.715466
3378.000000	41.143698
3377.000000	41.572002
3376.000000	42.000989
3375.000000	42.428249
3374.000000	42.850029
3373.000000	43.264473
3372.000000	43.671988
3371.000000	44.073992
3370.000000	44.473272
3369.000000	44.873831
3368.000000	45.278063
3367.000000	45.684629
3366.000000	46.090168
3365.000000	46.492097
3364.000000	46.888683
3363.000000	47.278365
3362.000000	47.661005
3361.000000	48.038569
3360.000000	48.413135
3359.000000	48.785112
3358.000000	49.154348
3357.000000	49.521508
3356.000000	49.886442
3355.000000	50.246831
3354.000000	50.599985
3353.000000	50.945212
3352.000000	51.283610
3351.000000	51.616560
3350.000000	51.945549
3349.000000	52.272077
3348.000000	52.596167
3347.000000	52.916108
3346.000000	53.230417
3345.000000	53.539215
3344.000000	53.842734
3343.000000	54.139515
3342.000000	54.427536
3341.000000	54.705793
3340.000000	54.974339
3339.000000	55.233960
3338.000000	55.486396
3337.000000	55.733904
3336.000000	55.976632
3335.000000	56.211254
3334.000000	56.433231
3333.000000	56.639066
3332.000000	56.826485
3331.000000	56.993263
3330.000000	57.137483
3329.000000	57.258620
3328.000000	57.356183
3327.000000	57.428983
3326.000000	57.475284
3325.000000	57.492643
3324.000000	57.477342
3323.000000	57.423236
3322.000000	57.324022
3321.000000	57.175312
3320.000000	56.973167
3319.000000	56.714001
3318.000000	56.393291
3317.000000	56.006850
3316.000000	55.549506
3315.000000	55.012694
3314.000000	54.387069
3313.000000	53.663172
3312.000000	52.831654
3311.000000	51.883991
3310.000000	50.811869
3309.000000	49.612431
3308.000000	48.285586
3307.000000	46.831699
3306.000000	45.253486
3305.000000	43.553518
3304.000000	41.735709
3303.000000	39.801464
3302.000000	37.753707
3301.000000	35.604050
3300.000000	33.372041
3299.000000	31.085335
3298.000000	28.781940
3297.000000	26.511343
3296.000000	24.326782
3295.000000	22.274585
3294.000000	20.390383
3293.000000	18.701850
3292.000000	17.225825
3291.000000	15.957550
3290.000000	14.876038
3289.000000	13.949993
3288.000000	13.144255
3287.000000	12.425181
3286.000000	11.764057
3285.000000	11.145720
3284.000000	10.563631
3283.000000	10.015381
3282.000000	9.505645
3281.000000	9.046469
3280.000000	8.653232
3279.000000	8.337643
3278.000000	8.109289
3277.000000	7.979999
3276.000000	7.957704
3275.000000	8.041634
3274.000000	8.223854
3273.000000	8.491395
3272.000000	8.824486
3271.000000	9.192398
3270.000000	9.559110
3269.000000	9.890269
3268.000000	10.153512
3267.000000	10.319562
3266.000000	10.370699
3265.000000	10.306369
3264.000000	10.139111
3263.000000	9.889463
3262.000000	9.584250
3261.000000	9.257473
3260.000000	8.942497
3259.000000	8.664545
3258.000000	8.443082
3257.000000	8.295449
3256.000000	8.232773
3255.000000	8.255915
3254.000000	8.359392
3253.000000	8.534684
3252.000000	8.769601
3251.000000	9.045220
3250.000000	9.341256
3249.000000	9.642410
3248.000000	9.935376
3247.000000	10.206228
3246.000000	10.443055
3245.000000	10.639144
3244.000000	10.790476
3243.000000	10.894478
3242.000000	10.953359
3241.000000	10.976148
3240.000000	10.973176
3239.000000	10.950012
3238.000000	10.910956
3237.000000	10.861944
3236.000000	10.808302
3235.000000	10.753293
3234.000000	10.701038
3233.000000	10.657171
3232.000000	10.621567
3231.000000	10.584758
3230.000000	10.535505
3229.000000	10.467954
3228.000000	10.379400
3227.000000	10.265778
3226.000000	10.124162
3225.000000	9.956359
3224.000000	9.765160
3223.000000	9.551488
3222.000000	9.318059
3221.000000	9.072502
3220.000000	8.823347
3219.000000	8.575352
3218.000000	8.332126
3217.000000	8.098409
3216.000000	7.876197
3215.000000	7.662605
3214.000000	7.455043
3213.000000	7.254423
3212.000000	7.060329
3211.000000	6.868037
3210.000000	6.674203
3209.000000	6.481695
3208.000000	6.294800
3207.000000	6.114312
3206.000000	5.941140
3205.000000	5.779626
3204.000000	5.633750
3203.000000	5.503783
3202.000000	5.390386
3201.000000	5.297832
3200.000000	5.228705
3199.000000	5.181012
3198.000000	5.153449
3197.000000	5.148988
3196.000000	5.170050
3195.000000	5.213653
3194.000000	5.276749
3193.000000	5.360393
3192.000000	5.464991
3191.000000	5.587193
3190.000000	5.723841
3189.000000	5.875659
3188.000000	6.042612
3187.000000	6.220092
3186.000000	6.404361
3185.000000	6.596378
3184.000000	6.797326
3183.000000	7.004552
3182.000000	7.215390
3181.000000	7.430843
3180.000000	7.651152
3179.000000	7.872623
3178.000000	8.092308
3177.000000	8.311423
3176.000000	8.530734
3175.000000	8.746805
3174.000000	8.956507
3173.000000	9.160962
3172.000000	9.361761
3171.000000	9.557241
3170.000000	9.745986
3169.000000	9.929762
3168.000000	10.109586
3167.000000	10.283146
3166.000000	10.448741
3165.000000	10.607971
3164.000000	10.761469
3163.000000	10.906042
3162.000000	11.039396
3161.000000	11.162904
3160.000000	11.277252
3159.000000	11.379732
3158.000000	11.468666
3157.000000	11.546893
3156.000000	11.617378
3155.000000	11.680210
3154.000000	11.737073
3153.000000	11.794000
3152.000000	11.856434
3151.000000	11.925048
3150.000000	11.999375
3149.000000	12.081205
3148.000000	12.171357
3147.000000	12.267327
3146.000000	12.367526
3145.000000	12.473792
3144.000000	12.586745
3143.000000	12.703021
3142.000000	12.819657
3141.000000	12.937249
3140.000000	13.055855
3139.000000	13.172042
3138.000000	13.282796
3137.000000	13.388018
3136.000000	13.486264
3135.000000	13.571923
3134.000000	13.639841
3133.000000	13.687865
3132.000000	13.712676
3131.000000	13.706940
3130.000000	13.663382
3129.000000	13.579435
3128.000000	13.454282
3127.000000	13.287587
3126.000000	13.083757
3125.000000	12.852964
3124.000000	12.606116
3123.000000	12.350907
3122.000000	12.095766
3121.000000	11.851650
3120.000000	11.625893
3119.000000	11.418498
3118.000000	11.227314
3117.000000	11.052643
3116.000000	10.893770
3115.000000	10.746192
3114.000000	10.605474
3113.000000	10.470318
3112.000000	10.338916
3111.000000	10.207215
3110.000000	10.074552
3109.000000	9.946179
3108.000000	9.827368
3107.000000	9.719176
3106.000000	9.622396
3105.000000	9.541380
3104.000000	9.479940
3103.000000	9.438866
3102.000000	9.420870
3101.000000	9.432415
3100.000000	9.478592
3099.000000	9.559023
3098.000000	9.672517
3097.000000	9.821117
3096.000000	10.005338
3095.000000	10.222090
3094.000000	10.468664
3093.000000	10.745209
3092.000000	11.050933
3091.000000	11.381175
3090.000000	11.732241
3089.000000	12.102870
3088.000000	12.489250
3087.000000	12.884133
3086.000000	13.282757
3085.000000	13.685904
3084.000000	14.093788
3083.000000	14.502163
3082.000000	14.907274
3081.000000	15.309431
3080.000000	15.709327
3079.000000	16.105137
3078.000000	16.495938
3077.000000	16.883143
3076.000000	17.266024
3075.000000	17.640047
3074.000000	18.002290
3073.000000	18.354542
3072.000000	18.698521
3071.000000	19.032780
3070.000000	19.356421
3069.000000	19.671636
3068.000000	19.980240
3067.000000	20.281179
3066.000000	20.574168
3065.000000	20.861481
3064.000000	21.144097
3063.000000	21.420256
3062.000000	21.689345
3061.000000	21.953504
3060.000000	22.213308
3059.000000	22.466155
3058.000000	22.711194
3057.000000	22.951506
3056.000000	23.189572
3055.000000	23.424300
3054.000000	23.654559
3053.000000	23.882002
3052.000000	24.108092
3051.000000	24.332100
3050.000000	24.553720
3049.000000	24.773997
3048.000000	24.992299
3047.000000	25.205961
3046.000000	25.414646
3045.000000	25.621347
3044.000000	25.827791
3043.000000	26.032885
3042.000000	26.236726
3041.000000	26.441801
3040.000000	26.648305
3039.000000	26.852319
3038.000000	27.050841
3037.000000	27.245137
3036.000000	27.437803
3035.000000	27.630116
3034.000000	27.823503
3033.000000	28.019711
3032.000000	28.217835
3031.000000	28.414760
3030.000000	28.609725
3029.000000	28.804717
3028.000000	28.999562
3027.000000	29.190978
3026.000000	29.377802
3025.000000	29.562763
3024.000000	29.747068
3023.000000	29.927353
3022.000000	30.099690
3021.000000	30.262119
3020.000000	30.411539
3019.000000	30.541443
3018.000000	30.645580
3017.000000	30.720706
3016.000000	30.764837
3015.000000	30.778043
3014.000000	30.767424
3013.000000	30.749305
3012.000000	30.743917
3011.000000	30.769867
3010.000000	30.842126
3009.000000	30.968663
3008.000000	31.145210
3007.000000	31.355726
3006.000000	31.579655
3005.000000	31.796357
3004.000000	31.982813
3003.000000	32.112230
3002.000000	32.158401
3001.000000	32.099362
3000.000000	31.921208
2999.000000	31.627757
2998.000000	31.254721
2997.000000	30.872088
2996.000000	30.566163
2995.000000	30.412986
2994.000000	30.455375
2993.000000	30.691531
2992.000000	31.075545
2991.000000	31.537443
2990.000000	32.011761
2989.000000	32.455663
2988.000000	32.849125
2987.000000	33.186792
2986.000000	33.472895
2985.000000	33.715254
2984.000000	33.918973
2983.000000	34.084184
2982.000000	34.210821
2981.000000	34.300189
2980.000000	34.350982
2979.000000	34.357224
2978.000000	34.312630
2977.000000	34.216808
2976.000000	34.076476
2975.000000	33.907084
2974.000000	33.734019
2973.000000	33.587224
2972.000000	33.489415
2971.000000	33.446730
2970.000000	33.447523
2969.000000	33.462760
2968.000000	33.446931
2967.000000	33.349289
2966.000000	33.136327
2965.000000	32.809303
2964.000000	32.403574
2963.000000	31.974079
2962.000000	31.579161
2961.000000	31.265658
2960.000000	31.060100
2959.000000	30.969850
2958.000000	30.993396
2957.000000	31.124517
2956.000000	31.347837
2955.000000	31.637349
2954.000000	31.962058
2953.000000	32.290965
2952.000000	32.591176
2951.000000	32.831680
2950.000000	32.994350
2949.000000	33.082580
2948.000000	33.116420
2947.000000	33.117644
2946.000000	33.092332
2945.000000	33.013721
2944.000000	32.820881
2943.000000	32.448677
2942.000000	31.884509
2941.000000	31.210019
2940.000000	30.591665
2939.000000	30.218364
2938.000000	30.219579
2937.000000	30.612183
2936.000000	31.301367
2935.000000	32.136043
2934.000000	32.977961
2933.000000	33.742168
2932.000000	34.396166
2931.000000	34.941767
2930.000000	35.399174
2929.000000	35.792953
2928.000000	36.142244
2927.000000	36.457415
2926.000000	36.745507
2925.000000	37.012713
2924.000000	37.261531
2923.000000	37.490342
2922.000000	37.698470
2921.000000	37.888070
2920.000000	38.059948
2919.000000	38.212706
2918.000000	38.346693
2917.000000	38.465178
2916.000000	38.570281
2915.000000	38.661600
2914.000000	38.740161
2913.000000	38.809410
2912.000000	38.870915
2911.000000	38.922686
2910.000000	38.962327
2909.000000	38.987917
2908.000000	38.994457
2907.000000	38.972258
2906.000000	38.910210
2905.000000	38.796565
2904.000000	38.616070
2903.000000	38.352171
2902.000000	37.996120
2901.000000	37.554983
2900.000000	37.053015
2899.000000	36.531378
2898.000000	36.045731
2897.000000	35.656406
2896.000000	35.409879
2895.000000	35.325668
2894.000000	35.397330
2893.000000	35.598776
2892.000000	35.891566
2891.000000	36.234055
2890.000000	36.592888
2889.000000	36.946721
2888.000000	37.282013
2887.000000	37.589503
2886.000000	37.865000
2885.000000	38.109325
2884.000000	38.323529
2883.000000	38.507721
2882.000000	38.664480
2881.000000	38.799784
2880.000000	38.919310
2879.000000	39.026864
2878.000000	39.127029
2877.000000	39.225107
2876.000000	39.322824
2875.000000	39.417230
2874.000000	39.505722
2873.000000	39.589104
2872.000000	39.669424
2871.000000	39.749100
2870.000000	39.833518
2869.000000	39.930552
2868.000000	40.044912
2867.000000	40.175234
2866.000000	40.317478
2865.000000	40.467497
2864.000000	40.619295
2863.000000	40.765188
2862.000000	40.900228
2861.000000	41.024062
2860.000000	41.137727
2859.000000	41.241767
2858.000000	41.338591
2857.000000	41.432977
2856.000000	41.528434
2855.000000	41.625810
2854.000000	41.725918
2853.000000	41.829576
2852.000000	41.933630
2851.000000	42.030658
2850.000000	42.114642
2849.000000	42.184748
2848.000000	42.243409
2847.000000	42.294359
2846.000000	42.343530
2845.000000	42.397763
2844.000000	42.460480
2843.000000	42.530644
2842.000000	42.606612
2841.000000	42.688331
2840.000000	42.775284
2839.000000	42.865824
2838.000000	42.959749
2837.000000	43.058536
2836.000000	43.162178
2835.000000	43.268720
2834.000000	43.377533
2833.000000	43.489982
2832.000000	43.605949
2831.000000	43.722634
2830.000000	43.837721
2829.000000	43.950831
2828.000000	44.061179
2827.000000	44.167012
2826.000000	44.268374
2825.000000	44.367552
2824.000000	44.465811
2823.000000	44.562234
2822.000000	44.656404
2821.000000	44.749123
2820.000000	44.839654
2819.000000	44.925362
2818.000000	45.005170
2817.000000	45.080705
2816.000000	45.153288
2815.000000	45.222591
2814.000000	45.289066
2813.000000	45.354602
2812.000000	45.419672
2811.000000	45.482582
2810.000000	45.542441
2809.000000	45.600177
2808.000000	45.655903
2807.000000	45.708287
2806.000000	45.757611
2805.000000	45.806600
2804.000000	45.857045
2803.000000	45.908201
2802.000000	45.959353
2801.000000	46.011112
2800.000000	46.063157
2799.000000	46.113473
2798.000000	46.161090
2797.000000	46.207169
2796.000000	46.252437
2795.000000	46.296109
2794.000000	46.338266
2793.000000	46.380686
2792.000000	46.424293
2791.000000	46.468061
2790.000000	46.511109
2789.000000	46.553333
2788.000000	46.593278
2787.000000	46.628205
2786.000000	46.657436
2785.000000	46.683545
2784.000000	46.709750
2783.000000	46.738723
2782.000000	46.774199
2781.000000	46.820231
2780.000000	46.877374
2779.000000	46.941859
2778.000000	47.009398
2777.000000	47.077728
2776.000000	47.145210
2775.000000	47.210214
2774.000000	47.273083
2773.000000	47.336037
2772.000000	47.399983
2771.000000	47.463583
2770.000000	47.525894
2769.000000	47.587329
2768.000000	47.647338
2767.000000	47.703743
2766.000000	47.755322
2765.000000	47.802641
2764.000000	47.845755
2763.000000	47.883816
2762.000000	47.917599
2761.000000	47.949816
2760.000000	47.981971
2759.000000	48.013085
2758.000000	48.042087
2757.000000	48.068708
2756.000000	48.091534
2755.000000	48.108311
2754.000000	48.119450
2753.000000	48.129169
2752.000000	48.142372
2751.000000	48.162380
2750.000000	48.191628
2749.000000	48.231046
2748.000000	48.277323
2747.000000	48.323372
2746.000000	48.363029
2745.000000	48.394019
2744.000000	48.416831
2743.000000	48.433747
2742.000000	48.449226
2741.000000	48.467649
2740.000000	48.488904
2739.000000	48.508379
2738.000000	48.522601
2737.000000	48.533525
2736.000000	48.547306
2735.000000	48.571549
2734.000000	48.613696
2733.000000	48.677729
2732.000000	48.760503
2731.000000	48.853254
2730.000000	48.947636
2729.000000	49.039112
2728.000000	49.125000
2727.000000	49.202910
2726.000000	49.272392
2725.000000	49.335171
2724.000000	49.392224
2723.000000	49.442688
2722.000000	49.485986
2721.000000	49.522516
2720.000000	49.552015
2719.000000	49.573709
2718.000000	49.589137
2717.000000	49.602558
2716.000000	49.617541
2715.000000	49.635496
2714.000000	49.657794
2713.000000	49.686440
2712.000000	49.721798
2711.000000	49.762149
2710.000000	49.806229
2709.000000	49.853906
2708.000000	49.903675
2707.000000	49.951990
2706.000000	49.996016
2705.000000	50.034846
2704.000000	50.067424
2703.000000	50.091886
2702.000000	50.107663
2701.000000	50.115652
2700.000000	50.115978
2699.000000	50.107885
2698.000000	50.092479
2697.000000	50.073379
2696.000000	50.053675
2695.000000	50.034700
2694.000000	50.017977
2693.000000	50.005375
2692.000000	49.996640
2691.000000	49.989497
2690.000000	49.983191
2689.000000	49.979720
2688.000000	49.980966
2687.000000	49.986884
2686.000000	49.997128
2685.000000	50.011648
2684.000000	50.029072
2683.000000	50.047479
2682.000000	50.067543
2681.000000	50.092737
2680.000000	50.125519
2679.000000	50.165398
2678.000000	50.210997
2677.000000	50.260745
2676.000000	50.310871
2675.000000	50.355729
2674.000000	50.391349
2673.000000	50.416854
2672.000000	50.432347
2671.000000	50.438332
2670.000000	50.438157
2669.000000	50.438465
2668.000000	50.445871
2667.000000	50.464740
2666.000000	50.497812
2665.000000	50.545468
2664.000000	50.603227
2663.000000	50.662739
2662.000000	50.716481
2661.000000	50.760032
2660.000000	50.790487
2659.000000	50.806193
2658.000000	50.808999
2657.000000	50.804111
2656.000000	50.796481
2655.000000	50.789287
2654.000000	50.786182
2653.000000	50.791756
2652.000000	50.808657
2651.000000	50.836771
2650.000000	50.875779
2649.000000	50.925651
2648.000000	50.984188
2647.000000	51.046705
2646.000000	51.109169
2645.000000	51.169713
2644.000000	51.226558
2643.000000	51.277753
2642.000000	51.323907
2641.000000	51.368512
2640.000000	51.414514
2639.000000	51.462521
2638.000000	51.512619
2637.000000	51.565087
2636.000000	51.618468
2635.000000	51.669436
2634.000000	51.715664
2633.000000	51.756653
2632.000000	51.791404
2631.000000	51.818177
2630.000000	51.837154
2629.000000	51.851120
2628.000000	51.862449
2627.000000	51.871563
2626.000000	51.879038
2625.000000	51.886295
2624.000000	51.893666
2623.000000	51.900139
2622.000000	51.905696
2621.000000	51.911691
2620.000000	51.917979
2619.000000	51.922179
2618.000000	51.922245
2617.000000	51.917311
2616.000000	51.905773
2615.000000	51.885098
2614.000000	51.854737
2613.000000	51.816963
2612.000000	51.774216
2611.000000	51.728529
2610.000000	51.684043
2609.000000	51.647149
2608.000000	51.622793
2607.000000	51.612649
2606.000000	51.616989
2605.000000	51.635900
2604.000000	51.667660
2603.000000	51.708484
2602.000000	51.755467
2601.000000	51.807008
2600.000000	51.860487
2599.000000	51.912239
2598.000000	51.960433
2597.000000	52.005951
2596.000000	52.049607
2595.000000	52.091156
2594.000000	52.131511
2593.000000	52.172953
2592.000000	52.216092
2591.000000	52.258975
2590.000000	52.299787
2589.000000	52.337950
2588.000000	52.372197
2587.000000	52.400337
2586.000000	52.422202
2585.000000	52.440568
2584.000000	52.458468
2583.000000	52.477950
2582.000000	52.501983
2581.000000	52.534608
2580.000000	52.578080
2579.000000	52.631892
2578.000000	52.694904
2577.000000	52.766421
2576.000000	52.844388
2575.000000	52.925290
2574.000000	53.006915
2573.000000	53.088719
2572.000000	53.169311
2571.000000	53.245841
2570.000000	53.316541
2569.000000	53.381662
2568.000000	53.441494
2567.000000	53.495743
2566.000000	53.545551
2565.000000	53.593861
2564.000000	53.642786
2563.000000	53.692693
2562.000000	53.743754
2561.000000	53.796007
2560.000000	53.847536
2559.000000	53.895027
2558.000000	53.937091
2557.000000	53.975017
2556.000000	54.010309
2555.000000	54.044027
2554.000000	54.078765
2553.000000	54.118361
2552.000000	54.164587
2551.000000	54.216134
2550.000000	54.271102
2549.000000	54.328041
2548.000000	54.384207
2547.000000	54.435762
2546.000000	54.480836
2545.000000	54.520491
2544.000000	54.556092
2543.000000	54.588041
2542.000000	54.617293
2541.000000	54.645235
2540.000000	54.671358
2539.000000	54.692719
2538.000000	54.706633
2537.000000	54.711822
2536.000000	54.706512
2535.000000	54.688830
2534.000000	54.659441
2533.000000	54.621974
2532.000000	54.580094
2531.000000	54.535847
2530.000000	54.491630
2529.000000	54.450534
2528.000000	54.413874
2527.000000	54.380551
2526.000000	54.349495
2525.000000	54.320751
2524.000000	54.293587
2523.000000	54.265989
2522.000000	54.236741
2521.000000	54.205673
2520.000000	54.171404
2519.000000	54.131151
2518.000000	54.083527
2517.000000	54.029408
2516.000000	53.969447
2515.000000	53.903629
2514.000000	53.833827
2513.000000	53.764410
2512.000000	53.699611
2511.000000	53.642650
2510.000000	53.597493
2509.000000	53.568529
2508.000000	53.557531
2507.000000	53.562717
2506.000000	53.582189
2505.000000	53.614976
2504.000000	53.658587
2503.000000	53.708784
2502.000000	53.762018
2501.000000	53.816538
2500.000000	53.870065
2499.000000	53.919124
2498.000000	53.961603
2497.000000	53.997471
2496.000000	54.026539
2495.000000	54.048019
2494.000000	54.062881
2493.000000	54.073924
2492.000000	54.083111
2491.000000	54.090820
2490.000000	54.098173
2489.000000	54.107491
2488.000000	54.119612
2487.000000	54.133422
2486.000000	54.148547
2485.000000	54.166150
2484.000000	54.186527
2483.000000	54.208625
2482.000000	54.232341
2481.000000	54.258806
2480.000000	54.287799
2479.000000	54.317290
2478.000000	54.346405
2477.000000	54.376293
2476.000000	54.407927
2475.000000	54.441764
2474.000000	54.479954
2473.000000	54.526415
2472.000000	54.583392
2471.000000	54.650025
2470.000000	54.724446
2469.000000	54.804355
2468.000000	54.885375
2467.000000	54.961602
2466.000000	55.029068
2465.000000	55.087018
2464.000000	55.135901
2463.000000	55.176630
2462.000000	55.212208
2461.000000	55.247183
2460.000000	55.284108
2459.000000	55.322465
2458.000000	55.360672
2457.000000	55.396860
2456.000000	55.427678
2455.000000	55.449189
2454.000000	55.460481
2453.000000	55.464440
2452.000000	55.464984
2451.000000	55.465743
2450.000000	55.471311
2449.000000	55.486538
2448.000000	55.513395
2447.000000	55.550400
2446.000000	55.595349
2445.000000	55.646640
2444.000000	55.701554
2443.000000	55.756473
2442.000000	55.809612
2441.000000	55.861312
2440.000000	55.911531
2439.000000	55.959143
2438.000000	56.004086
2437.000000	56.047594
2436.000000	56.089657
2435.000000	56.128129
2434.000000	56.160929
2433.000000	56.187080
2432.000000	56.205375
2431.000000	56.214764
2430.000000	56.215853
2429.000000	56.210330
2428.000000	56.198410
2427.000000	56.178609
2426.000000	56.150502
2425.000000	56.114845
2424.000000	56.071768
2423.000000	56.021692
2422.000000	55.968504
2421.000000	55.919470
2420.000000	55.881068
2419.000000	55.856683
2418.000000	55.847648
2417.000000	55.853396
2416.000000	55.869631
2415.000000	55.889302
2414.000000	55.906259
2413.000000	55.916299
2412.000000	55.915129
2411.000000	55.898586
2410.000000	55.865557
2409.000000	55.818455
2408.000000	55.760615
2407.000000	55.694930
2406.000000	55.625399
2405.000000	55.556790
2404.000000	55.492191
2403.000000	55.433156
2402.000000	55.382301
2401.000000	55.343171
2400.000000	55.317051
2399.000000	55.302160
2398.000000	55.295736
2397.000000	55.294531
2396.000000	55.293106
2395.000000	55.284815
2394.000000	55.265362
2393.000000	55.233882
2392.000000	55.191003
2391.000000	55.138915
2390.000000	55.083117
2389.000000	55.031078
2388.000000	54.988781
2387.000000	54.960213
2386.000000	54.949697
2385.000000	54.961539
2384.000000	54.997603
2383.000000	55.056957
2382.000000	55.138440
2381.000000	55.239668
2380.000000	55.353080
2379.000000	55.467142
2378.000000	55.569366
2377.000000	55.649810
2376.000000	55.700716
2375.000000	55.717929
2374.000000	55.704435
2373.000000	55.667426
2372.000000	55.616094
2371.000000	55.561857
2370.000000	55.516261
2369.000000	55.487833
2368.000000	55.483781
2367.000000	55.510032
2366.000000	55.563978
2365.000000	55.638810
2364.000000	55.735103
2363.000000	55.846959
2362.000000	55.967334
2361.000000	56.093958
2360.000000	56.208392
2359.000000	56.299385
2358.000000	56.356524
2357.000000	56.370498
2356.000000	56.346310
2355.000000	56.282628
2354.000000	56.194644
2353.000000	56.117871
2352.000000	56.121365
2351.000000	56.241555
2350.000000	56.405442
2349.000000	56.516329
2348.000000	56.519165
2347.000000	56.463965
2346.000000	56.448161
2345.000000	56.513417
2344.000000	56.632887
2343.000000	56.727300
2342.000000	56.781290
2341.000000	56.811443
2340.000000	56.829675
2339.000000	56.837536
2338.000000	56.830946
2337.000000	56.815816
2336.000000	56.802401
2335.000000	56.796925
2334.000000	56.800436
2333.000000	56.800277
2332.000000	56.780851
2331.000000	56.733869
2330.000000	56.642071
2329.000000	56.532226
2328.000000	56.421412
2327.000000	56.335127
2326.000000	56.282127
2325.000000	56.257075
2324.000000	56.261646
2323.000000	56.269762
2322.000000	56.271985
2321.000000	56.254340
2320.000000	56.219755
2319.000000	56.173364
2318.000000	56.123057
2317.000000	56.081686
2316.000000	56.049493
2315.000000	56.023252
2314.000000	55.988537
2313.000000	55.937808
2312.000000	55.860074
2311.000000	55.754149
2310.000000	55.623426
2309.000000	55.479496
2308.000000	55.329175
2307.000000	55.173428
2306.000000	55.013184
2305.000000	54.851407
2304.000000	54.692012
2303.000000	54.534545
2302.000000	54.378608
2301.000000	54.226930
2300.000000	54.080425
2299.000000	53.940152
2298.000000	53.807649
2297.000000	53.689687
2296.000000	53.589270
2295.000000	53.507475
2294.000000	53.444897
2293.000000	53.404769
2292.000000	53.388764
2291.000000	53.394839
2290.000000	53.422455
2289.000000	53.471717
2288.000000	53.541977
2287.000000	53.628926
2286.000000	53.729823
2285.000000	53.842349
2284.000000	53.961115
2283.000000	54.076701
2282.000000	54.182965
2281.000000	54.279093
2280.000000	54.365801
2279.000000	54.442380
2278.000000	54.510571
2277.000000	54.576034
2276.000000	54.643237
2275.000000	54.713836
2274.000000	54.788753
2273.000000	54.870614
2272.000000	54.960213
2271.000000	55.056030
2270.000000	55.158587
2269.000000	55.271559
2268.000000	55.397811
2267.000000	55.536838
2266.000000	55.687271
2265.000000	55.849009
2264.000000	56.019215
2263.000000	56.191511
2262.000000	56.359587
2261.000000	56.519357
2260.000000	56.668051
2259.000000	56.802250
2258.000000	56.921669
2257.000000	57.029405
2256.000000	57.129259
2255.000000	57.223909
2254.000000	57.316567
2253.000000	57.411533
2252.000000	57.510049
2251.000000	57.610100
2250.000000	57.709309
2249.000000	57.807046
2248.000000	57.901338
2247.000000	57.988360
2246.000000	58.066435
2245.000000	58.137443
2244.000000	58.203705
2243.000000	58.265586
2242.000000	58.323571
2241.000000	58.379142
2240.000000	58.431926
2239.000000	58.478548
2238.000000	58.515994
2237.000000	58.543445
2236.000000	58.560464
2235.000000	58.566497
2234.000000	58.564339
2233.000000	58.561012
2232.000000	58.563351
2231.000000	58.574700
2230.000000	58.596260
2229.000000	58.628089
2228.000000	58.666912
2227.000000	58.706266
2226.000000	58.740853
2225.000000	58.768959
2224.000000	58.789983
2223.000000	58.803176
2222.000000	58.810265
2221.000000	58.816164
2220.000000	58.824984
2219.000000	58.837769
2218.000000	58.855206
2217.000000	58.879326
2216.000000	58.910762
2215.000000	58.947216
2214.000000	58.986560
2213.000000	59.028771
2212.000000	59.073500
2211.000000	59.118568
2210.000000	59.162724
2209.000000	59.207174
2208.000000	59.252690
2207.000000	59.297541
2206.000000	59.339532
2205.000000	59.377591
2204.000000	59.409778
2203.000000	59.432568
2202.000000	59.443779
2201.000000	59.444283
2200.000000	59.435919
2199.000000	59.420495
2198.000000	59.402091
2197.000000	59.387251
2196.000000	59.381136
2195.000000	59.385481
2194.000000	59.401161
2193.000000	59.429347
2192.000000	59.468524
2191.000000	59.513638
2190.000000	59.560186
2189.000000	59.607171
2188.000000	59.655008
2187.000000	59.703635
2186.000000	59.754155
2185.000000	59.809299
2184.000000	59.870087
2183.000000	59.933838
2182.000000	59.996745
2181.000000	60.055984
2180.000000	60.108620
2179.000000	60.151490
2178.000000	60.183984
2177.000000	60.208761
2176.000000	60.228459
2175.000000	60.244097
2174.000000	60.257360
2173.000000	60.271204
2172.000000	60.286404
2171.000000	60.300108
2170.000000	60.309286
2169.000000	60.313198
2168.000000	60.311535
2167.000000	60.303367
2166.000000	60.289854
2165.000000	60.275324
2164.000000	60.263846
2163.000000	60.257123
2162.000000	60.256729
2161.000000	60.265249
2160.000000	60.283207
2159.000000	60.307464
2158.000000	60.334354
2157.000000	60.362083
2156.000000	60.389037
2155.000000	60.412903
2154.000000	60.433375
2153.000000	60.453215
2152.000000	60.475110
2151.000000	60.499676
2150.000000	60.527412
2149.000000	60.559435
2148.000000	60.594490
2147.000000	60.628082
2146.000000	60.656282
2145.000000	60.678189
2144.000000	60.693755
2143.000000	60.702457
2142.000000	60.705792
2141.000000	60.708209
2140.000000	60.713507
2139.000000	60.722339
2138.000000	60.734197
2137.000000	60.748780
2136.000000	60.763781
2135.000000	60.774232
2134.000000	60.776131
2133.000000	60.768651
2132.000000	60.751957
2131.000000	60.725992
2130.000000	60.693124
2129.000000	60.659077
2128.000000	60.629149
2127.000000	60.605478
2126.000000	60.588956
2125.000000	60.580730
2124.000000	60.580082
2123.000000	60.584108
2122.000000	60.591595
2121.000000	60.604847
2120.000000	60.626395
2119.000000	60.656440
2118.000000	60.694515
2117.000000	60.740446
2116.000000	60.791915
2115.000000	60.843818
2114.000000	60.891844
2113.000000	60.934339
2112.000000	60.969694
2111.000000	60.995137
2110.000000	61.009737
2109.000000	61.016076
2108.000000	61.017628
2107.000000	61.016959
2106.000000	61.017625
2105.000000	61.024403
2104.000000	61.039376
2103.000000	61.059982
2102.000000	61.081986
2101.000000	61.101484
2100.000000	61.112974
2099.000000	61.109257
2098.000000	61.086142
2097.000000	61.045624
2096.000000	60.993453
2095.000000	60.936711
2094.000000	60.884694
2093.000000	60.847939
2092.000000	60.833407
2091.000000	60.842203
2090.000000	60.872688
2089.000000	60.922340
2088.000000	60.985115
2087.000000	61.051232
2086.000000	61.112336
2085.000000	61.164732
2084.000000	61.207130
2083.000000	61.238751
2082.000000	61.260905
2081.000000	61.277012
2080.000000	61.288636
2079.000000	61.293700
2078.000000	61.290075
2077.000000	61.277522
2076.000000	61.254547
2075.000000	61.217564
2074.000000	61.165192
2073.000000	61.100791
2072.000000	61.029012
2071.000000	60.952608
2070.000000	60.874474
2069.000000	60.798502
2068.000000	60.725447
2067.000000	60.650752
2066.000000	60.568950
2065.000000	60.478183
2064.000000	60.378694
2063.000000	60.270594
2062.000000	60.155643
2061.000000	60.038223
2060.000000	59.922366
2059.000000	59.810068
2058.000000	59.703625
2057.000000	59.605965
2056.000000	59.516746
2055.000000	59.431681
2054.000000	59.347748
2053.000000	59.265818
2052.000000	59.187380
2051.000000	59.113014
2050.000000	59.045473
2049.000000	58.990392
2048.000000	58.951298
2047.000000	58.926874
2046.000000	58.915031
2045.000000	58.915007
2044.000000	58.923686
2043.000000	58.934576
2042.000000	58.943321
2041.000000	58.951597
2040.000000	58.963432
2039.000000	58.981922
2038.000000	59.011448
2037.000000	59.057970
2036.000000	59.124346
2035.000000	59.207910
2034.000000	59.304378
2033.000000	59.410397
2032.000000	59.520502
2031.000000	59.626863
2030.000000	59.724542
2029.000000	59.814079
2028.000000	59.897719
2027.000000	59.976728
2026.000000	60.053866
2025.000000	60.133992
2024.000000	60.219615
2023.000000	60.308533
2022.000000	60.397845
2021.000000	60.486866
2020.000000	60.573999
2019.000000	60.654915
2018.000000	60.727165
2017.000000	60.794252
2016.000000	60.862447
2015.000000	60.935993
2014.000000	61.017263
2013.000000	61.108149
2012.000000	61.208114
2011.000000	61.313226
2010.000000	61.419427
2009.000000	61.524636
2008.000000	61.626366
2007.000000	61.720814
2006.000000	61.806574
2005.000000	61.886536
2004.000000	61.964611
2003.000000	62.042384
2002.000000	62.120895
2001.000000	62.202030
2000.000000	62.285680
1999.000000	62.368760
1998.000000	62.447869
1997.000000	62.521775
1996.000000	62.590645
1995.000000	62.654178
1994.000000	62.711812
1993.000000	62.764418
1992.000000	62.815662
1991.000000	62.872285
1990.000000	62.941684
1989.000000	63.026917
1988.000000	63.124225
1987.000000	63.226225
1986.000000	63.327223
1985.000000	63.424205
1984.000000	63.514137
1983.000000	63.594152
1982.000000	63.665266
1981.000000	63.732580
1980.000000	63.801344
1979.000000	63.875405
1978.000000	63.957850
1977.000000	64.050082
1976.000000	64.149760
1975.000000	64.251402
1974.000000	64.349363
1973.000000	64.439166
1972.000000	64.517483
1971.000000	64.583524
1970.000000	64.639840
1969.000000	64.690075
1968.000000	64.736032
1967.000000	64.778516
1966.000000	64.820044
1965.000000	64.862633
1964.000000	64.903188
1963.000000	64.933802
1962.000000	64.946916
1961.000000	64.939210
1960.000000	64.911672
1959.000000	64.869923
1958.000000	64.824492
1957.000000	64.787231
1956.000000	64.765894
1955.000000	64.763280
1954.000000	64.779725
1953.000000	64.813234
1952.000000	64.857518
1951.000000	64.903163
1950.000000	64.943562
1949.000000	64.976679
1948.000000	65.001237
1947.000000	65.016964
1946.000000	65.028316
1945.000000	65.042118
1944.000000	65.060098
1943.000000	65.078417
1942.000000	65.095872
1941.000000	65.116434
1940.000000	65.140869
1939.000000	65.162341
1938.000000	65.173297
1937.000000	65.172216
1936.000000	65.162091
1935.000000	65.146404
1934.000000	65.128833
1933.000000	65.114189
1932.000000	65.105582
1931.000000	65.102220
1930.000000	65.103470
1929.000000	65.109194
1928.000000	65.116453
1927.000000	65.121484
1926.000000	65.124672
1925.000000	65.129736
1924.000000	65.136161
1923.000000	65.140967
1922.000000	65.149735
1921.000000	65.173317
1920.000000	65.211717
1919.000000	65.250828
1918.000000	65.277903
1917.000000	65.293841
1916.000000	65.303436
1915.000000	65.303061
1914.000000	65.287488
1913.000000	65.260524
1912.000000	65.230780
1911.000000	65.202678
1910.000000	65.179517
1909.000000	65.167499
1908.000000	65.170543
1907.000000	65.185543
1906.000000	65.207135
1905.000000	65.234015
1904.000000	65.264546
1903.000000	65.294131
1902.000000	65.323195
1901.000000	65.358954
1900.000000	65.406894
1899.000000	65.466657
1898.000000	65.536914
1897.000000	65.618181
1896.000000	65.705770
1895.000000	65.788161
1894.000000	65.859037
1893.000000	65.922551
1892.000000	65.981693
1891.000000	66.029964
1890.000000	66.061102
1889.000000	66.081921
1888.000000	66.106941
1887.000000	66.143424
1886.000000	66.190161
1885.000000	66.244913
1884.000000	66.304573
1883.000000	66.363418
1882.000000	66.417824
1881.000000	66.468231
1880.000000	66.514544
1879.000000	66.554772
1878.000000	66.589863
1877.000000	66.626679
1876.000000	66.671424
1875.000000	66.723072
1874.000000	66.779038
1873.000000	66.841997
1872.000000	66.913879
1871.000000	66.987435
1870.000000	67.049748
1869.000000	67.093593
1868.000000	67.122631
1867.000000	67.145838
1866.000000	67.172069
1865.000000	67.208898
1864.000000	67.260110
1863.000000	67.323303
1862.000000	67.393858
1861.000000	67.469704
1860.000000	67.547606
1859.000000	67.619244
1858.000000	67.677114
1857.000000	67.721241
1856.000000	67.756343
1855.000000	67.785690
1854.000000	67.813447
1853.000000	67.847255
1852.000000	67.893344
1851.000000	67.952319
1850.000000	68.019597
1849.000000	68.090156
1848.000000	68.160336
1847.000000	68.225520
1846.000000	68.278745
1845.000000	68.312349
1844.000000	68.326415
1843.000000	68.337123
1842.000000	68.364990
1841.000000	68.415514
1840.000000	68.481496
1839.000000	68.553937
1838.000000	68.625922
1837.000000	68.692754
1836.000000	68.748772
1835.000000	68.789146
1834.000000	68.817095
1833.000000	68.842508
1832.000000	68.873664
1831.000000	68.910670
1830.000000	68.947922
1829.000000	68.988903
1828.000000	69.046710
1827.000000	69.124343
1826.000000	69.208206
1825.000000	69.282120
1824.000000	69.340829
1823.000000	69.387533
1822.000000	69.424029
1821.000000	69.452170
1820.000000	69.480023
1819.000000	69.515878
1818.000000	69.561439
1817.000000	69.616523
1816.000000	69.679624
1815.000000	69.743493
1814.000000	69.796808
1813.000000	69.831504
1812.000000	69.846365
1811.000000	69.840146
1810.000000	69.814482
1809.000000	69.783543
1808.000000	69.764071
1807.000000	69.760375
1806.000000	69.767502
1805.000000	69.783804
1804.000000	69.809865
1803.000000	69.840545
1802.000000	69.866319
1801.000000	69.882677
1800.000000	69.892896
1799.000000	69.898831
1798.000000	69.901851
1797.000000	69.910240
1796.000000	69.933106
1795.000000	69.971298
1794.000000	70.017573
1793.000000	70.063367
1792.000000	70.103519
1791.000000	70.135105
1790.000000	70.158563
1789.000000	70.177575
1788.000000	70.193799
1787.000000	70.204242
1786.000000	70.205941
1785.000000	70.205527
1784.000000	70.215009
1783.000000	70.239376
1782.000000	70.272312
1781.000000	70.303568
1780.000000	70.331008
1779.000000	70.358476
1778.000000	70.388486
1777.000000	70.420507
1776.000000	70.455609
1775.000000	70.500448
1774.000000	70.559769
1773.000000	70.626742
1772.000000	70.690859
1771.000000	70.752980
1770.000000	70.819240
1769.000000	70.891894
1768.000000	70.970578
1767.000000	71.050554
1766.000000	71.122243
1765.000000	71.178344
1764.000000	71.217864
1763.000000	71.242902
1762.000000	71.252993
1761.000000	71.254933
1760.000000	71.268388
1759.000000	71.305422
1758.000000	71.361974
1757.000000	71.423482
1756.000000	71.479384
1755.000000	71.529554
1754.000000	71.569522
1753.000000	71.590209
1752.000000	71.597038
1751.000000	71.613414
1750.000000	71.657320
1749.000000	71.724497
1748.000000	71.801599
1747.000000	71.885724
1746.000000	71.976079
1745.000000	72.062519
1744.000000	72.135395
1743.000000	72.192423
1742.000000	72.232983
1741.000000	72.254233
1740.000000	72.256285
1739.000000	72.250425
1738.000000	72.253806
1737.000000	72.273986
1736.000000	72.310439
1735.000000	72.361603
1734.000000	72.412698
1733.000000	72.450439
1732.000000	72.475533
1731.000000	72.481063
1730.000000	72.460266
1729.000000	72.423216
1728.000000	72.390250
1727.000000	72.378867
1726.000000	72.392958
1725.000000	72.427380
1724.000000	72.475279
1723.000000	72.525141
1722.000000	72.565326
1721.000000	72.590925
1720.000000	72.602867
1719.000000	72.600898
1718.000000	72.582067
1717.000000	72.565468
1716.000000	72.581108
1715.000000	72.627125
1714.000000	72.686354
1713.000000	72.754828
1712.000000	72.830957
1711.000000	72.903261
1710.000000	72.959042
1709.000000	72.997778
1708.000000	73.031355
1707.000000	73.068248
1706.000000	73.105798
1705.000000	73.142744
1704.000000	73.185591
1703.000000	73.241933
1702.000000	73.325030
1701.000000	73.448545
1700.000000	73.582426
1699.000000	73.680332
1698.000000	73.737666
1697.000000	73.775297
1696.000000	73.812759
1695.000000	73.859139
1694.000000	73.916807
1693.000000	73.981224
1692.000000	74.047916
1691.000000	74.121630
1690.000000	74.201993
1689.000000	74.269664
1688.000000	74.308264
1687.000000	74.326316
1686.000000	74.347476
1685.000000	74.384350
1684.000000	74.413649
1683.000000	74.428840
1682.000000	74.449327
1681.000000	74.467909
1680.000000	74.474506
1679.000000	74.479590
1678.000000	74.491346
1677.000000	74.500406
1676.000000	74.492354
1675.000000	74.469398
1674.000000	74.442332
1673.000000	74.407454
1672.000000	74.361114
1671.000000	74.320525
1670.000000	74.303641
1669.000000	74.295341
1668.000000	74.273783
1667.000000	74.247658
1666.000000	74.226979
1665.000000	74.200733
1664.000000	74.152620
1663.000000	74.080214
1662.000000	73.991018
1661.000000	73.879378
1660.000000	73.736032
1659.000000	73.577401
1658.000000	73.423181
1657.000000	73.264343
1656.000000	73.074503
1655.000000	72.839528
1654.000000	72.520101
1653.000000	72.026017
1652.000000	71.420500
1651.000000	70.844766
1650.000000	70.248334
1649.000000	69.449680
1648.000000	68.225264
1647.000000	66.425680
1646.000000	64.134985
1645.000000	61.555261
1644.000000	58.739796
1643.000000	55.581248
1642.000000	51.999787
1641.000000	48.096061
1640.000000	44.201392
1639.000000	40.672482
1638.000000	37.666081
1637.000000	35.205482
1636.000000	33.462086
1635.000000	32.741093
1634.000000	33.044127
1633.000000	34.076849
1632.000000	35.582845
1631.000000	37.416037
1630.000000	39.491336
1629.000000	41.742487
1628.000000	44.073145
1627.000000	46.325618
1626.000000	48.402983
1625.000000	50.379531
1624.000000	52.380714
1623.000000	54.365785
1622.000000	56.146469
1621.000000	57.638166
1620.000000	58.921126
1619.000000	60.105147
1618.000000	61.260457
1617.000000	62.405149
1616.000000	63.464712
1615.000000	64.321348
1614.000000	64.958432
1613.000000	65.469003
1612.000000	65.941522
1611.000000	66.376431
1610.000000	66.711948
1609.000000	66.917525
1608.000000	66.989300
1607.000000	66.883158
1606.000000	66.529613
1605.000000	65.889738
1604.000000	64.957658
1603.000000	63.718984
1602.000000	62.179111
1601.000000	60.432942
1600.000000	58.649268
1599.000000	56.991369
1598.000000	55.561751
1597.000000	54.408347
1596.000000	53.535249
1595.000000	52.884637
1594.000000	52.342345
1593.000000	51.806554
1592.000000	51.238510
1591.000000	50.629555
1590.000000	49.964161
1589.000000	49.235652
1588.000000	48.458442
1587.000000	47.627361
1586.000000	46.700153
1585.000000	45.648935
1584.000000	44.499146
1583.000000	43.289215
1582.000000	42.027141
1581.000000	40.726845
1580.000000	39.433867
1579.000000	38.135188
1578.000000	36.660357
1577.000000	34.762418
1576.000000	32.481664
1575.000000	30.285231
1574.000000	28.515786
1573.000000	27.079371
1572.000000	25.771427
1571.000000	24.513259
1570.000000	23.361854
1569.000000	22.439174
1568.000000	21.841275
1567.000000	21.587846
1566.000000	21.607181
1565.000000	21.787621
1564.000000	22.080125
1563.000000	22.506483
1562.000000	23.092215
1561.000000	23.848608
1560.000000	24.883324
1559.000000	26.286018
1558.000000	27.758873
1557.000000	28.950469
1556.000000	29.896042
1555.000000	30.758809
1554.000000	31.581295
1553.000000	32.301748
1552.000000	32.901448
1551.000000	33.467570
1550.000000	34.092476
1549.000000	34.797802
1548.000000	35.577097
1547.000000	36.466763
1546.000000	37.507241
1545.000000	38.662963
1544.000000	39.844806
1543.000000	41.013952
1542.000000	42.201891
1541.000000	43.434568
1540.000000	44.666989
1539.000000	45.803719
1538.000000	46.786088
1537.000000	47.631534
1536.000000	48.415555
1535.000000	49.238464
1534.000000	50.143806
1533.000000	51.054635
1532.000000	51.883730
1531.000000	52.646920
1530.000000	53.391725
1529.000000	54.124485
1528.000000	54.837092
1527.000000	55.536935
1526.000000	56.211623
1525.000000	56.817051
1524.000000	57.342788
1523.000000	57.834843
1522.000000	58.321201
1521.000000	58.765805
1520.000000	59.155943
1519.000000	59.542952
1518.000000	59.954556
1517.000000	60.363045
1516.000000	60.743075
1515.000000	61.108163
1514.000000	61.466219
1513.000000	61.795658
1512.000000	62.091239
1511.000000	62.374348
1510.000000	62.656412
1509.000000	62.932402
1508.000000	63.231431
1507.000000	63.599434
1506.000000	64.003886
1505.000000	64.366890
1504.000000	64.679339
1503.000000	64.977432
1502.000000	65.267345
1501.000000	65.523427
1500.000000	65.739970
1499.000000	65.949548
1498.000000	66.168188
1497.000000	66.379506
1496.000000	66.591608
1495.000000	66.834390
1494.000000	67.092260
1493.000000	67.321210
1492.000000	67.519481
1491.000000	67.718950
1490.000000	67.908018
1489.000000	68.040145
1488.000000	68.123660
1487.000000	68.201584
1486.000000	68.268861
1485.000000	68.282568
1484.000000	68.226245
1483.000000	68.098349
1482.000000	67.846873
1481.000000	67.399418
1480.000000	66.739115
1479.000000	65.846095
1478.000000	64.596697
1477.000000	62.864749
1476.000000	60.702303
1475.000000	58.263089
1474.000000	55.584462
1473.000000	52.708967
1472.000000	49.997348
1471.000000	47.893917
1470.000000	46.471868
1469.000000	45.562033
1468.000000	45.074907
1467.000000	45.051500
1466.000000	45.576630
1465.000000	46.640354
1464.000000	48.025672
1463.000000	49.392324
1462.000000	50.484031
1461.000000	51.192681
1460.000000	51.474309
1459.000000	51.271026
1458.000000	50.493935
1457.000000	49.246323
1456.000000	48.011991
1455.000000	47.186804
1454.000000	46.726836
1453.000000	46.448947
1452.000000	46.264634
1451.000000	46.166516
1450.000000	46.173689
1449.000000	46.311821
1448.000000	46.595599
1447.000000	46.990582
1446.000000	47.439055
1445.000000	47.924279
1444.000000	48.480704
1443.000000	49.156055
1442.000000	49.987929
1441.000000	50.995863
1440.000000	52.181514
1439.000000	53.555058
1438.000000	55.153529
1437.000000	56.936400
1436.000000	58.651553
1435.000000	60.033568
1434.000000	61.077892
1433.000000	61.927029
1432.000000	62.668791
1431.000000	63.318310
1430.000000	63.879802
1429.000000	64.370478
1428.000000	64.795724
1427.000000	65.162107
1426.000000	65.502135
1425.000000	65.843182
1424.000000	66.173837
1423.000000	66.469034
1422.000000	66.733693
1421.000000	66.991451
1420.000000	67.247465
1419.000000	67.486484
1418.000000	67.706629
1417.000000	67.924974
1416.000000	68.147118
1415.000000	68.373177
1414.000000	68.615976
1413.000000	68.881397
1412.000000	69.151242
1411.000000	69.402987
1410.000000	69.632267
1409.000000	69.842431
1408.000000	70.025965
1407.000000	70.179480
1406.000000	70.324811
1405.000000	70.482394
1404.000000	70.638432
1403.000000	70.761098
1402.000000	70.819130
1401.000000	70.756771
1400.000000	70.488830
1399.000000	69.998330
1398.000000	69.425428
1397.000000	68.982569
1396.000000	68.808882
1395.000000	68.916078
1394.000000	69.198585
1393.000000	69.517149
1392.000000	69.813591
1391.000000	70.128221
1390.000000	70.531496
1389.000000	71.056391
1388.000000	71.667191
1387.000000	72.273050
1386.000000	72.788205
1385.000000	73.179018
1384.000000	73.457298
1383.000000	73.660871
1382.000000	73.839941
1381.000000	74.028622
1380.000000	74.219212
1379.000000	74.368826
1378.000000	74.420075
1377.000000	74.289335
1376.000000	73.809675
1375.000000	72.694147
1374.000000	70.591517
1373.000000	67.262180
1372.000000	62.772131
1371.000000	57.603058
1370.000000	52.666768
1369.000000	49.100936
1368.000000	47.718460
1367.000000	48.456587
1366.000000	50.456261
1365.000000	52.640925
1364.000000	54.140208
1363.000000	54.459905
1362.000000	53.637125
1361.000000	52.297829
1360.000000	51.375905
1359.000000	51.645571
1358.000000	53.363279
1357.000000	56.170263
1356.000000	59.352877
1355.000000	62.272303
1354.000000	64.626586
1353.000000	66.420689
1352.000000	67.783420
1351.000000	68.843204
1350.000000	69.702717
1349.000000	70.430415
1348.000000	71.057741
1347.000000	71.603922
1346.000000	72.092287
1345.000000	72.534196
1344.000000	72.921054
1343.000000	73.245806
1342.000000	73.523682
1341.000000	73.777786
1340.000000	74.017325
1339.000000	74.247093
1338.000000	74.479972
1337.000000	74.722878
1336.000000	74.959671
1335.000000	75.157987
1334.000000	75.278355
1333.000000	75.252043
1332.000000	74.965151
1331.000000	74.288425
1330.000000	73.134567
1329.000000	71.494817
1328.000000	69.403933
1327.000000	66.881060
1326.000000	63.937703
1325.000000	60.706400
1324.000000	57.606095
1323.000000	55.279983
1322.000000	54.213745
1321.000000	54.381220
1320.000000	55.297453
1319.000000	56.404157
1318.000000	57.406569
1317.000000	58.284626
1316.000000	59.102683
1315.000000	59.900227
1314.000000	60.713653
1313.000000	61.618213
1312.000000	62.701079
1311.000000	63.991805
1310.000000	65.418488
1309.000000	66.823433
1308.000000	68.025938
1307.000000	68.894973
1306.000000	69.383970
1305.000000	69.494062
1304.000000	69.228692
1303.000000	68.584042
1302.000000	67.563562
1301.000000	66.212880
1300.000000	64.668605
1299.000000	63.185703
1298.000000	62.059229
1297.000000	61.459862
1296.000000	61.327783
1295.000000	61.411630
1294.000000	61.399205
1293.000000	61.030721
1292.000000	60.154756
1291.000000	58.735270
1290.000000	56.807956
1289.000000	54.445428
1288.000000	51.809008
1287.000000	49.238144
1286.000000	47.204716
1285.000000	46.095582
1284.000000	46.014417
1283.000000	46.786414
1282.000000	48.151096
1281.000000	49.924369
1280.000000	51.982493
1279.000000	54.128892
1278.000000	56.043432
1277.000000	57.406780
1276.000000	58.064660
1275.000000	58.080922
1274.000000	57.679765
1273.000000	57.169109
1272.000000	56.885629
1271.000000	57.123442
1270.000000	58.025709
1269.000000	59.516469
1268.000000	61.351340
1267.000000	63.255244
1266.000000	65.034264
1265.000000	66.599931
1264.000000	67.933346
1263.000000	69.046508
1262.000000	69.963172
1261.000000	70.708905
1260.000000	71.306412
1259.000000	71.783657
1258.000000	72.185734
1257.000000	72.557601
1256.000000	72.924377
1255.000000	73.294542
1254.000000	73.668471
1253.000000	74.036941
1252.000000	74.376567
1251.000000	74.664553
1250.000000	74.896529
1249.000000	75.082225
1248.000000	75.234384
1247.000000	75.371579
1246.000000	75.521753
1245.000000	75.706703
1244.000000	75.924500
1243.000000	76.156355
1242.000000	76.382518
1241.000000	76.582098
1240.000000	76.729167
1239.000000	76.805624
1238.000000	76.817309
1237.000000	76.785560
1236.000000	76.729035
1235.000000	76.663525
1234.000000	76.605529
1233.000000	76.561757
1232.000000	76.518096
1231.000000	76.449148
1230.000000	76.335144
1229.000000	76.158096
1228.000000	75.895382
1227.000000	75.528083
1226.000000	75.046357
1225.000000	74.439353
1224.000000	73.674380
1223.000000	72.703287
1222.000000	71.476626
1221.000000	69.941883
1220.000000	68.060981
1219.000000	65.836602
1218.000000	63.330343
1217.000000	60.651275
1216.000000	57.937254
1215.000000	55.350461
1214.000000	53.068356
1213.000000	51.258292
1212.000000	50.048688
1211.000000	49.503046
1210.000000	49.571771
1209.000000	50.089053
1208.000000	50.822188
1207.000000	51.532061
1206.000000	52.025262
1205.000000	52.173737
1204.000000	51.918768
1203.000000	51.268872
1202.000000	50.297546
1201.000000	49.145601
1200.000000	48.023606
1199.000000	47.183151
1198.000000	46.839564
1197.000000	47.089761
1196.000000	47.900830
1195.000000	49.149917
1194.000000	50.684743
1193.000000	52.374996
1192.000000	54.125895
1191.000000	55.879330
1190.000000	57.597311
1189.000000	59.249954
1188.000000	60.813518
1187.000000	62.271740
1186.000000	63.615971
1185.000000	64.843577
1184.000000	65.954286
1183.000000	66.944230
1182.000000	67.809604
1181.000000	68.544366
1180.000000	69.146237
1179.000000	69.629467
1178.000000	70.020359
1177.000000	70.343889
1176.000000	70.607939
1175.000000	70.807219
1174.000000	70.931421
1173.000000	70.950484
1172.000000	70.810970
1171.000000	70.442197
1170.000000	69.769749
1169.000000	68.728152
1168.000000	67.272627
1167.000000	65.425626
1166.000000	63.314310
1165.000000	61.167563
1164.000000	59.273668
1163.000000	57.912535
1162.000000	57.264442
1161.000000	57.352754
1160.000000	58.058409
1159.000000	59.172693
1158.000000	60.476370
1157.000000	61.786529
1156.000000	62.978874
1155.000000	63.992808
1154.000000	64.814770
1153.000000	65.452549
1152.000000	65.912956
1151.000000	66.194701
1150.000000	66.282807
1149.000000	66.152780
1148.000000	65.762168
1147.000000	65.061949
1146.000000	64.007401
1145.000000	62.538823
1144.000000	60.588769
1143.000000	58.094639
1142.000000	55.041050
1141.000000	51.512426
1140.000000	47.718023
1139.000000	43.967935
1138.000000	40.555964
1137.000000	37.626942
1136.000000	35.135560
1135.000000	32.934182
1134.000000	30.907782
1133.000000	29.114213
1132.000000	27.834781
1131.000000	27.457610
1130.000000	28.294155
1129.000000	30.393929
1128.000000	33.506178
1127.000000	37.153837
1126.000000	40.750427
1125.000000	43.733995
1124.000000	45.665475
1123.000000	46.283113
1122.000000	45.526503
1121.000000	43.539827
1120.000000	40.591876
1119.000000	37.021212
1118.000000	33.240700
1117.000000	29.785354
1116.000000	27.298881
1115.000000	26.356249
1114.000000	27.188005
1113.000000	29.535487
1112.000000	32.744325
1111.000000	35.971062
1110.000000	38.480803
1109.000000	39.938574
1108.000000	40.543674
1107.000000	40.874980
1106.000000	41.505630
1105.000000	42.671287
1104.000000	44.204787
1103.000000	45.682083
1102.000000	46.589259
1101.000000	46.498868
1100.000000	45.260744
1099.000000	43.171360
1098.000000	40.963735
1097.000000	39.537574
1096.000000	39.551578
1095.000000	41.132908
1094.000000	43.872485
1093.000000	47.096620
1092.000000	50.224312
1091.000000	52.942154
1090.000000	55.181998
1089.000000	57.004611
1088.000000	58.503157
1087.000000	59.766541
1086.000000	60.871434
1085.000000	61.870014
1084.000000	62.782352
1083.000000	63.617331
1082.000000	64.378749
1081.000000	65.063634
1080.000000	65.660329
1079.000000	66.153545
1078.000000	66.535663
1077.000000	66.790147
1076.000000	66.883302
1075.000000	66.773600
1074.000000	66.403997
1073.000000	65.696363
1072.000000	64.517170
1071.000000	62.678788
1070.000000	59.962576
1069.000000	56.127827
1068.000000	51.025088
1067.000000	44.755958
1066.000000	37.817874
1065.000000	31.086061
1064.000000	25.562562
1063.000000	21.944075
1062.000000	20.234898
1061.000000	19.711471
1060.000000	19.332954
1059.000000	18.374028
1058.000000	16.797676
1057.000000	15.218383
1056.000000	14.494721
1055.000000	15.198853
1054.000000	17.363576
1053.000000	20.566693
1052.000000	24.237889
1051.000000	27.918169
1050.000000	31.334065
1049.000000	34.392847
1048.000000	37.123967
1047.000000	39.603944
1046.000000	41.885397
1045.000000	43.979074
1044.000000	45.869529
1043.000000	47.543930
1042.000000	49.003065
1041.000000	50.254687
1040.000000	51.321819
1039.000000	52.236554
1038.000000	53.032247
1037.000000	53.735765
1036.000000	54.362155
1035.000000	54.922979
1034.000000	55.421933
1033.000000	55.852936
1032.000000	56.208802
1031.000000	56.490049
1030.000000	56.709639
1029.000000	56.884343
1028.000000	57.029402
1027.000000	57.159470
1026.000000	57.281409
1025.000000	57.387408
1024.000000	57.453362
1023.000000	57.447072
1022.000000	57.338458
1021.000000	57.094801
1020.000000	56.684336
1019.000000	56.077867
1018.000000	55.243185
1017.000000	54.143885
1016.000000	52.737872
1015.000000	51.009674
1014.000000	49.008133
1013.000000	46.874496
1012.000000	44.840329
1011.000000	43.159162
1010.000000	41.976970
1009.000000	41.224417
1008.000000	40.649719
1007.000000	40.002140
1006.000000	39.271039
1005.000000	38.766354
1004.000000	38.948397
1003.000000	40.112329
1002.000000	42.158461
1001.000000	44.656821
1000.000000	47.089851
999.000000	49.064080
998.000000	50.379024
997.000000	50.996035
996.000000	51.002836
995.000000	50.601589
994.000000	50.091601
993.000000	49.808270
992.000000	50.028592
991.000000	50.868120
990.000000	52.231607
989.000000	53.872667
988.000000	55.532892
987.000000	57.041771
986.000000	58.335547
985.000000	59.420072
984.000000	60.331205
983.000000	61.113945
982.000000	61.810642
981.000000	62.449629
980.000000	63.044199
979.000000	63.604183
978.000000	64.133769
977.000000	64.627666
976.000000	65.074306
975.000000	65.467323
974.000000	65.812738
973.000000	66.121044
972.000000	66.403514
971.000000	66.674943
970.000000	66.950663
969.000000	67.237273
968.000000	67.529046
967.000000	67.817010
966.000000	68.095730
965.000000	68.359787
964.000000	68.602908
963.000000	68.824544
962.000000	69.032509
961.000000	69.234961
960.000000	69.434226
959.000000	69.631884
958.000000	69.831783
957.000000	70.034525
956.000000	70.235465
955.000000	70.433060
954.000000	70.633406
953.000000	70.841888
952.000000	71.056064
951.000000	71.270914
950.000000	71.483872
949.000000	71.689815
948.000000	71.878040
947.000000	72.041884
946.000000	72.187481
945.000000	72.327469
944.000000	72.472366
943.000000	72.632048
942.000000	72.816700
941.000000	73.027041
940.000000	73.247486
939.000000	73.455932
938.000000	73.636734
937.000000	73.781199
936.000000	73.885129
935.000000	73.955834
934.000000	74.017171
933.000000	74.098255
932.000000	74.218252
931.000000	74.384424
930.000000	74.594011
929.000000	74.828070
928.000000	75.050060
927.000000	75.223223
926.000000	75.331238
925.000000	75.379729
924.000000	75.387990
923.000000	75.387911
922.000000	75.421092
921.000000	75.520484
920.000000	75.691783
919.000000	75.914625
918.000000	76.155637
917.000000	76.374456
916.000000	76.529393
915.000000	76.595926
914.000000	76.583791
913.000000	76.530005
912.000000	76.476329
911.000000	76.458178
910.000000	76.495055
909.000000	76.566996
908.000000	76.599706
907.000000	76.476412
906.000000	76.077065
905.000000	75.305927
904.000000	74.121014
903.000000	72.594246
902.000000	70.966196
901.000000	69.615300
900.000000	68.916218
899.000000	69.058770
898.000000	69.948065
897.000000	71.275265
896.000000	72.682113
895.000000	73.907834
894.000000	74.843507
893.000000	75.490934
892.000000	75.910486
891.000000	76.189107
890.000000	76.420050
889.000000	76.670777
888.000000	76.964267
887.000000	77.271623
886.000000	77.512386
885.000000	77.563381
884.000000	77.302948
883.000000	76.702817
882.000000	75.875885
881.000000	75.011167
880.000000	74.237396
879.000000	73.553775
878.000000	72.904704
877.000000	72.316462
876.000000	71.954422
875.000000	72.019795
874.000000	72.583070
873.000000	73.504107
872.000000	74.518745
871.000000	75.403185
870.000000	76.071904
869.000000	76.559631
868.000000	76.944188
867.000000	77.294384
866.000000	77.649151
865.000000	78.012456
864.000000	78.356920
863.000000	78.647362
862.000000	78.862882
861.000000	78.999637
860.000000	79.067204
859.000000	79.090752
858.000000	79.110150
857.000000	79.161215
856.000000	79.256781
855.000000	79.389965
854.000000	79.545854
853.000000	79.703898
852.000000	79.838886
851.000000	79.934252
850.000000	79.993470
849.000000	80.032145
848.000000	80.064471
847.000000	80.103080
846.000000	80.161885
845.000000	80.246711
844.000000	80.346492
843.000000	80.443371
842.000000	80.528943
841.000000	80.604546
840.000000	80.672746
839.000000	80.738331
838.000000	80.811239
837.000000	80.897683
836.000000	80.990979
835.000000	81.078550
834.000000	81.153200
833.000000	81.211854
832.000000	81.251338
831.000000	81.276831
830.000000	81.309501
829.000000	81.374904
828.000000	81.484871
827.000000	81.635563
826.000000	81.814414
825.000000	81.998174
824.000000	82.152092
823.000000	82.247016
822.000000	82.278780
821.000000	82.265765
820.000000	82.236127
819.000000	82.224174
818.000000	82.264456
817.000000	82.371602
816.000000	82.525077
815.000000	82.679957
814.000000	82.788682
813.000000	82.808788
812.000000	82.707167
811.000000	82.475001
810.000000	82.138426
809.000000	81.741843
808.000000	81.316025
807.000000	80.866497
806.000000	80.370191
805.000000	79.767254
804.000000	78.963790
803.000000	77.852641
802.000000	76.350591
801.000000	74.411143
800.000000	72.027835
799.000000	69.246461
798.000000	66.159580
797.000000	62.889243
796.000000	59.562355
795.000000	56.302946
794.000000	53.227236
793.000000	50.441745
792.000000	48.047070
791.000000	46.140472
790.000000	44.808949
789.000000	44.103677
788.000000	44.033692
787.000000	44.554857
786.000000	45.572563
785.000000	46.955753
784.000000	48.544976
783.000000	50.166924
782.000000	51.644651
781.000000	52.822499
780.000000	53.594062
779.000000	53.929364
778.000000	53.880637
777.000000	53.556956
776.000000	53.076734
775.000000	52.526319
774.000000	51.957970
773.000000	51.419620
772.000000	50.994830
771.000000	50.806929
770.000000	50.982829
769.000000	51.596435
768.000000	52.639927
767.000000	54.035680
766.000000	55.674866
765.000000	57.457107
764.000000	59.302695
763.000000	61.150802
762.000000	62.948992
761.000000	64.644566
760.000000	66.182512
759.000000	67.519418
758.000000	68.644239
757.000000	69.584384
756.000000	70.395702
755.000000	71.145540
754.000000	71.896724
753.000000	72.686661
752.000000	73.512254
751.000000	74.334563
750.000000	75.097049
749.000000	75.745731
748.000000	76.245929
747.000000	76.598469
746.000000	76.844310
745.000000	77.046812
744.000000	77.265130
743.000000	77.536066
742.000000	77.865916
741.000000	78.228304
740.000000	78.572050
739.000000	78.843673
738.000000	79.009157
737.000000	79.059890
736.000000	79.009203
735.000000	78.888685
734.000000	78.739773
733.000000	78.597424
732.000000	78.477916
731.000000	78.379557
730.000000	78.288127
729.000000	78.181165
728.000000	78.034205
727.000000	77.829476
726.000000	77.558689
725.000000	77.218335
724.000000	76.802641
723.000000	76.289940
722.000000	75.615271
721.000000	74.659866
720.000000	73.297943
719.000000	71.486756
718.000000	69.321282
717.000000	67.017594
716.000000	64.859103
715.000000	63.131568
714.000000	62.056040
713.000000	61.731506
712.000000	62.111998
711.000000	63.033514
710.000000	64.280715
709.000000	65.653578
708.000000	67.007546
707.000000	68.272467
706.000000	69.453396
705.000000	70.603778
704.000000	71.777659
703.000000	72.997866
702.000000	74.246221
701.000000	75.461761
700.000000	76.552946
699.000000	77.431814
698.000000	78.055760
697.000000	78.447515
696.000000	78.687667
695.000000	78.894341
694.000000	79.185354
693.000000	79.633209
692.000000	80.241090
691.000000	80.943823
690.000000	81.627704
689.000000	82.159889
688.000000	82.437978
687.000000	82.449275
686.000000	82.274542
685.000000	82.042018
684.000000	81.888030
683.000000	81.925586
682.000000	82.203967
681.000000	82.678935
680.000000	83.226217
679.000000	83.699501
678.000000	83.970825
677.000000	83.958137
676.000000	83.692255
675.000000	83.281218
674.000000	82.883688
673.000000	82.716575
672.000000	82.993379
671.000000	83.796954
670.000000	84.993419
669.000000	86.127529
668.000000	86.460948
667.000000	85.811128
666.000000	84.844583
665.000000	84.031631
664.000000	83.436650
663.000000	83.049924
662.000000	82.907136
661.000000	83.041315
660.000000	83.407625
659.000000	83.891393
658.000000	84.345616
657.000000	84.628957
656.000000	84.662963
655.000000	84.431304
654.000000	84.011462
653.000000	83.567999
652.000000	83.256464
651.000000	83.160148
650.000000	83.291228
649.000000	83.596383
648.000000	83.948931
647.000000	84.188105
646.000000	84.210178
645.000000	84.008793
644.000000	83.634177
643.000000	83.164730
642.000000	82.713499
641.000000	82.399602
640.000000	82.281760
639.000000	82.333205
638.000000	82.477376
637.000000	82.622824
636.000000	82.670354
635.000000	82.539539
634.000000	82.220641
633.000000	81.781817
632.000000	81.317890
631.000000	80.908876
630.000000	80.611861
629.000000	80.446859
628.000000	80.376600
627.000000	80.319879
626.000000	80.198086
625.000000	79.964899
624.000000	79.602961
623.000000	79.125665
622.000000	78.589407
621.000000	78.075491
620.000000	77.639019
619.000000	77.274072
618.000000	76.919215
617.000000	76.492869
616.000000	75.940158
615.000000	75.256886
614.000000	74.470113
613.000000	73.600603
612.000000	72.654153
611.000000	71.645504
610.000000	70.597813
609.000000	69.509093
608.000000	68.342991
607.000000	67.054318
606.000000	65.608125
605.000000	63.978132
604.000000	62.163690
603.000000	60.213600
602.000000	58.193817
601.000000	56.138680
600.000000	54.063658
599.000000	52.000073
598.000000	49.967541
597.000000	47.938261
596.000000	45.889251
595.000000	43.863049
594.000000	41.926402
593.000000	40.101487
592.000000	38.407923
591.000000	36.913404
590.000000	35.663589
589.000000	34.609495
588.000000	33.662500
587.000000	32.769856
586.000000	31.873499
585.000000	30.870886
584.000000	29.705588
583.000000	28.447684
582.000000	27.222328
581.000000	26.120836
580.000000	25.237216
579.000000	24.716105
578.000000	24.656286
577.000000	25.028464
576.000000	25.734376
575.000000	26.662052
574.000000	27.653809
573.000000	28.518135
572.000000	29.168578
571.000000	29.711966
570.000000	30.358253
569.000000	31.271327
568.000000	32.510084
567.000000	34.023527
566.000000	35.640014
565.000000	37.136085
564.000000	38.377245
563.000000	39.369097
562.000000	40.180513
561.000000	40.873799
560.000000	41.520710
559.000000	42.211122
558.000000	42.994418
557.000000	43.844217
556.000000	44.706071
555.000000	45.546637
554.000000	46.334150
553.000000	47.027999
552.000000	47.624798
551.000000	48.183325
550.000000	48.774662
549.000000	49.429472
548.000000	50.151651
547.000000	50.941893
546.000000	51.774306
545.000000	52.581309
544.000000	53.296133
543.000000	53.896901
542.000000	54.400295
541.000000	54.835471
540.000000	55.242823
539.000000	55.675282
538.000000	56.171766
537.000000	56.732320
536.000000	57.325319
535.000000	57.908551
534.000000	58.433006
533.000000	58.851349
532.000000	59.142049
531.000000	59.321803
530.000000	59.428991
529.000000	59.492407
528.000000	59.515012
527.000000	59.481843
526.000000	59.355380
525.000000	59.076580
524.000000	58.599778
523.000000	57.936082
522.000000	57.165382
521.000000	56.393722
520.000000	55.691505
519.000000	55.035424
518.000000	54.261021
517.000000	53.107167
516.000000	51.364868
515.000000	49.037226
514.000000	46.363678
513.000000	43.721177
512.000000	41.511679
511.000000	40.074706
510.000000	39.578685
509.000000	39.982436
508.000000	41.146563
507.000000	42.892947
506.000000	44.982721
505.000000	47.163421
504.000000	49.278538
503.000000	51.290097
502.000000	53.177862
501.000000	54.901629
500.000000	56.453532
499.000000	57.876936
498.000000	59.203353
497.000000	60.418212
496.000000	61.488790
495.000000	62.400176
494.000000	63.169989
493.000000	63.839544
492.000000	64.467118
491.000000	65.113774
490.000000	65.816077
489.000000	66.575343
488.000000	67.359106
487.000000	68.112912
486.000000	68.777032
485.000000	69.303833
484.000000	69.675897
483.000000	69.917921
482.000000	70.099165
481.000000	70.308025
480.000000	70.606127
479.000000	71.001285
478.000000	71.443309
477.000000	71.841400
476.000000	72.088310
475.000000	72.067583
474.000000	71.663385
473.000000	70.784851
472.000000	69.439321
471.000000	67.807627
470.000000	66.193861
469.000000	64.900973
468.000000	64.144814
467.000000	63.951188
466.000000	64.045990
465.000000	63.943818
464.000000	63.230844
463.000000	61.825746
462.000000	60.092961
461.000000	58.667736
460.000000	58.148454
459.000000	58.894484
458.000000	60.855305
457.000000	63.474494
456.000000	66.037168
455.000000	68.176425
454.000000	69.864107
453.000000	71.135188
452.000000	71.974816
451.000000	72.396358
450.000000	72.470491
449.000000	72.256632
448.000000	71.754821
447.000000	70.941425
446.000000	69.854208
445.000000	68.630301
444.000000	67.509463
443.000000	66.783248
442.000000	66.640821
441.000000	67.028306
440.000000	67.733927
439.000000	68.564134
438.000000	69.412962
437.000000	70.244716
436.000000	71.038829
435.000000	71.756702
434.000000	72.346858
433.000000	72.771708
432.000000	73.007145
431.000000	73.044643
430.000000	72.906217
429.000000	72.636381
428.000000	72.287412
427.000000	71.924805
426.000000	71.622502
425.000000	71.420220
424.000000	71.306283
423.000000	71.251834
422.000000	71.223604
421.000000	71.160387
420.000000	70.976623
419.000000	70.658066
418.000000	70.348599
417.000000	70.183581
416.000000	70.145725
415.000000	70.182581
414.000000	70.288800
413.000000	70.468712
412.000000	70.699067
411.000000	70.942660
410.000000	71.166577
409.000000	71.328136
408.000000	71.384328
407.000000	71.347962
406.000000	71.308342
405.000000	71.361397
404.000000	71.542548
403.000000	71.846450
402.000000	72.257823
401.000000	72.735061
400.000000	73.190986
