PE IR       SUBTECH     SPECTRUM    ASCII       PEDS        4.00        
   -1
23ms025.asc
24/10/14
15:18:52.00
24/10/14
15:18:52.00
Administrator
Sample 1261 By Administrator Date Monday, October 14 2024
400.000000
#HDR
-1
-1
#GR
cm-1
%T
1.0
0.0
4000.000000
-1.000000
3601
8
97.115377
4.434508
#DATA
4000.000000	54.616958
3999.000000	54.531011
3998.000000	54.449770
3997.000000	54.372863
3996.000000	54.297050
3995.000000	54.220910
3994.000000	54.146244
3993.000000	54.073402
3992.000000	53.997473
3991.000000	53.911615
3990.000000	53.812590
3989.000000	53.701958
3988.000000	53.583506
3987.000000	53.461697
3986.000000	53.342022
3985.000000	53.230320
3984.000000	53.131035
3983.000000	53.046293
3982.000000	52.976453
3981.000000	52.922570
3980.000000	52.887530
3979.000000	52.873651
3978.000000	52.881460
3977.000000	52.909637
3976.000000	52.955212
3975.000000	53.014881
3974.000000	53.086985
3973.000000	53.174314
3972.000000	53.280413
3971.000000	53.404947
3970.000000	53.543474
3969.000000	53.688425
3968.000000	53.832910
3967.000000	53.973602
3966.000000	54.110635
3965.000000	54.244757
3964.000000	54.373536
3963.000000	54.490477
3962.000000	54.590632
3961.000000	54.676827
3960.000000	54.753817
3959.000000	54.823320
3958.000000	54.886609
3957.000000	54.945091
3956.000000	55.001472
3955.000000	55.057457
3954.000000	55.114757
3953.000000	55.175856
3952.000000	55.242822
3951.000000	55.318213
3950.000000	55.399286
3949.000000	55.475599
3948.000000	55.543592
3947.000000	55.618586
3946.000000	55.718033
3945.000000	55.835394
3944.000000	55.943024
3943.000000	56.019339
3942.000000	56.070306
3941.000000	56.123660
3940.000000	56.191974
3939.000000	56.259493
3938.000000	56.310422
3937.000000	56.348314
3936.000000	56.392286
3935.000000	56.452795
3934.000000	56.524858
3933.000000	56.596030
3932.000000	56.651353
3931.000000	56.684390
3930.000000	56.699306
3929.000000	56.716432
3928.000000	56.761301
3927.000000	56.827455
3926.000000	56.877731
3925.000000	56.889771
3924.000000	56.882197
3923.000000	56.888003
3922.000000	56.913014
3921.000000	56.948039
3920.000000	56.997114
3919.000000	57.062131
3918.000000	57.122264
3917.000000	57.155782
3916.000000	57.173242
3915.000000	57.204901
3914.000000	57.256705
3913.000000	57.316003
3912.000000	57.367569
3911.000000	57.398508
3910.000000	57.411464
3909.000000	57.420469
3908.000000	57.451165
3907.000000	57.512618
3906.000000	57.577799
3905.000000	57.608414
3904.000000	57.602189
3903.000000	57.613593
3902.000000	57.693827
3901.000000	57.812665
3900.000000	57.896582
3899.000000	57.918137
3898.000000	57.905328
3897.000000	57.903336
3896.000000	57.932275
3895.000000	58.002947
3894.000000	58.121657
3893.000000	58.246374
3892.000000	58.278673
3891.000000	58.175575
3890.000000	58.061275
3889.000000	58.079224
3888.000000	58.219426
3887.000000	58.361623
3886.000000	58.387852
3885.000000	58.307344
3884.000000	58.260210
3883.000000	58.330884
3882.000000	58.459452
3881.000000	58.526008
3880.000000	58.470584
3879.000000	58.373343
3878.000000	58.363387
3877.000000	58.453806
3876.000000	58.545574
3875.000000	58.544413
3874.000000	58.479943
3873.000000	58.481803
3872.000000	58.592615
3871.000000	58.695698
3870.000000	58.661214
3869.000000	58.549682
3868.000000	58.538691
3867.000000	58.646510
3866.000000	58.759090
3865.000000	58.823809
3864.000000	58.838988
3863.000000	58.825130
3862.000000	58.811459
3861.000000	58.804731
3860.000000	58.797259
3859.000000	58.778811
3858.000000	58.771033
3857.000000	58.827885
3856.000000	58.993016
3855.000000	59.225798
3854.000000	59.298583
3853.000000	59.038111
3852.000000	58.726034
3851.000000	58.684767
3850.000000	58.828643
3849.000000	58.984923
3848.000000	59.098003
3847.000000	59.167881
3846.000000	59.211198
3845.000000	59.233205
3844.000000	59.208769
3843.000000	59.150698
3842.000000	59.122815
3841.000000	59.160010
3840.000000	59.244933
3839.000000	59.316500
3838.000000	59.317413
3837.000000	59.256952
3836.000000	59.215004
3835.000000	59.260285
3834.000000	59.375553
3833.000000	59.483049
3832.000000	59.526662
3831.000000	59.522403
3830.000000	59.539648
3829.000000	59.619881
3828.000000	59.701264
3827.000000	59.695233
3826.000000	59.621364
3825.000000	59.598848
3824.000000	59.705394
3823.000000	59.888302
3822.000000	59.981114
3821.000000	59.856290
3820.000000	59.676917
3819.000000	59.699198
3818.000000	59.906415
3817.000000	60.094680
3816.000000	60.112454
3815.000000	60.016755
3814.000000	59.978160
3813.000000	60.027939
3812.000000	60.087430
3811.000000	60.141335
3810.000000	60.241616
3809.000000	60.390114
3808.000000	60.470255
3807.000000	60.377620
3806.000000	60.209942
3805.000000	60.188427
3804.000000	60.361324
3803.000000	60.581004
3802.000000	60.655387
3801.000000	60.522655
3800.000000	60.379491
3799.000000	60.407858
3798.000000	60.549173
3797.000000	60.663287
3796.000000	60.696733
3795.000000	60.697027
3794.000000	60.722428
3793.000000	60.776411
3792.000000	60.835895
3791.000000	60.883413
3790.000000	60.915963
3789.000000	60.942895
3788.000000	60.979280
3787.000000	61.031655
3786.000000	61.074934
3785.000000	61.079703
3784.000000	61.063390
3783.000000	61.081981
3782.000000	61.158649
3781.000000	61.254700
3780.000000	61.303185
3779.000000	61.283877
3778.000000	61.256443
3777.000000	61.272977
3776.000000	61.306384
3775.000000	61.316208
3774.000000	61.324202
3773.000000	61.372808
3772.000000	61.443968
3771.000000	61.472865
3770.000000	61.428310
3769.000000	61.359746
3768.000000	61.348572
3767.000000	61.393417
3766.000000	61.415573
3765.000000	61.378845
3764.000000	61.336703
3763.000000	61.356764
3762.000000	61.423286
3761.000000	61.486442
3760.000000	61.522311
3759.000000	61.508661
3758.000000	61.448814
3757.000000	61.387900
3756.000000	61.375304
3755.000000	61.417619
3754.000000	61.488489
3753.000000	61.586788
3752.000000	61.706261
3751.000000	61.742596
3750.000000	61.602365
3749.000000	61.417082
3748.000000	61.430229
3747.000000	61.680698
3746.000000	62.010940
3745.000000	62.177243
3744.000000	62.003242
3743.000000	61.735790
3742.000000	61.679135
3741.000000	61.758981
3740.000000	61.848787
3739.000000	61.938380
3738.000000	62.041159
3737.000000	62.131670
3736.000000	62.182998
3735.000000	62.229918
3734.000000	62.298333
3733.000000	62.348146
3732.000000	62.333460
3731.000000	62.290849
3730.000000	62.309329
3729.000000	62.403274
3728.000000	62.510521
3727.000000	62.577012
3726.000000	62.604734
3725.000000	62.633954
3724.000000	62.676369
3723.000000	62.718545
3722.000000	62.738575
3721.000000	62.742160
3720.000000	62.761410
3719.000000	62.787396
3718.000000	62.793224
3717.000000	62.793393
3716.000000	62.823859
3715.000000	62.896076
3714.000000	62.991220
3713.000000	63.082177
3712.000000	63.126430
3711.000000	63.095095
3710.000000	63.040491
3709.000000	63.026080
3708.000000	63.051545
3707.000000	63.091763
3706.000000	63.143456
3705.000000	63.219134
3704.000000	63.312902
3703.000000	63.388247
3702.000000	63.399118
3701.000000	63.347586
3700.000000	63.308806
3699.000000	63.333470
3698.000000	63.381640
3697.000000	63.406547
3696.000000	63.407680
3695.000000	63.404809
3694.000000	63.404060
3693.000000	63.411931
3692.000000	63.450924
3691.000000	63.529202
3690.000000	63.607025
3689.000000	63.603521
3688.000000	63.516353
3687.000000	63.466362
3686.000000	63.524583
3685.000000	63.626278
3684.000000	63.703352
3683.000000	63.747296
3682.000000	63.763303
3681.000000	63.723030
3680.000000	63.628936
3679.000000	63.580232
3678.000000	63.654414
3677.000000	63.799321
3676.000000	63.815266
3675.000000	63.595778
3674.000000	63.388599
3673.000000	63.425344
3672.000000	63.608414
3671.000000	63.756333
3670.000000	63.755535
3669.000000	63.625329
3668.000000	63.522908
3667.000000	63.532725
3666.000000	63.594883
3665.000000	63.641776
3664.000000	63.661489
3663.000000	63.649125
3662.000000	63.596286
3661.000000	63.511888
3660.000000	63.447792
3659.000000	63.451906
3658.000000	63.491582
3657.000000	63.459342
3656.000000	63.287414
3655.000000	63.069634
3654.000000	62.936861
3653.000000	62.887872
3652.000000	62.863901
3651.000000	62.844537
3650.000000	62.804018
3649.000000	62.694868
3648.000000	62.524209
3647.000000	62.372014
3646.000000	62.290644
3645.000000	62.265388
3644.000000	62.252105
3643.000000	62.210171
3642.000000	62.130277
3641.000000	62.025327
3640.000000	61.907969
3639.000000	61.776214
3638.000000	61.636784
3637.000000	61.514179
3636.000000	61.402420
3635.000000	61.255486
3634.000000	61.052872
3633.000000	60.857120
3632.000000	60.749609
3631.000000	60.737958
3630.000000	60.727014
3629.000000	60.557547
3628.000000	60.232345
3627.000000	59.968287
3626.000000	59.854809
3625.000000	59.785803
3624.000000	59.687397
3623.000000	59.572585
3622.000000	59.466370
3621.000000	59.358415
3620.000000	59.204325
3619.000000	58.962327
3618.000000	58.675313
3617.000000	58.449360
3616.000000	58.319198
3615.000000	58.224126
3614.000000	58.091745
3613.000000	57.905344
3612.000000	57.711058
3611.000000	57.554600
3610.000000	57.425120
3609.000000	57.278922
3608.000000	57.092295
3607.000000	56.882911
3606.000000	56.688000
3605.000000	56.519662
3604.000000	56.367462
3603.000000	56.214442
3602.000000	56.040056
3601.000000	55.837027
3600.000000	55.625321
3599.000000	55.424586
3598.000000	55.241598
3597.000000	55.076350
3596.000000	54.911158
3595.000000	54.720446
3594.000000	54.493278
3593.000000	54.251213
3592.000000	54.033847
3591.000000	53.859782
3590.000000	53.715544
3589.000000	53.569418
3588.000000	53.382287
3587.000000	53.140160
3586.000000	52.887272
3585.000000	52.676663
3584.000000	52.510852
3583.000000	52.359331
3582.000000	52.198366
3581.000000	52.024972
3580.000000	51.845371
3579.000000	51.664789
3578.000000	51.484318
3577.000000	51.310366
3576.000000	51.146744
3575.000000	50.986930
3574.000000	50.821469
3573.000000	50.647656
3572.000000	50.476922
3571.000000	50.327950
3570.000000	50.211610
3569.000000	50.123214
3568.000000	50.040500
3567.000000	49.934807
3566.000000	49.808088
3565.000000	49.694936
3564.000000	49.612978
3563.000000	49.549603
3562.000000	49.487831
3561.000000	49.421797
3560.000000	49.352268
3559.000000	49.279059
3558.000000	49.200637
3557.000000	49.120863
3556.000000	49.049226
3555.000000	48.988101
3554.000000	48.927381
3553.000000	48.853241
3552.000000	48.762643
3551.000000	48.667871
3550.000000	48.581465
3549.000000	48.504585
3548.000000	48.431462
3547.000000	48.356594
3546.000000	48.277143
3545.000000	48.197516
3544.000000	48.125177
3543.000000	48.061194
3542.000000	47.999850
3541.000000	47.935927
3540.000000	47.869874
3539.000000	47.800881
3538.000000	47.727064
3537.000000	47.649312
3536.000000	47.571605
3535.000000	47.496554
3534.000000	47.422111
3533.000000	47.345930
3532.000000	47.267555
3531.000000	47.186366
3530.000000	47.098721
3529.000000	47.000820
3528.000000	46.894198
3527.000000	46.786341
3526.000000	46.684925
3525.000000	46.592483
3524.000000	46.504802
3523.000000	46.413667
3522.000000	46.315224
3521.000000	46.211853
3520.000000	46.105074
3519.000000	45.989475
3518.000000	45.859979
3517.000000	45.719773
3516.000000	45.574280
3515.000000	45.424092
3514.000000	45.269417
3513.000000	45.114985
3512.000000	44.963924
3511.000000	44.810024
3510.000000	44.643036
3509.000000	44.462065
3508.000000	44.277237
3507.000000	44.096191
3506.000000	43.916176
3505.000000	43.732048
3504.000000	43.543987
3503.000000	43.356501
3502.000000	43.175213
3501.000000	43.004834
3500.000000	42.845371
3499.000000	42.690495
3498.000000	42.534365
3497.000000	42.378549
3496.000000	42.229080
3495.000000	42.088341
3494.000000	41.955084
3493.000000	41.829604
3492.000000	41.713037
3491.000000	41.603944
3490.000000	41.499479
3489.000000	41.399552
3488.000000	41.307303
3487.000000	41.225943
3486.000000	41.158506
3485.000000	41.106985
3484.000000	41.067597
3483.000000	41.030785
3482.000000	40.990768
3481.000000	40.953851
3480.000000	40.931504
3479.000000	40.927305
3478.000000	40.935260
3477.000000	40.948357
3476.000000	40.962917
3475.000000	40.975894
3474.000000	40.985092
3473.000000	40.991416
3472.000000	40.996381
3471.000000	41.000436
3470.000000	41.006829
3469.000000	41.022772
3468.000000	41.052624
3467.000000	41.092559
3466.000000	41.135901
3465.000000	41.179141
3464.000000	41.219402
3463.000000	41.251995
3462.000000	41.276534
3461.000000	41.301600
3460.000000	41.336954
3459.000000	41.382988
3458.000000	41.433716
3457.000000	41.484911
3456.000000	41.535992
3455.000000	41.586720
3454.000000	41.635489
3453.000000	41.681707
3452.000000	41.726202
3451.000000	41.770536
3450.000000	41.816220
3449.000000	41.862772
3448.000000	41.906830
3447.000000	41.945844
3446.000000	41.983910
3445.000000	42.028598
3444.000000	42.080608
3443.000000	42.131882
3442.000000	42.175403
3441.000000	42.211903
3440.000000	42.245344
3439.000000	42.277030
3438.000000	42.308677
3437.000000	42.345110
3436.000000	42.390562
3435.000000	42.444147
3434.000000	42.500340
3433.000000	42.554280
3432.000000	42.604101
3431.000000	42.651025
3430.000000	42.698854
3429.000000	42.751653
3428.000000	42.809931
3427.000000	42.869750
3426.000000	42.927764
3425.000000	42.985023
3424.000000	43.044110
3423.000000	43.104692
3422.000000	43.165044
3421.000000	43.226015
3420.000000	43.290136
3419.000000	43.358074
3418.000000	43.427975
3417.000000	43.497565
3416.000000	43.565153
3415.000000	43.630127
3414.000000	43.694503
3413.000000	43.762366
3412.000000	43.835738
3411.000000	43.912565
3410.000000	43.990383
3409.000000	44.069921
3408.000000	44.152452
3407.000000	44.235129
3406.000000	44.312952
3405.000000	44.383474
3404.000000	44.447469
3403.000000	44.507915
3402.000000	44.571831
3401.000000	44.649888
3400.000000	44.747371
3399.000000	44.856997
3398.000000	44.965096
3397.000000	45.063682
3396.000000	45.152890
3395.000000	45.234925
3394.000000	45.312661
3393.000000	45.393093
3392.000000	45.485259
3391.000000	45.592431
3390.000000	45.709578
3389.000000	45.828690
3388.000000	45.944147
3387.000000	46.053745
3386.000000	46.158897
3385.000000	46.263821
3384.000000	46.371737
3383.000000	46.482259
3382.000000	46.593990
3381.000000	46.708172
3380.000000	46.826355
3379.000000	46.947251
3378.000000	47.069180
3377.000000	47.193441
3376.000000	47.321448
3375.000000	47.450149
3374.000000	47.574330
3373.000000	47.692264
3372.000000	47.806495
3371.000000	47.921335
3370.000000	48.042515
3369.000000	48.176321
3368.000000	48.325007
3367.000000	48.484087
3366.000000	48.646637
3365.000000	48.808433
3364.000000	48.967610
3363.000000	49.123027
3362.000000	49.276261
3361.000000	49.432629
3360.000000	49.596271
3359.000000	49.765863
3358.000000	49.937561
3357.000000	50.109715
3356.000000	50.281687
3355.000000	50.450959
3354.000000	50.615687
3353.000000	50.778950
3352.000000	50.947192
3351.000000	51.125115
3350.000000	51.313495
3349.000000	51.509104
3348.000000	51.705253
3347.000000	51.894562
3346.000000	52.074842
3345.000000	52.251316
3344.000000	52.430071
3343.000000	52.611264
3342.000000	52.790840
3341.000000	52.967133
3340.000000	53.143027
3339.000000	53.322611
3338.000000	53.507571
3337.000000	53.695443
3336.000000	53.879693
3335.000000	54.053093
3334.000000	54.212496
3333.000000	54.358678
3332.000000	54.491680
3331.000000	54.607913
3330.000000	54.702803
3329.000000	54.774132
3328.000000	54.821337
3327.000000	54.844692
3326.000000	54.845244
3325.000000	54.822440
3324.000000	54.770721
3323.000000	54.679456
3322.000000	54.540141
3321.000000	54.349217
3320.000000	54.102137
3319.000000	53.790454
3318.000000	53.403323
3317.000000	52.931910
3316.000000	52.366564
3315.000000	51.692391
3314.000000	50.895809
3313.000000	49.969042
3312.000000	48.910777
3311.000000	47.725351
3310.000000	46.423074
3309.000000	45.025953
3308.000000	43.563372
3307.000000	42.065335
3306.000000	40.561541
3305.000000	39.078834
3304.000000	37.638368
3303.000000	36.255493
3302.000000	34.946470
3301.000000	33.731983
3300.000000	32.631374
3299.000000	31.655430
3298.000000	30.810555
3297.000000	30.102638
3296.000000	29.526725
3295.000000	29.060327
3294.000000	28.666759
3293.000000	28.305837
3292.000000	27.939655
3291.000000	27.533064
3290.000000	27.062241
3289.000000	26.521184
3288.000000	25.917504
3287.000000	25.263805
3286.000000	24.573130
3285.000000	23.855379
3284.000000	23.112473
3283.000000	22.337849
3282.000000	21.525427
3281.000000	20.678576
3280.000000	19.807740
3279.000000	18.927219
3278.000000	18.058710
3277.000000	17.232134
3276.000000	16.474784
3275.000000	15.801410
3274.000000	15.216537
3273.000000	14.721553
3272.000000	14.317471
3271.000000	14.002376
3270.000000	13.776902
3269.000000	13.647590
3268.000000	13.620936
3267.000000	13.702758
3266.000000	13.897364
3265.000000	14.205319
3264.000000	14.612660
3263.000000	15.083537
3262.000000	15.569922
3261.000000	16.019969
3260.000000	16.378328
3259.000000	16.589299
3258.000000	16.609981
3257.000000	16.415152
3256.000000	15.995040
3255.000000	15.349065
3254.000000	14.488817
3253.000000	13.447401
3252.000000	12.270117
3251.000000	11.010884
3250.000000	9.733229
3249.000000	8.505793
3248.000000	7.389361
3247.000000	6.424741
3246.000000	5.635249
3245.000000	5.034952
3244.000000	4.633402
3243.000000	4.434508
3242.000000	4.444936
3241.000000	4.666839
3240.000000	5.079275
3239.000000	5.636019
3238.000000	6.275328
3237.000000	6.940014
3236.000000	7.584728
3235.000000	8.178845
3234.000000	8.712553
3233.000000	9.189521
3232.000000	9.611899
3231.000000	9.974999
3230.000000	10.278489
3229.000000	10.533677
3228.000000	10.757382
3227.000000	10.964201
3226.000000	11.168086
3225.000000	11.384374
3224.000000	11.622170
3223.000000	11.880492
3222.000000	12.154112
3221.000000	12.437361
3220.000000	12.719256
3219.000000	12.981403
3218.000000	13.207075
3217.000000	13.386861
3216.000000	13.514175
3215.000000	13.583656
3214.000000	13.597098
3213.000000	13.566989
3212.000000	13.508203
3211.000000	13.431554
3210.000000	13.348639
3209.000000	13.273802
3208.000000	13.217915
3207.000000	13.184403
3206.000000	13.174753
3205.000000	13.192267
3204.000000	13.237366
3203.000000	13.305407
3202.000000	13.392713
3201.000000	13.499265
3200.000000	13.621854
3199.000000	13.752120
3198.000000	13.884141
3197.000000	14.018004
3196.000000	14.153166
3195.000000	14.284309
3194.000000	14.407345
3193.000000	14.522564
3192.000000	14.628409
3191.000000	14.718663
3190.000000	14.790177
3189.000000	14.847710
3188.000000	14.897808
3187.000000	14.943871
3186.000000	14.989713
3185.000000	15.041008
3184.000000	15.098804
3183.000000	15.157266
3182.000000	15.211109
3181.000000	15.259342
3180.000000	15.299625
3179.000000	15.326046
3178.000000	15.336791
3177.000000	15.338483
3176.000000	15.339832
3175.000000	15.346750
3174.000000	15.366449
3173.000000	15.409871
3172.000000	15.485709
3171.000000	15.599738
3170.000000	15.761600
3169.000000	15.986268
3168.000000	16.285249
3167.000000	16.658779
3166.000000	17.102681
3165.000000	17.613924
3164.000000	18.188554
3163.000000	18.822341
3162.000000	19.513338
3161.000000	20.261227
3160.000000	21.056948
3159.000000	21.878665
3158.000000	22.699885
3157.000000	23.494215
3156.000000	24.233029
3155.000000	24.886024
3154.000000	25.429223
3153.000000	25.847664
3152.000000	26.134203
3151.000000	26.289886
3150.000000	26.329552
3149.000000	26.281384
3148.000000	26.170638
3147.000000	26.010520
3146.000000	25.801722
3145.000000	25.534494
3144.000000	25.190977
3143.000000	24.747796
3142.000000	24.190130
3141.000000	23.518320
3140.000000	22.742639
3139.000000	21.881232
3138.000000	20.960547
3137.000000	20.014915
3136.000000	19.076842
3135.000000	18.171976
3134.000000	17.325364
3133.000000	16.563623
3132.000000	15.907024
3131.000000	15.364864
3130.000000	14.942093
3129.000000	14.640018
3128.000000	14.452149
3127.000000	14.363340
3126.000000	14.358254
3125.000000	14.426999
3124.000000	14.556577
3123.000000	14.731028
3122.000000	14.939800
3121.000000	15.180066
3120.000000	15.448930
3119.000000	15.737188
3118.000000	16.036517
3117.000000	16.342791
3116.000000	16.649209
3115.000000	16.942117
3114.000000	17.206670
3113.000000	17.430204
3112.000000	17.597972
3111.000000	17.694779
3110.000000	17.711754
3109.000000	17.648918
3108.000000	17.506235
3107.000000	17.280323
3106.000000	16.973802
3105.000000	16.598366
3104.000000	16.170448
3103.000000	15.707838
3102.000000	15.235243
3101.000000	14.785361
3100.000000	14.388380
3099.000000	14.064138
3098.000000	13.825279
3097.000000	13.681470
3096.000000	13.633954
3095.000000	13.675198
3094.000000	13.794893
3093.000000	13.983160
3092.000000	14.227396
3091.000000	14.510347
3090.000000	14.817390
3089.000000	15.137418
3088.000000	15.457020
3087.000000	15.762098
3086.000000	16.046602
3085.000000	16.314386
3084.000000	16.569273
3083.000000	16.810154
3082.000000	17.037736
3081.000000	17.258810
3080.000000	17.480815
3079.000000	17.708351
3078.000000	17.946939
3077.000000	18.202811
3076.000000	18.476099
3075.000000	18.760646
3074.000000	19.052828
3073.000000	19.354527
3072.000000	19.666107
3071.000000	19.983054
3070.000000	20.302764
3069.000000	20.628102
3068.000000	20.961274
3067.000000	21.299737
3066.000000	21.639929
3065.000000	21.979948
3064.000000	22.316453
3063.000000	22.644539
3062.000000	22.962771
3061.000000	23.273462
3060.000000	23.576811
3059.000000	23.869941
3058.000000	24.153146
3057.000000	24.430994
3056.000000	24.705665
3055.000000	24.974652
3054.000000	25.236320
3053.000000	25.493003
3052.000000	25.746573
3051.000000	25.995991
3050.000000	26.240337
3049.000000	26.479067
3048.000000	26.708798
3047.000000	26.924903
3046.000000	27.127956
3045.000000	27.323662
3044.000000	27.515584
3043.000000	27.703549
3042.000000	27.889614
3041.000000	28.079044
3040.000000	28.273427
3039.000000	28.468466
3038.000000	28.660873
3037.000000	28.852845
3036.000000	29.048234
3035.000000	29.249149
3034.000000	29.457552
3033.000000	29.674596
3032.000000	29.896756
3031.000000	30.117838
3030.000000	30.336176
3029.000000	30.554959
3028.000000	30.775076
3027.000000	30.993968
3026.000000	31.212594
3025.000000	31.436804
3024.000000	31.669435
3023.000000	31.906430
3022.000000	32.143041
3021.000000	32.378963
3020.000000	32.615265
3019.000000	32.850730
3018.000000	33.083864
3017.000000	33.314989
3016.000000	33.544650
3015.000000	33.773084
3014.000000	34.002537
3013.000000	34.236497
3012.000000	34.475259
3011.000000	34.714849
3010.000000	34.951031
3009.000000	35.180601
3008.000000	35.398150
3007.000000	35.595258
3006.000000	35.760709
3005.000000	35.876709
3004.000000	35.909180
3003.000000	35.807416
3002.000000	35.524458
3001.000000	35.046999
3000.000000	34.413550
2999.000000	33.698338
2998.000000	32.975573
2997.000000	32.298782
2996.000000	31.719392
2995.000000	31.317082
2994.000000	31.185980
2993.000000	31.373069
2992.000000	31.827078
2991.000000	32.421599
2990.000000	33.026545
2989.000000	33.559845
2988.000000	33.989512
2987.000000	34.311697
2986.000000	34.533588
2985.000000	34.659106
2984.000000	34.681623
2983.000000	34.594357
2982.000000	34.415065
2981.000000	34.194191
2980.000000	33.992807
2979.000000	33.849328
2978.000000	33.767172
2977.000000	33.731983
2976.000000	33.742191
2975.000000	33.828428
2974.000000	34.039486
2973.000000	34.402791
2972.000000	34.893991
2971.000000	35.447855
2970.000000	35.994327
2969.000000	36.484195
2968.000000	36.889200
2967.000000	37.194004
2966.000000	37.390601
2965.000000	37.465517
2964.000000	37.384327
2963.000000	37.083994
2962.000000	36.494390
2961.000000	35.579870
2960.000000	34.377754
2959.000000	32.999908
2958.000000	31.584489
2957.000000	30.241389
2956.000000	29.043295
2955.000000	28.072317
2954.000000	27.440501
2953.000000	27.233012
2952.000000	27.423351
2951.000000	27.864827
2950.000000	28.377074
2949.000000	28.837349
2948.000000	29.214436
2947.000000	29.545771
2946.000000	29.897237
2945.000000	30.318929
2944.000000	30.814162
2943.000000	31.346237
2942.000000	31.873195
2941.000000	32.376231
2940.000000	32.860392
2939.000000	33.343832
2938.000000	33.850067
2937.000000	34.397430
2936.000000	34.986720
2935.000000	35.601335
2934.000000	36.220559
2933.000000	36.827547
2932.000000	37.407095
2931.000000	37.947708
2930.000000	38.448296
2929.000000	38.915098
2928.000000	39.349954
2927.000000	39.748935
2926.000000	40.112989
2925.000000	40.449728
2924.000000	40.763357
2923.000000	41.050813
2922.000000	41.309774
2921.000000	41.542307
2920.000000	41.748913
2919.000000	41.927828
2918.000000	42.081192
2917.000000	42.214811
2916.000000	42.330967
2915.000000	42.428348
2914.000000	42.509827
2913.000000	42.581883
2912.000000	42.645913
2911.000000	42.697593
2910.000000	42.735762
2909.000000	42.765508
2908.000000	42.790861
2907.000000	42.812278
2906.000000	42.832226
2905.000000	42.855686
2904.000000	42.883184
2903.000000	42.909744
2902.000000	42.932163
2901.000000	42.950880
2900.000000	42.964040
2899.000000	42.966178
2898.000000	42.954708
2897.000000	42.931416
2896.000000	42.897016
2895.000000	42.850734
2894.000000	42.796576
2893.000000	42.743227
2892.000000	42.696002
2891.000000	42.654468
2890.000000	42.618341
2889.000000	42.589382
2888.000000	42.566385
2887.000000	42.545069
2886.000000	42.524429
2885.000000	42.507266
2884.000000	42.493546
2883.000000	42.479462
2882.000000	42.463742
2881.000000	42.448277
2880.000000	42.431021
2879.000000	42.404052
2878.000000	42.360164
2877.000000	42.296426
2876.000000	42.212405
2875.000000	42.112642
2874.000000	42.011959
2873.000000	41.929674
2872.000000	41.875043
2871.000000	41.844327
2870.000000	41.834450
2869.000000	41.854768
2868.000000	41.923869
2867.000000	42.060023
2866.000000	42.274410
2865.000000	42.564101
2864.000000	42.907411
2863.000000	43.272106
2862.000000	43.631510
2861.000000	43.970655
2860.000000	44.280792
2859.000000	44.556410
2858.000000	44.799659
2857.000000	45.020317
2856.000000	45.227678
2855.000000	45.426938
2854.000000	45.622798
2853.000000	45.819682
2852.000000	46.017025
2851.000000	46.210476
2850.000000	46.398956
2849.000000	46.585353
2848.000000	46.769835
2847.000000	46.948251
2846.000000	47.118121
2845.000000	47.280470
2844.000000	47.434904
2843.000000	47.578463
2842.000000	47.710922
2841.000000	47.836674
2840.000000	47.960205
2839.000000	48.083655
2838.000000	48.208776
2837.000000	48.336618
2836.000000	48.464914
2835.000000	48.590201
2834.000000	48.712999
2833.000000	48.836868
2832.000000	48.962571
2831.000000	49.087686
2830.000000	49.211564
2829.000000	49.335793
2828.000000	49.459769
2827.000000	49.580744
2826.000000	49.698404
2825.000000	49.814707
2824.000000	49.929149
2823.000000	50.038668
2822.000000	50.142381
2821.000000	50.241900
2820.000000	50.336991
2819.000000	50.425493
2818.000000	50.507464
2817.000000	50.585034
2816.000000	50.658340
2815.000000	50.725922
2814.000000	50.788918
2813.000000	50.850435
2812.000000	50.911165
2811.000000	50.970107
2810.000000	51.028934
2809.000000	51.090744
2808.000000	51.154964
2807.000000	51.218416
2806.000000	51.281072
2805.000000	51.345868
2804.000000	51.413046
2803.000000	51.479937
2802.000000	51.546338
2801.000000	51.615049
2800.000000	51.687062
2799.000000	51.760881
2798.000000	51.836624
2797.000000	51.916007
2796.000000	51.998089
2795.000000	52.079667
2794.000000	52.159911
2793.000000	52.240330
2792.000000	52.320695
2791.000000	52.399540
2790.000000	52.478117
2789.000000	52.558880
2788.000000	52.640295
2787.000000	52.718153
2786.000000	52.791791
2785.000000	52.864230
2784.000000	52.936432
2783.000000	53.006344
2782.000000	53.073363
2781.000000	53.138646
2780.000000	53.200802
2779.000000	53.256301
2778.000000	53.304625
2777.000000	53.348574
2776.000000	53.389519
2775.000000	53.426639
2774.000000	53.460699
2773.000000	53.494071
2772.000000	53.526856
2771.000000	53.557394
2770.000000	53.586248
2769.000000	53.615132
2768.000000	53.642336
2767.000000	53.663818
2766.000000	53.678822
2765.000000	53.689964
2764.000000	53.698268
2763.000000	53.703108
2762.000000	53.706781
2761.000000	53.714050
2760.000000	53.726914
2759.000000	53.744360
2758.000000	53.767102
2757.000000	53.797731
2756.000000	53.835855
2755.000000	53.877794
2754.000000	53.921376
2753.000000	53.966621
2752.000000	54.011873
2751.000000	54.054024
2750.000000	54.092812
2749.000000	54.130604
2748.000000	54.167743
2747.000000	54.202243
2746.000000	54.233884
2745.000000	54.264017
2744.000000	54.291164
2743.000000	54.311333
2742.000000	54.323033
2741.000000	54.328393
2740.000000	54.330100
2739.000000	54.331564
2738.000000	54.339461
2737.000000	54.361417
2736.000000	54.400612
2735.000000	54.456246
2734.000000	54.528706
2733.000000	54.619102
2732.000000	54.724117
2731.000000	54.836093
2730.000000	54.948331
2729.000000	55.056925
2728.000000	55.157978
2727.000000	55.247490
2726.000000	55.324161
2725.000000	55.388560
2724.000000	55.439915
2723.000000	55.477900
2722.000000	55.506681
2721.000000	55.532693
2720.000000	55.559225
2719.000000	55.586952
2718.000000	55.618732
2717.000000	55.659064
2716.000000	55.708950
2715.000000	55.765621
2714.000000	55.826837
2713.000000	55.891081
2712.000000	55.954200
2711.000000	56.010579
2710.000000	56.057596
2709.000000	56.095023
2708.000000	56.121148
2707.000000	56.133983
2706.000000	56.135513
2705.000000	56.130731
2704.000000	56.123053
2703.000000	56.114833
2702.000000	56.111398
2701.000000	56.119284
2700.000000	56.140476
2699.000000	56.172528
2698.000000	56.213409
2697.000000	56.261821
2696.000000	56.314149
2695.000000	56.366150
2694.000000	56.417684
2693.000000	56.471627
2692.000000	56.528412
2691.000000	56.585888
2690.000000	56.643329
2689.000000	56.700795
2688.000000	56.755486
2687.000000	56.803529
2686.000000	56.844719
2685.000000	56.881174
2684.000000	56.912268
2683.000000	56.935694
2682.000000	56.952876
2681.000000	56.968096
2680.000000	56.982814
2679.000000	56.995821
2678.000000	57.008541
2677.000000	57.025378
2676.000000	57.049086
2675.000000	57.080220
2674.000000	57.120656
2673.000000	57.172888
2672.000000	57.235691
2671.000000	57.305065
2670.000000	57.379111
2669.000000	57.457497
2668.000000	57.537166
2667.000000	57.613166
2666.000000	57.683577
2665.000000	57.749502
2664.000000	57.810908
2663.000000	57.867146
2662.000000	57.920850
2661.000000	57.976390
2660.000000	58.034520
2659.000000	58.092782
2658.000000	58.150417
2657.000000	58.208524
2656.000000	58.265921
2655.000000	58.319369
2654.000000	58.367588
2653.000000	58.410459
2652.000000	58.445294
2651.000000	58.468661
2650.000000	58.481678
2649.000000	58.489440
2648.000000	58.495413
2647.000000	58.500797
2646.000000	58.508759
2645.000000	58.524317
2644.000000	58.549890
2643.000000	58.585097
2642.000000	58.630166
2641.000000	58.685212
2640.000000	58.746688
2639.000000	58.808797
2638.000000	58.868416
2637.000000	58.924688
2636.000000	58.974748
2635.000000	59.014618
2634.000000	59.044049
2633.000000	59.066214
2632.000000	59.083124
2631.000000	59.095830
2630.000000	59.108459
2629.000000	59.127508
2628.000000	59.157033
2627.000000	59.197950
2626.000000	59.251081
2625.000000	59.316374
2624.000000	59.389352
2623.000000	59.462969
2622.000000	59.533033
2621.000000	59.598145
2620.000000	59.655428
2619.000000	59.700946
2618.000000	59.733980
2617.000000	59.756789
2616.000000	59.770693
2615.000000	59.775800
2614.000000	59.774204
2613.000000	59.769215
2612.000000	59.761441
2611.000000	59.749881
2610.000000	59.735926
2609.000000	59.722606
2608.000000	59.710553
2607.000000	59.698521
2606.000000	59.687392
2605.000000	59.679729
2604.000000	59.676073
2603.000000	59.675640
2602.000000	59.680148
2601.000000	59.692614
2600.000000	59.713221
2599.000000	59.739955
2598.000000	59.772269
2597.000000	59.810363
2596.000000	59.851529
2595.000000	59.891593
2594.000000	59.929329
2593.000000	59.965614
2592.000000	59.999611
2591.000000	60.029721
2590.000000	60.057110
2589.000000	60.084056
2588.000000	60.109912
2587.000000	60.132891
2586.000000	60.154737
2585.000000	60.179189
2584.000000	60.206691
2583.000000	60.234924
2582.000000	60.263530
2581.000000	60.293989
2580.000000	60.325929
2579.000000	60.358041
2578.000000	60.391703
2577.000000	60.429344
2576.000000	60.469979
2575.000000	60.510690
2574.000000	60.551764
2573.000000	60.595879
2572.000000	60.643109
2571.000000	60.690893
2570.000000	60.738136
2569.000000	60.785163
2568.000000	60.830409
2567.000000	60.871606
2566.000000	60.909752
2565.000000	60.948102
2564.000000	60.988103
2563.000000	61.030020
2562.000000	61.076219
2561.000000	61.129388
2560.000000	61.188300
2559.000000	61.249571
2558.000000	61.312447
2557.000000	61.377927
2556.000000	61.444417
2555.000000	61.508621
2554.000000	61.569951
2553.000000	61.629680
2552.000000	61.686560
2551.000000	61.737448
2550.000000	61.781708
2549.000000	61.820918
2548.000000	61.855371
2547.000000	61.884521
2546.000000	61.909778
2545.000000	61.933180
2544.000000	61.954077
2543.000000	61.971261
2542.000000	61.987169
2541.000000	62.005886
2540.000000	62.028201
2539.000000	62.052413
2538.000000	62.078673
2537.000000	62.108369
2536.000000	62.140475
2535.000000	62.172845
2534.000000	62.206461
2533.000000	62.244417
2532.000000	62.287607
2531.000000	62.335304
2530.000000	62.388290
2529.000000	62.447233
2528.000000	62.508853
2527.000000	62.567700
2526.000000	62.620887
2525.000000	62.667599
2524.000000	62.705517
2523.000000	62.731942
2522.000000	62.747543
2521.000000	62.754563
2520.000000	62.753016
2519.000000	62.741748
2518.000000	62.721760
2517.000000	62.694948
2516.000000	62.660416
2515.000000	62.616978
2514.000000	62.567501
2513.000000	62.516751
2512.000000	62.466664
2511.000000	62.417596
2510.000000	62.372912
2509.000000	62.337694
2508.000000	62.313936
2507.000000	62.300817
2506.000000	62.298470
2505.000000	62.306624
2504.000000	62.321118
2503.000000	62.336726
2502.000000	62.352079
2501.000000	62.368328
2500.000000	62.384313
2499.000000	62.397801
2498.000000	62.410323
2497.000000	62.425732
2496.000000	62.445252
2495.000000	62.468215
2494.000000	62.496365
2493.000000	62.532931
2492.000000	62.577966
2491.000000	62.629232
2490.000000	62.686294
2489.000000	62.749301
2488.000000	62.815184
2487.000000	62.879317
2486.000000	62.940296
2485.000000	62.999040
2484.000000	63.054602
2483.000000	63.105470
2482.000000	63.153688
2481.000000	63.203383
2480.000000	63.256174
2479.000000	63.311868
2478.000000	63.371799
2477.000000	63.436758
2476.000000	63.502809
2475.000000	63.563691
2474.000000	63.616637
2473.000000	63.662002
2472.000000	63.699327
2471.000000	63.728236
2470.000000	63.751704
2469.000000	63.773894
2468.000000	63.795371
2467.000000	63.814746
2466.000000	63.833406
2465.000000	63.854030
2464.000000	63.875873
2463.000000	63.895928
2462.000000	63.913815
2461.000000	63.931207
2460.000000	63.947527
2459.000000	63.960814
2458.000000	63.971821
2457.000000	63.983223
2456.000000	63.995838
2455.000000	64.009790
2454.000000	64.027944
2453.000000	64.053926
2452.000000	64.087773
2451.000000	64.127394
2450.000000	64.173133
2449.000000	64.226145
2448.000000	64.283999
2447.000000	64.342161
2446.000000	64.398674
2445.000000	64.453538
2444.000000	64.504898
2443.000000	64.550456
2442.000000	64.591331
2441.000000	64.630335
2440.000000	64.667462
2439.000000	64.701125
2438.000000	64.732063
2437.000000	64.761773
2436.000000	64.788871
2435.000000	64.811179
2434.000000	64.830197
2433.000000	64.848895
2432.000000	64.866319
2431.000000	64.878977
2430.000000	64.886006
2429.000000	64.888929
2428.000000	64.887729
2427.000000	64.881743
2426.000000	64.873533
2425.000000	64.867184
2424.000000	64.863795
2423.000000	64.862408
2422.000000	64.863979
2421.000000	64.870121
2420.000000	64.879294
2419.000000	64.888660
2418.000000	64.898564
2417.000000	64.911359
2416.000000	64.927129
2415.000000	64.945053
2414.000000	64.967128
2413.000000	64.995724
2412.000000	65.028697
2411.000000	65.061104
2410.000000	65.090449
2409.000000	65.115907
2408.000000	65.134307
2407.000000	65.141679
2406.000000	65.138047
2405.000000	65.125984
2404.000000	65.105398
2403.000000	65.074586
2402.000000	65.034601
2401.000000	64.988616
2400.000000	64.937269
2399.000000	64.878235
2398.000000	64.809443
2397.000000	64.727275
2396.000000	64.623624
2395.000000	64.489152
2394.000000	64.320306
2393.000000	64.113630
2392.000000	63.874948
2391.000000	63.590073
2390.000000	63.288405
2389.000000	62.930771
2388.000000	62.625120
2387.000000	62.660520
2386.000000	62.377413
2385.000000	62.145474
2384.000000	61.901794
2383.000000	61.672208
2382.000000	61.440988
2381.000000	61.220494
2380.000000	61.004528
2379.000000	60.794392
2378.000000	60.580793
2377.000000	60.378810
2376.000000	60.163186
2375.000000	59.990832
2374.000000	60.120093
2373.000000	60.196524
2372.000000	60.270008
2371.000000	60.320545
2370.000000	60.352928
2369.000000	60.361209
2368.000000	60.360624
2367.000000	60.349798
2366.000000	60.311749
2365.000000	60.257729
2364.000000	60.195927
2363.000000	60.124418
2362.000000	60.063936
2361.000000	60.025567
2360.000000	60.036609
2359.000000	60.101590
2358.000000	60.186532
2357.000000	60.266004
2356.000000	60.276421
2355.000000	60.146775
2354.000000	59.811835
2353.000000	59.390240
2352.000000	59.170479
2351.000000	59.329963
2350.000000	59.818341
2349.000000	60.331023
2348.000000	60.588349
2347.000000	60.561057
2346.000000	60.422754
2345.000000	60.385723
2344.000000	60.438953
2343.000000	60.527832
2342.000000	60.607782
2341.000000	60.672077
2340.000000	60.719617
2339.000000	60.738520
2338.000000	60.742219
2337.000000	60.739721
2336.000000	60.756466
2335.000000	60.796101
2334.000000	60.866945
2333.000000	60.943536
2332.000000	61.058626
2331.000000	61.162998
2330.000000	61.291974
2329.000000	61.407093
2328.000000	61.520939
2327.000000	61.604623
2326.000000	61.643484
2325.000000	61.662967
2324.000000	61.675478
2323.000000	61.705106
2322.000000	61.739803
2321.000000	61.763183
2320.000000	61.767590
2319.000000	61.732267
2318.000000	61.667245
2317.000000	61.547441
2316.000000	61.395001
2315.000000	61.200507
2314.000000	61.010065
2313.000000	60.817668
2312.000000	60.648805
2311.000000	60.482767
2310.000000	60.340246
2309.000000	60.212222
2308.000000	60.114462
2307.000000	60.035331
2306.000000	59.984238
2305.000000	59.951290
2304.000000	59.942660
2303.000000	59.946434
2302.000000	59.974590
2301.000000	60.018776
2300.000000	60.082450
2299.000000	60.145254
2298.000000	60.206354
2297.000000	60.249406
2296.000000	60.270141
2295.000000	60.258503
2294.000000	60.223546
2293.000000	60.176894
2292.000000	60.132499
2291.000000	60.100792
2290.000000	60.088999
2289.000000	60.097645
2288.000000	60.113306
2287.000000	60.120522
2286.000000	60.106648
2285.000000	60.067296
2284.000000	59.998062
2283.000000	59.904907
2282.000000	59.806731
2281.000000	59.731533
2280.000000	59.699775
2279.000000	59.720481
2278.000000	59.795196
2277.000000	59.916975
2276.000000	60.073648
2275.000000	60.253681
2274.000000	60.455149
2273.000000	60.678400
2272.000000	60.918210
2271.000000	61.164396
2270.000000	61.409258
2269.000000	61.646781
2268.000000	61.870996
2267.000000	62.078253
2266.000000	62.273110
2265.000000	62.461736
2264.000000	62.645630
2263.000000	62.824605
2262.000000	62.999465
2261.000000	63.172238
2260.000000	63.339081
2259.000000	63.497500
2258.000000	63.650742
2257.000000	63.805576
2256.000000	63.966442
2255.000000	64.135382
2254.000000	64.317387
2253.000000	64.514510
2252.000000	64.723910
2251.000000	64.939125
2250.000000	65.157079
2249.000000	65.373962
2248.000000	65.583881
2247.000000	65.782179
2246.000000	65.970277
2245.000000	66.150985
2244.000000	66.323353
2243.000000	66.486057
2242.000000	66.641229
2241.000000	66.790850
2240.000000	66.931656
2239.000000	67.059329
2238.000000	67.173538
2237.000000	67.275214
2236.000000	67.362137
2235.000000	67.431988
2234.000000	67.486627
2233.000000	67.529499
2232.000000	67.561778
2231.000000	67.585335
2230.000000	67.605555
2229.000000	67.626733
2228.000000	67.647849
2227.000000	67.666101
2226.000000	67.681706
2225.000000	67.694586
2224.000000	67.700999
2223.000000	67.697761
2222.000000	67.687013
2221.000000	67.672573
2220.000000	67.655038
2219.000000	67.634486
2218.000000	67.614276
2217.000000	67.597529
2216.000000	67.583025
2215.000000	67.568787
2214.000000	67.556381
2213.000000	67.547534
2212.000000	67.539978
2211.000000	67.531097
2210.000000	67.522489
2209.000000	67.516953
2208.000000	67.514429
2207.000000	67.514725
2206.000000	67.519826
2205.000000	67.528537
2204.000000	67.532142
2203.000000	67.520639
2202.000000	67.491594
2201.000000	67.451588
2200.000000	67.413899
2199.000000	67.399036
2198.000000	67.430115
2197.000000	67.519468
2196.000000	67.659695
2195.000000	67.830853
2194.000000	68.012875
2193.000000	68.188814
2192.000000	68.344374
2191.000000	68.471962
2190.000000	68.573185
2189.000000	68.652240
2188.000000	68.709816
2187.000000	68.747016
2186.000000	68.769988
2185.000000	68.785783
2184.000000	68.796923
2183.000000	68.804538
2182.000000	68.812360
2181.000000	68.822855
2180.000000	68.833176
2179.000000	68.839840
2178.000000	68.844163
2177.000000	68.848676
2176.000000	68.852443
2175.000000	68.854594
2174.000000	68.858797
2173.000000	68.869514
2172.000000	68.887369
2171.000000	68.912538
2170.000000	68.948454
2169.000000	68.997578
2168.000000	69.057024
2167.000000	69.122949
2166.000000	69.195389
2165.000000	69.274480
2164.000000	69.356340
2163.000000	69.437371
2162.000000	69.518690
2161.000000	69.601805
2160.000000	69.684164
2159.000000	69.763302
2158.000000	69.840747
2157.000000	69.917316
2156.000000	69.988705
2155.000000	70.050287
2154.000000	70.102320
2153.000000	70.146231
2152.000000	70.180382
2151.000000	70.203833
2150.000000	70.219977
2149.000000	70.231865
2148.000000	70.237742
2147.000000	70.235436
2146.000000	70.226402
2145.000000	70.210981
2144.000000	70.184490
2143.000000	70.142861
2142.000000	70.087927
2141.000000	70.023988
2140.000000	69.953563
2139.000000	69.880811
2138.000000	69.814889
2137.000000	69.765098
2136.000000	69.736429
2135.000000	69.733581
2134.000000	69.763614
2133.000000	69.829152
2132.000000	69.922626
2131.000000	70.031491
2130.000000	70.145402
2129.000000	70.254891
2128.000000	70.349233
2127.000000	70.422247
2126.000000	70.476779
2125.000000	70.518675
2124.000000	70.550305
2123.000000	70.572710
2122.000000	70.588058
2121.000000	70.595119
2120.000000	70.587160
2119.000000	70.559329
2118.000000	70.514737
2117.000000	70.459644
2116.000000	70.397393
2115.000000	70.331130
2114.000000	70.267130
2113.000000	70.210395
2112.000000	70.160619
2111.000000	70.116404
2110.000000	70.079256
2109.000000	70.049447
2108.000000	70.023005
2107.000000	69.997655
2106.000000	69.977488
2105.000000	69.968072
2104.000000	69.971353
2103.000000	69.988743
2102.000000	70.024160
2101.000000	70.078544
2100.000000	70.146717
2099.000000	70.223261
2098.000000	70.306823
2097.000000	70.394813
2096.000000	70.478609
2095.000000	70.549700
2094.000000	70.604219
2093.000000	70.637698
2092.000000	70.642474
2091.000000	70.616565
2090.000000	70.570574
2089.000000	70.521539
2088.000000	70.484818
2087.000000	70.475445
2086.000000	70.508654
2085.000000	70.591391
2084.000000	70.717541
2083.000000	70.875473
2082.000000	71.055299
2081.000000	71.245236
2080.000000	71.429405
2079.000000	71.596484
2078.000000	71.745412
2077.000000	71.878323
2076.000000	71.993800
2075.000000	72.092922
2074.000000	72.182349
2073.000000	72.267177
2072.000000	72.346916
2071.000000	72.420140
2070.000000	72.490033
2069.000000	72.559294
2068.000000	72.625509
2067.000000	72.686149
2066.000000	72.743201
2065.000000	72.798858
2064.000000	72.851558
2063.000000	72.900321
2062.000000	72.947062
2061.000000	72.991500
2060.000000	73.030050
2059.000000	73.063430
2058.000000	73.098848
2057.000000	73.141393
2056.000000	73.190019
2055.000000	73.244898
2054.000000	73.310227
2053.000000	73.386203
2052.000000	73.465805
2051.000000	73.541653
2050.000000	73.611670
2049.000000	73.675091
2048.000000	73.728513
2047.000000	73.770709
2046.000000	73.807547
2045.000000	73.845302
2044.000000	73.883917
2043.000000	73.922174
2042.000000	73.963978
2041.000000	74.013279
2040.000000	74.067635
2039.000000	74.122636
2038.000000	74.176923
2037.000000	74.228262
2036.000000	74.270989
2035.000000	74.303531
2034.000000	74.332765
2033.000000	74.365426
2032.000000	74.401940
2031.000000	74.443760
2030.000000	74.496818
2029.000000	74.562759
2028.000000	74.632012
2027.000000	74.692599
2026.000000	74.740537
2025.000000	74.775213
2024.000000	74.794644
2023.000000	74.797190
2022.000000	74.788637
2021.000000	74.777555
2020.000000	74.766914
2019.000000	74.757114
2018.000000	74.753517
2017.000000	74.763661
2016.000000	74.790066
2015.000000	74.831886
2014.000000	74.887994
2013.000000	74.952629
2012.000000	75.013377
2011.000000	75.061748
2010.000000	75.100541
2009.000000	75.134990
2008.000000	75.163959
2007.000000	75.187666
2006.000000	75.214553
2005.000000	75.250793
2004.000000	75.294014
2003.000000	75.339104
2002.000000	75.389343
2001.000000	75.446855
2000.000000	75.504626
1999.000000	75.557669
1998.000000	75.603955
1997.000000	75.642843
1996.000000	75.672555
1995.000000	75.689590
1994.000000	75.687145
1993.000000	75.656891
1992.000000	75.597365
1991.000000	75.520315
1990.000000	75.441741
1989.000000	75.368492
1988.000000	75.298336
1987.000000	75.231878
1986.000000	75.178560
1985.000000	75.147148
1984.000000	75.138425
1983.000000	75.149491
1982.000000	75.180416
1981.000000	75.227910
1980.000000	75.282409
1979.000000	75.335612
1978.000000	75.380895
1977.000000	75.417946
1976.000000	75.453462
1975.000000	75.498582
1974.000000	75.561041
1973.000000	75.641792
1972.000000	75.736612
1971.000000	75.836562
1970.000000	75.927064
1969.000000	75.991594
1968.000000	76.018403
1967.000000	76.005478
1966.000000	75.961413
1965.000000	75.899517
1964.000000	75.829437
1963.000000	75.753796
1962.000000	75.674351
1961.000000	75.600522
1960.000000	75.547435
1959.000000	75.521705
1958.000000	75.513152
1957.000000	75.504307
1956.000000	75.483768
1955.000000	75.450724
1954.000000	75.408298
1953.000000	75.362008
1952.000000	75.320174
1951.000000	75.291625
1950.000000	75.290265
1949.000000	75.324037
1948.000000	75.390221
1947.000000	75.485378
1946.000000	75.606385
1945.000000	75.743666
1944.000000	75.879649
1943.000000	76.001047
1942.000000	76.111296
1941.000000	76.222762
1940.000000	76.342417
1939.000000	76.466533
1938.000000	76.585295
1937.000000	76.693241
1936.000000	76.793874
1935.000000	76.890948
1934.000000	76.978162
1933.000000	77.047058
1932.000000	77.092294
1931.000000	77.111444
1930.000000	77.110586
1929.000000	77.085593
1928.000000	77.034573
1927.000000	76.970199
1926.000000	76.910688
1925.000000	76.864033
1924.000000	76.811455
1923.000000	76.750596
1922.000000	76.709956
1921.000000	76.706261
1920.000000	76.719344
1919.000000	76.715921
1918.000000	76.689514
1917.000000	76.660512
1916.000000	76.637157
1915.000000	76.615701
1914.000000	76.592308
1913.000000	76.564398
1912.000000	76.530351
1911.000000	76.496063
1910.000000	76.475206
1909.000000	76.466536
1908.000000	76.465288
1907.000000	76.476428
1906.000000	76.508360
1905.000000	76.557093
1904.000000	76.593173
1903.000000	76.609377
1902.000000	76.627650
1901.000000	76.651186
1900.000000	76.666876
1899.000000	76.681316
1898.000000	76.718748
1897.000000	76.787408
1896.000000	76.861875
1895.000000	76.931120
1894.000000	77.019394
1893.000000	77.139643
1892.000000	77.268693
1891.000000	77.380835
1890.000000	77.474439
1889.000000	77.558382
1888.000000	77.633534
1887.000000	77.705498
1886.000000	77.784725
1885.000000	77.863252
1884.000000	77.922852
1883.000000	77.972672
1882.000000	78.042191
1881.000000	78.128523
1880.000000	78.205474
1879.000000	78.267003
1878.000000	78.323485
1877.000000	78.373964
1876.000000	78.393756
1875.000000	78.366079
1874.000000	78.310281
1873.000000	78.250907
1872.000000	78.187420
1871.000000	78.116526
1870.000000	78.051296
1869.000000	78.009919
1868.000000	77.998382
1867.000000	78.022617
1866.000000	78.093346
1865.000000	78.191694
1864.000000	78.270620
1863.000000	78.309453
1862.000000	78.333742
1861.000000	78.363995
1860.000000	78.389985
1859.000000	78.412986
1858.000000	78.464563
1857.000000	78.557638
1856.000000	78.666130
1855.000000	78.770177
1854.000000	78.885206
1853.000000	79.009962
1852.000000	79.123979
1851.000000	79.232128
1850.000000	79.341378
1849.000000	79.449342
1848.000000	79.547458
1847.000000	79.641541
1846.000000	79.732104
1845.000000	79.788538
1844.000000	79.803166
1843.000000	79.822047
1842.000000	79.881297
1841.000000	79.960017
1840.000000	80.024133
1839.000000	80.060331
1838.000000	80.087621
1837.000000	80.128178
1836.000000	80.170289
1835.000000	80.210652
1834.000000	80.271603
1833.000000	80.365601
1832.000000	80.485890
1831.000000	80.600300
1830.000000	80.675536
1829.000000	80.732085
1828.000000	80.805323
1827.000000	80.897553
1826.000000	80.985208
1825.000000	81.059029
1824.000000	81.135879
1823.000000	81.230814
1822.000000	81.346588
1821.000000	81.476124
1820.000000	81.604243
1819.000000	81.715051
1818.000000	81.821107
1817.000000	81.945314
1816.000000	82.066705
1815.000000	82.164066
1814.000000	82.254064
1813.000000	82.361138
1812.000000	82.470189
1811.000000	82.538881
1810.000000	82.586270
1809.000000	82.652805
1808.000000	82.717853
1807.000000	82.753031
1806.000000	82.778787
1805.000000	82.819284
1804.000000	82.851294
1803.000000	82.864612
1802.000000	82.889254
1801.000000	82.945683
1800.000000	83.008422
1799.000000	83.039350
1798.000000	83.059009
1797.000000	83.093018
1796.000000	83.121222
1795.000000	83.131595
1794.000000	83.135933
1793.000000	83.137976
1792.000000	83.129790
1791.000000	83.117001
1790.000000	83.139359
1789.000000	83.208001
1788.000000	83.284790
1787.000000	83.343468
1786.000000	83.411690
1785.000000	83.520557
1784.000000	83.642876
1783.000000	83.758386
1782.000000	83.860473
1781.000000	83.931885
1780.000000	83.978980
1779.000000	84.015937
1778.000000	84.071826
1777.000000	84.151900
1776.000000	84.253338
1775.000000	84.393142
1774.000000	84.562777
1773.000000	84.724036
1772.000000	84.866572
1771.000000	84.978025
1770.000000	85.047802
1769.000000	85.110752
1768.000000	85.184839
1767.000000	85.251677
1766.000000	85.308054
1765.000000	85.377777
1764.000000	85.467560
1763.000000	85.538729
1762.000000	85.560533
1761.000000	85.579474
1760.000000	85.632516
1759.000000	85.683474
1758.000000	85.693127
1757.000000	85.641826
1756.000000	85.580098
1755.000000	85.542633
1754.000000	85.507024
1753.000000	85.473669
1752.000000	85.483160
1751.000000	85.551925
1750.000000	85.638341
1749.000000	85.690063
1748.000000	85.683142
1747.000000	85.638095
1746.000000	85.557515
1745.000000	85.456177
1744.000000	85.374991
1743.000000	85.317426
1742.000000	85.271949
1741.000000	85.246884
1740.000000	85.240833
1739.000000	85.240870
1738.000000	85.254828
1737.000000	85.304630
1736.000000	85.396735
1735.000000	85.465016
1734.000000	85.518157
1733.000000	85.633544
1732.000000	85.771530
1731.000000	85.857199
1730.000000	85.887484
1729.000000	85.878552
1728.000000	85.871120
1727.000000	85.896437
1726.000000	85.932930
1725.000000	85.970282
1724.000000	86.006786
1723.000000	86.030092
1722.000000	86.073663
1721.000000	86.165743
1720.000000	86.278791
1719.000000	86.333874
1718.000000	86.340748
1717.000000	86.421599
1716.000000	86.542512
1715.000000	86.602333
1714.000000	86.642346
1713.000000	86.714988
1712.000000	86.776451
1711.000000	86.803328
1710.000000	86.852107
1709.000000	86.955852
1708.000000	87.084426
1707.000000	87.196657
1706.000000	87.292881
1705.000000	87.397650
1704.000000	87.485507
1703.000000	87.568908
1702.000000	87.709869
1701.000000	87.862110
1700.000000	87.982086
1699.000000	88.073935
1698.000000	88.178383
1697.000000	88.291643
1696.000000	88.319086
1695.000000	88.273446
1694.000000	88.284048
1693.000000	88.354901
1692.000000	88.422287
1691.000000	88.449948
1690.000000	88.455297
1689.000000	88.464569
1688.000000	88.505919
1687.000000	88.598834
1686.000000	88.712170
1685.000000	88.737433
1684.000000	88.686208
1683.000000	88.692604
1682.000000	88.739564
1681.000000	88.731728
1680.000000	88.690001
1679.000000	88.672002
1678.000000	88.685462
1677.000000	88.691904
1676.000000	88.670597
1675.000000	88.666809
1674.000000	88.681254
1673.000000	88.684860
1672.000000	88.696973
1671.000000	88.704322
1670.000000	88.656003
1669.000000	88.537811
1668.000000	88.417041
1667.000000	88.347410
1666.000000	88.298313
1665.000000	88.231103
1664.000000	88.117281
1663.000000	87.965248
1662.000000	87.800938
1661.000000	87.602139
1660.000000	87.396248
1659.000000	87.226474
1658.000000	87.066533
1657.000000	86.900216
1656.000000	86.778381
1655.000000	86.700794
1654.000000	86.390227
1653.000000	85.825870
1652.000000	85.332210
1651.000000	84.952580
1650.000000	84.545891
1649.000000	84.030579
1648.000000	83.230576
1647.000000	82.059512
1646.000000	80.684525
1645.000000	79.328756
1644.000000	78.021353
1643.000000	76.704369
1642.000000	75.363279
1641.000000	74.043711
1640.000000	72.887004
1639.000000	72.000738
1638.000000	71.411957
1637.000000	71.095263
1636.000000	71.080653
1635.000000	71.418501
1634.000000	71.991619
1633.000000	72.662514
1632.000000	73.391422
1631.000000	74.202500
1630.000000	75.102738
1629.000000	76.056618
1628.000000	77.010238
1627.000000	77.928908
1626.000000	78.794689
1625.000000	79.625193
1624.000000	80.466807
1623.000000	81.331174
1622.000000	82.149679
1621.000000	82.848871
1620.000000	83.478093
1619.000000	84.127896
1618.000000	84.797139
1617.000000	85.404323
1616.000000	85.897343
1615.000000	86.237093
1614.000000	86.351356
1613.000000	86.199498
1612.000000	85.795678
1611.000000	85.164732
1610.000000	84.245114
1609.000000	82.918303
1608.000000	81.125889
1607.000000	78.850773
1606.000000	75.983057
1605.000000	72.317460
1604.000000	67.737795
1603.000000	62.256654
1602.000000	56.032323
1601.000000	49.436375
1600.000000	43.009774
1599.000000	37.231395
1598.000000	32.203311
1597.000000	27.662392
1596.000000	23.406744
1595.000000	19.665859
1594.000000	16.897819
1593.000000	15.313212
1592.000000	14.771994
1591.000000	15.017836
1590.000000	15.844255
1589.000000	17.046191
1588.000000	18.403622
1587.000000	19.714877
1586.000000	20.804095
1585.000000	21.596129
1584.000000	22.211520
1583.000000	22.886357
1582.000000	23.733276
1581.000000	24.685036
1580.000000	25.683430
1579.000000	26.785097
1578.000000	28.035995
1577.000000	29.329992
1576.000000	30.457711
1575.000000	31.301431
1574.000000	31.880893
1573.000000	32.276642
1572.000000	32.637270
1571.000000	33.176534
1570.000000	34.059654
1569.000000	35.239722
1568.000000	36.591988
1567.000000	38.111828
1566.000000	39.803487
1565.000000	41.531225
1564.000000	43.110620
1563.000000	44.485336
1562.000000	45.740269
1561.000000	47.035714
1560.000000	48.591801
1559.000000	50.532137
1558.000000	52.445762
1557.000000	53.905551
1556.000000	55.051241
1555.000000	56.169532
1554.000000	57.296401
1553.000000	58.316830
1552.000000	59.191465
1551.000000	59.961053
1550.000000	60.658810
1549.000000	61.269885
1548.000000	61.796068
1547.000000	62.307721
1546.000000	62.860710
1545.000000	63.437943
1544.000000	64.009808
1543.000000	64.583375
1542.000000	65.197781
1541.000000	65.849466
1540.000000	66.468193
1539.000000	67.024853
1538.000000	67.521928
1537.000000	67.964178
1536.000000	68.397906
1535.000000	68.882829
1534.000000	69.404168
1533.000000	69.898152
1532.000000	70.337097
1531.000000	70.740298
1530.000000	71.152750
1529.000000	71.577874
1528.000000	71.972255
1527.000000	72.338892
1526.000000	72.708018
1525.000000	73.070957
1524.000000	73.409119
1523.000000	73.719800
1522.000000	73.994792
1521.000000	74.224456
1520.000000	74.422096
1519.000000	74.621008
1518.000000	74.821563
1517.000000	74.984227
1516.000000	75.085215
1515.000000	75.170121
1514.000000	75.288598
1513.000000	75.453929
1512.000000	75.635359
1511.000000	75.804878
1510.000000	75.990454
1509.000000	76.244743
1508.000000	76.541652
1507.000000	76.793542
1506.000000	77.027915
1505.000000	77.265870
1504.000000	77.455916
1503.000000	77.605929
1502.000000	77.762533
1501.000000	77.944970
1500.000000	78.143988
1499.000000	78.336818
1498.000000	78.532370
1497.000000	78.790666
1496.000000	79.113605
1495.000000	79.446120
1494.000000	79.782030
1493.000000	80.137622
1492.000000	80.497223
1491.000000	80.833802
1490.000000	81.161619
1489.000000	81.505714
1488.000000	81.829944
1487.000000	82.113210
1486.000000	82.419461
1485.000000	82.744523
1484.000000	83.048931
1483.000000	83.347867
1482.000000	83.651587
1481.000000	83.938841
1480.000000	84.176983
1479.000000	84.390816
1478.000000	84.625068
1477.000000	84.881785
1476.000000	85.119756
1475.000000	85.365508
1474.000000	85.689348
1473.000000	86.075658
1472.000000	86.456027
1471.000000	86.787430
1470.000000	87.072320
1469.000000	87.308565
1468.000000	87.473821
1467.000000	87.547053
1466.000000	87.456764
1465.000000	87.025157
1464.000000	86.126763
1463.000000	84.771180
1462.000000	83.026204
1461.000000	80.971271
1460.000000	78.692203
1459.000000	76.228766
1458.000000	73.505177
1457.000000	70.649504
1456.000000	68.130529
1455.000000	66.101314
1454.000000	64.167109
1453.000000	61.955954
1452.000000	59.442533
1451.000000	56.782578
1450.000000	53.974673
1449.000000	50.820167
1448.000000	47.310674
1447.000000	43.945000
1446.000000	41.471866
1445.000000	40.491701
1444.000000	41.318145
1443.000000	43.824676
1442.000000	47.392508
1441.000000	51.203811
1440.000000	54.646285
1439.000000	57.452496
1438.000000	59.625171
1437.000000	61.346148
1436.000000	62.856048
1435.000000	64.304076
1434.000000	65.771518
1433.000000	67.348944
1432.000000	69.043714
1431.000000	70.711691
1430.000000	72.184356
1429.000000	73.431223
1428.000000	74.488129
1427.000000	75.383545
1426.000000	76.157312
1425.000000	76.869187
1424.000000	77.567379
1423.000000	78.203767
1422.000000	78.736581
1421.000000	79.225070
1420.000000	79.744344
1419.000000	80.262752
1418.000000	80.712646
1417.000000	81.138065
1416.000000	81.586238
1415.000000	82.023980
1414.000000	82.415794
1413.000000	82.791329
1412.000000	83.189094
1411.000000	83.569018
1410.000000	83.879941
1409.000000	84.150983
1408.000000	84.402231
1407.000000	84.587392
1406.000000	84.645335
1405.000000	84.541738
1404.000000	84.282187
1403.000000	83.881125
1402.000000	83.392111
1401.000000	82.912309
1400.000000	82.513116
1399.000000	82.192249
1398.000000	81.911972
1397.000000	81.672001
1396.000000	81.498341
1395.000000	81.398151
1394.000000	81.309236
1393.000000	81.131223
1392.000000	80.796920
1391.000000	80.290468
1390.000000	79.669377
1389.000000	79.068924
1388.000000	78.662737
1387.000000	78.601679
1386.000000	78.946958
1385.000000	79.653658
1384.000000	80.627490
1383.000000	81.753253
1382.000000	82.922065
1381.000000	84.066001
1380.000000	85.141126
1379.000000	86.098542
1378.000000	86.887731
1377.000000	87.468004
1376.000000	87.774130
1375.000000	87.682923
1374.000000	87.010404
1373.000000	85.534995
1372.000000	82.978321
1371.000000	79.022052
1370.000000	73.524731
1369.000000	66.891701
1368.000000	60.225100
1367.000000	54.864789
1366.000000	51.701773
1365.000000	50.936763
1364.000000	52.269822
1363.000000	55.095561
1362.000000	58.647780
1361.000000	62.290708
1360.000000	65.719163
1359.000000	68.850931
1358.000000	71.650857
1357.000000	74.084726
1356.000000	76.152696
1355.000000	77.891486
1354.000000	79.352473
1353.000000	80.599481
1352.000000	81.684797
1351.000000	82.635471
1350.000000	83.461690
1349.000000	84.176882
1348.000000	84.813050
1347.000000	85.394829
1346.000000	85.931963
1345.000000	86.435994
1344.000000	86.921453
1343.000000	87.387276
1342.000000	87.821442
1341.000000	88.223365
1340.000000	88.601886
1339.000000	88.953927
1338.000000	89.266459
1337.000000	89.545510
1336.000000	89.813536
1335.000000	90.085218
1334.000000	90.369761
1333.000000	90.683457
1332.000000	91.033557
1331.000000	91.396921
1330.000000	91.734051
1329.000000	92.022890
1328.000000	92.250412
1327.000000	92.383522
1326.000000	92.364335
1325.000000	92.121858
1324.000000	91.573994
1323.000000	90.593421
1322.000000	89.008900
1321.000000	86.639011
1320.000000	83.325687
1319.000000	79.052697
1318.000000	74.141455
1317.000000	69.312105
1316.000000	65.440087
1315.000000	63.137508
1314.000000	62.464720
1313.000000	63.035992
1312.000000	64.389926
1311.000000	66.245985
1310.000000	68.486330
1309.000000	70.984798
1308.000000	73.553515
1307.000000	76.031833
1306.000000	78.345039
1305.000000	80.469029
1304.000000	82.363626
1303.000000	83.970580
1302.000000	85.267909
1301.000000	86.288524
1300.000000	87.067168
1299.000000	87.607502
1298.000000	87.871815
1297.000000	87.723060
1296.000000	86.898297
1295.000000	85.158506
1294.000000	82.584643
1293.000000	79.683575
1292.000000	77.116754
1291.000000	75.320194
1290.000000	74.387558
1289.000000	74.211547
1288.000000	74.566358
1287.000000	75.051094
1286.000000	75.158610
1285.000000	74.595272
1284.000000	73.518899
1283.000000	72.414493
1282.000000	71.753709
1281.000000	71.744022
1280.000000	72.276108
1279.000000	72.955723
1278.000000	73.166718
1277.000000	72.234910
1276.000000	69.705584
1275.000000	65.618602
1274.000000	60.669628
1273.000000	56.154623
1272.000000	53.580768
1271.000000	53.945516
1270.000000	57.157082
1269.000000	62.122383
1268.000000	67.435849
1267.000000	72.105214
1266.000000	75.783117
1265.000000	78.569820
1264.000000	80.718569
1263.000000	82.443485
1262.000000	83.872653
1261.000000	85.082678
1260.000000	86.128311
1259.000000	87.040532
1258.000000	87.838060
1257.000000	88.536904
1256.000000	89.155167
1255.000000	89.710059
1254.000000	90.213869
1253.000000	90.684181
1252.000000	91.141415
1251.000000	91.597334
1250.000000	92.052427
1249.000000	92.504171
1248.000000	92.952029
1247.000000	93.390856
1246.000000	93.811481
1245.000000	94.212929
1244.000000	94.602993
1243.000000	94.986218
1242.000000	95.360409
1241.000000	95.724453
1240.000000	96.077528
1239.000000	96.407159
1238.000000	96.691611
1237.000000	96.912860
1236.000000	97.058334
1235.000000	97.115377
1234.000000	97.072230
1233.000000	96.929667
1232.000000	96.696362
1231.000000	96.371078
1230.000000	95.943136
1229.000000	95.393839
1228.000000	94.694191
1227.000000	93.792672
1226.000000	92.610891
1225.000000	91.066360
1224.000000	89.074609
1223.000000	86.563038
1222.000000	83.500214
1221.000000	79.920804
1220.000000	75.948181
1219.000000	71.765225
1218.000000	67.562982
1217.000000	63.498705
1216.000000	59.676231
1215.000000	56.139419
1214.000000	52.871971
1213.000000	49.824251
1212.000000	46.965861
1211.000000	44.332633
1210.000000	42.014554
1209.000000	40.149582
1208.000000	38.903269
1207.000000	38.382152
1206.000000	38.553587
1205.000000	39.233484
1204.000000	40.206847
1203.000000	41.348665
1202.000000	42.639247
1201.000000	44.135152
1200.000000	45.895077
1199.000000	47.919767
1198.000000	50.142715
1197.000000	52.474680
1196.000000	54.866190
1195.000000	57.302862
1194.000000	59.769444
1193.000000	62.241438
1192.000000	64.694215
1191.000000	67.095789
1190.000000	69.399390
1189.000000	71.560432
1188.000000	73.551581
1187.000000	75.359056
1186.000000	76.967401
1185.000000	78.371509
1184.000000	79.589915
1183.000000	80.649209
1182.000000	81.574096
1181.000000	82.378872
1180.000000	83.068035
1179.000000	83.639959
1178.000000	84.094035
1177.000000	84.450704
1176.000000	84.746042
1175.000000	85.011797
1174.000000	85.269465
1173.000000	85.537997
1172.000000	85.837982
1171.000000	86.179867
1170.000000	86.559372
1169.000000	86.968401
1168.000000	87.399985
1167.000000	87.839295
1166.000000	88.260447
1165.000000	88.638678
1164.000000	88.960856
1163.000000	89.228150
1162.000000	89.462515
1161.000000	89.709651
1160.000000	90.018578
1159.000000	90.408825
1158.000000	90.862225
1157.000000	91.346604
1156.000000	91.838521
1155.000000	92.324944
1154.000000	92.799288
1153.000000	93.260627
1152.000000	93.705538
1151.000000	94.116303
1150.000000	94.465335
1149.000000	94.735864
1148.000000	94.926116
1147.000000	95.039290
1146.000000	95.079475
1145.000000	95.049855
1144.000000	94.948606
1143.000000	94.754414
1142.000000	94.430914
1141.000000	93.946776
1140.000000	93.273735
1139.000000	92.385300
1138.000000	91.244196
1137.000000	89.799409
1136.000000	87.989085
1135.000000	85.723282
1134.000000	82.906375
1133.000000	79.454447
1132.000000	75.323671
1131.000000	70.562036
1130.000000	65.332345
1129.000000	59.916193
1128.000000	54.654360
1127.000000	49.828065
1126.000000	45.532629
1125.000000	41.651776
1124.000000	37.985072
1123.000000	34.449096
1122.000000	31.187456
1121.000000	28.448027
1120.000000	26.324998
1119.000000	24.543337
1118.000000	22.584017
1117.000000	20.179678
1116.000000	17.720059
1115.000000	16.177452
1114.000000	16.494685
1113.000000	18.985175
1112.000000	23.210840
1111.000000	28.251957
1110.000000	33.121534
1109.000000	37.071380
1108.000000	39.647821
1107.000000	40.531946
1106.000000	39.452605
1105.000000	36.383234
1104.000000	31.930111
1103.000000	27.459545
1102.000000	24.613961
1101.000000	24.479404
1100.000000	27.079623
1099.000000	31.538364
1098.000000	36.694276
1097.000000	41.696646
1096.000000	46.169059
1095.000000	50.055799
1094.000000	53.424542
1093.000000	56.370408
1092.000000	58.993171
1091.000000	61.373675
1090.000000	63.562732
1089.000000	65.598133
1088.000000	67.525551
1087.000000	69.374169
1086.000000	71.151450
1085.000000	72.859200
1084.000000	74.496321
1083.000000	76.054239
1082.000000	77.516376
1081.000000	78.879797
1080.000000	80.155029
1079.000000	81.341708
1078.000000	82.431737
1077.000000	83.423117
1076.000000	84.318581
1075.000000	85.106737
1074.000000	85.753525
1073.000000	86.228376
1072.000000	86.490644
1071.000000	86.465403
1070.000000	86.044237
1069.000000	85.083942
1068.000000	83.434377
1067.000000	80.932476
1066.000000	77.445276
1065.000000	72.960617
1064.000000	67.619908
1063.000000	61.725423
1062.000000	55.647059
1061.000000	49.692503
1060.000000	44.010680
1059.000000	38.569282
1058.000000	33.246637
1057.000000	28.015208
1056.000000	23.096323
1055.000000	18.914288
1054.000000	15.936730
1053.000000	14.474743
1052.000000	14.621828
1051.000000	16.273538
1050.000000	19.111551
1049.000000	22.709107
1048.000000	26.635825
1047.000000	30.546034
1046.000000	34.231769
1045.000000	37.614953
1044.000000	40.720799
1043.000000	43.597059
1042.000000	46.253906
1041.000000	48.670616
1040.000000	50.839934
1039.000000	52.769121
1038.000000	54.466500
1037.000000	55.949147
1036.000000	57.246232
1035.000000	58.397744
1034.000000	59.438559
1033.000000	60.405985
1032.000000	61.347844
1031.000000	62.301221
1030.000000	63.277940
1029.000000	64.275040
1028.000000	65.295065
1027.000000	66.347752
1026.000000	67.443771
1025.000000	68.596783
1024.000000	69.819987
1023.000000	71.104839
1022.000000	72.412986
1021.000000	73.692842
1020.000000	74.899074
1019.000000	75.981106
1018.000000	76.859361
1017.000000	77.429081
1016.000000	77.533435
1015.000000	76.970858
1014.000000	75.512727
1013.000000	72.944338
1012.000000	69.143892
1011.000000	64.089177
1010.000000	57.888345
1009.000000	50.821684
1008.000000	43.397430
1007.000000	36.385917
1006.000000	30.740021
1005.000000	27.339576
1004.000000	26.645447
1003.000000	28.458791
1002.000000	31.920553
1001.000000	35.848855
1000.000000	39.116991
999.000000	40.861166
998.000000	40.610474
997.000000	38.462670
996.000000	35.226443
995.000000	32.215311
994.000000	30.626647
993.000000	30.939818
992.000000	32.825090
991.000000	35.557105
990.000000	38.511693
989.000000	41.393736
988.000000	44.169275
987.000000	46.866158
986.000000	49.464789
985.000000	51.902855
984.000000	54.118615
983.000000	56.077455
982.000000	57.779760
981.000000	59.257044
980.000000	60.552818
979.000000	61.710758
978.000000	62.762397
977.000000	63.735640
976.000000	64.654506
975.000000	65.529326
974.000000	66.361512
973.000000	67.147711
972.000000	67.883417
971.000000	68.559943
970.000000	69.167037
969.000000	69.705313
968.000000	70.185184
967.000000	70.620614
966.000000	71.028376
965.000000	71.429247
964.000000	71.842895
963.000000	72.276731
962.000000	72.726381
961.000000	73.183979
960.000000	73.638111
959.000000	74.070946
958.000000	74.464094
957.000000	74.809746
956.000000	75.110709
955.000000	75.372142
954.000000	75.603447
953.000000	75.822779
952.000000	76.050390
951.000000	76.297849
950.000000	76.568093
949.000000	76.861775
948.000000	77.173145
947.000000	77.483988
946.000000	77.772861
945.000000	78.028254
944.000000	78.247072
943.000000	78.425904
942.000000	78.565220
941.000000	78.679252
940.000000	78.790217
939.000000	78.915654
938.000000	79.067466
937.000000	79.256484
936.000000	79.486391
935.000000	79.745974
934.000000	80.016671
933.000000	80.284575
932.000000	80.537616
931.000000	80.758656
930.000000	80.933469
929.000000	81.062580
928.000000	81.156541
927.000000	81.225821
926.000000	81.285783
925.000000	81.362617
924.000000	81.481238
923.000000	81.649943
922.000000	81.864148
921.000000	82.116050
920.000000	82.390091
919.000000	82.658262
918.000000	82.894260
917.000000	83.087754
916.000000	83.236777
915.000000	83.338236
914.000000	83.399463
913.000000	83.449401
912.000000	83.522694
911.000000	83.640044
910.000000	83.811809
909.000000	84.045639
908.000000	84.331103
907.000000	84.619245
906.000000	84.833088
905.000000	84.901947
904.000000	84.798949
903.000000	84.571105
902.000000	84.327158
901.000000	84.161552
900.000000	84.064984
899.000000	83.926223
898.000000	83.639988
897.000000	83.181949
896.000000	82.602213
895.000000	81.986433
894.000000	81.389822
893.000000	80.693961
892.000000	79.489952
891.000000	77.299888
890.000000	74.143308
889.000000	70.873476
888.000000	68.719888
887.000000	68.391762
886.000000	69.610675
885.000000	71.503187
884.000000	73.355198
883.000000	74.912621
882.000000	76.196206
881.000000	77.262439
880.000000	78.156764
879.000000	78.951508
878.000000	79.716295
877.000000	80.473301
876.000000	81.202485
875.000000	81.870348
874.000000	82.444162
873.000000	82.913980
872.000000	83.307654
871.000000	83.669080
870.000000	84.022020
869.000000	84.360927
868.000000	84.670220
867.000000	84.926775
866.000000	85.093630
865.000000	85.139825
864.000000	85.068295
863.000000	84.919330
862.000000	84.749374
861.000000	84.614896
860.000000	84.564533
859.000000	84.623575
858.000000	84.782763
857.000000	85.012669
856.000000	85.288384
855.000000	85.591655
854.000000	85.900630
853.000000	86.191039
852.000000	86.444762
851.000000	86.648425
850.000000	86.790191
849.000000	86.868526
848.000000	86.900482
847.000000	86.912953
846.000000	86.928645
845.000000	86.966456
844.000000	87.045642
843.000000	87.178439
842.000000	87.361078
841.000000	87.578394
840.000000	87.812286
839.000000	88.041022
838.000000	88.238874
837.000000	88.385817
836.000000	88.475198
835.000000	88.511185
834.000000	88.506753
833.000000	88.487661
832.000000	88.487956
831.000000	88.532417
830.000000	88.627039
829.000000	88.768550
828.000000	88.953978
827.000000	89.174435
826.000000	89.408229
825.000000	89.627784
824.000000	89.808934
823.000000	89.931078
822.000000	89.981236
821.000000	89.963266
820.000000	89.896748
819.000000	89.800170
818.000000	89.672087
817.000000	89.488623
816.000000	89.185963
815.000000	88.635375
814.000000	87.629924
813.000000	85.909302
812.000000	83.259152
811.000000	79.660986
810.000000	75.444484
809.000000	71.299478
808.000000	68.060254
807.000000	66.337983
806.000000	66.255267
805.000000	67.466900
804.000000	69.416939
803.000000	71.614650
802.000000	73.740183
801.000000	75.632681
800.000000	77.229945
799.000000	78.514763
798.000000	79.488423
797.000000	80.162087
796.000000	80.553712
795.000000	80.682547
794.000000	80.575433
793.000000	80.274377
792.000000	79.843708
791.000000	79.361028
790.000000	78.904239
789.000000	78.543927
788.000000	78.331496
787.000000	78.285218
786.000000	78.386498
785.000000	78.595494
784.000000	78.866896
783.000000	79.153981
782.000000	79.409857
781.000000	79.600822
780.000000	79.722200
779.000000	79.799902
778.000000	79.882138
777.000000	80.026737
776.000000	80.283198
775.000000	80.671985
774.000000	81.175152
773.000000	81.747871
772.000000	82.337680
771.000000	82.898583
770.000000	83.399718
769.000000	83.829427
768.000000	84.191562
767.000000	84.497332
766.000000	84.762579
765.000000	85.007861
764.000000	85.252852
763.000000	85.506829
762.000000	85.767650
761.000000	86.028390
760.000000	86.279413
759.000000	86.506994
758.000000	86.697305
757.000000	86.843999
756.000000	86.948458
755.000000	87.014406
754.000000	87.048651
753.000000	87.065061
752.000000	87.080714
751.000000	87.107017
750.000000	87.148157
749.000000	87.206049
748.000000	87.279687
747.000000	87.359770
746.000000	87.429847
745.000000	87.472905
744.000000	87.473888
743.000000	87.419679
742.000000	87.303994
741.000000	87.133225
740.000000	86.923524
739.000000	86.693710
738.000000	86.461730
737.000000	86.237369
736.000000	86.006278
735.000000	85.716458
734.000000	85.285062
733.000000	84.621256
732.000000	83.651855
731.000000	82.353949
730.000000	80.790659
729.000000	79.123453
728.000000	77.572116
727.000000	76.343218
726.000000	75.574512
725.000000	75.317519
724.000000	75.546147
723.000000	76.180288
722.000000	77.122792
721.000000	78.279528
720.000000	79.543872
719.000000	80.782789
718.000000	81.870708
717.000000	82.738135
716.000000	83.379123
715.000000	83.824116
714.000000	84.116316
713.000000	84.304152
712.000000	84.432503
711.000000	84.533670
710.000000	84.631842
709.000000	84.750387
708.000000	84.904269
707.000000	85.088555
706.000000	85.284325
705.000000	85.473809
704.000000	85.641410
703.000000	85.769371
702.000000	85.847107
701.000000	85.877450
700.000000	85.869397
699.000000	85.832370
698.000000	85.781078
697.000000	85.740178
696.000000	85.727694
695.000000	85.743106
694.000000	85.781350
693.000000	85.839521
692.000000	85.907805
691.000000	85.966887
690.000000	86.005079
689.000000	86.030612
688.000000	86.047554
687.000000	86.041111
686.000000	86.004182
685.000000	85.955224
684.000000	85.916199
683.000000	85.895324
682.000000	85.899145
681.000000	85.947478
680.000000	86.044881
679.000000	86.167039
678.000000	86.309847
677.000000	86.448794
676.000000	86.564103
675.000000	86.666974
674.000000	86.697953
673.000000	86.568946
672.000000	86.302215
671.000000	86.056576
670.000000	85.972319
669.000000	86.156571
668.000000	86.582317
667.000000	86.961722
666.000000	87.180638
665.000000	87.367502
664.000000	87.544805
663.000000	87.660923
662.000000	87.693037
661.000000	87.687116
660.000000	87.654707
659.000000	87.577988
658.000000	87.485229
657.000000	87.400679
656.000000	87.330987
655.000000	87.314847
654.000000	87.365064
653.000000	87.465818
652.000000	87.602024
651.000000	87.765974
650.000000	87.934090
649.000000	88.074678
648.000000	88.177495
647.000000	88.244130
646.000000	88.264209
645.000000	88.231445
644.000000	88.173885
643.000000	88.144137
642.000000	88.177850
641.000000	88.281077
640.000000	88.453319
639.000000	88.686598
638.000000	88.942980
637.000000	89.166300
636.000000	89.318769
635.000000	89.389043
634.000000	89.375943
633.000000	89.287501
632.000000	89.154192
631.000000	89.024069
630.000000	88.940368
629.000000	88.930614
628.000000	89.010563
627.000000	89.178425
626.000000	89.404574
625.000000	89.642373
624.000000	89.849624
623.000000	89.991941
622.000000	90.033092
621.000000	89.949645
620.000000	89.761324
619.000000	89.535582
618.000000	89.357231
617.000000	89.287533
616.000000	89.342576
615.000000	89.500446
614.000000	89.725213
613.000000	89.988048
612.000000	90.264576
611.000000	90.516311
610.000000	90.695903
609.000000	90.774571
608.000000	90.754321
607.000000	90.652090
606.000000	90.490323
605.000000	90.304650
604.000000	90.136829
603.000000	90.010580
602.000000	89.918085
601.000000	89.831855
600.000000	89.710202
599.000000	89.480329
598.000000	89.035553
597.000000	88.248045
596.000000	86.984449
595.000000	85.083391
594.000000	82.282068
593.000000	78.183266
592.000000	72.388232
591.000000	64.922456
590.000000	56.694939
589.000000	49.479413
588.000000	45.191605
587.000000	44.865626
586.000000	48.022343
585.000000	53.024775
584.000000	58.229274
583.000000	62.769272
582.000000	66.477436
581.000000	69.458261
580.000000	71.843569
579.000000	73.755742
578.000000	75.292961
577.000000	76.521940
576.000000	77.511761
575.000000	78.353239
574.000000	79.108109
573.000000	79.792949
572.000000	80.416051
571.000000	80.986127
570.000000	81.483239
569.000000	81.855329
568.000000	82.071325
567.000000	82.135278
566.000000	82.041639
565.000000	81.757765
564.000000	81.264839
563.000000	80.603212
562.000000	79.864314
561.000000	79.158973
560.000000	78.587514
559.000000	78.190241
558.000000	77.908102
557.000000	77.639934
556.000000	77.373770
555.000000	77.229072
554.000000	77.351374
553.000000	77.789149
552.000000	78.481318
551.000000	79.312567
550.000000	80.156137
549.000000	80.923585
548.000000	81.601554
547.000000	82.219661
546.000000	82.782886
545.000000	83.260996
544.000000	83.630609
543.000000	83.885183
542.000000	84.010230
541.000000	83.985608
540.000000	83.825896
539.000000	83.586296
538.000000	83.328185
537.000000	83.102748
536.000000	82.961975
535.000000	82.944324
534.000000	83.037672
533.000000	83.183186
532.000000	83.315434
531.000000	83.387786
530.000000	83.361079
529.000000	83.197604
528.000000	82.872860
527.000000	82.386263
526.000000	81.749859
525.000000	80.987751
524.000000	80.125860
523.000000	79.145967
522.000000	77.967055
521.000000	76.468682
520.000000	74.542051
519.000000	72.122692
518.000000	69.225912
517.000000	66.034845
516.000000	62.950075
515.000000	60.461295
514.000000	58.914108
513.000000	58.414449
512.000000	58.891881
511.000000	60.183082
510.000000	62.045221
509.000000	64.201418
508.000000	66.447914
507.000000	68.655190
506.000000	70.705838
505.000000	72.513023
504.000000	74.083041
503.000000	75.479386
502.000000	76.722998
501.000000	77.778011
500.000000	78.636066
499.000000	79.355078
498.000000	79.995929
497.000000	80.591312
496.000000	81.167715
495.000000	81.744626
494.000000	82.305544
493.000000	82.794703
492.000000	83.174486
491.000000	83.443929
490.000000	83.590700
489.000000	83.587693
488.000000	83.435609
487.000000	83.170238
486.000000	82.793520
485.000000	82.227730
484.000000	81.371918
483.000000	80.141180
482.000000	78.445624
481.000000	76.191843
480.000000	73.333667
479.000000	69.893230
478.000000	65.932954
477.000000	61.629181
476.000000	57.391599
475.000000	53.824279
474.000000	51.472135
473.000000	50.630969
472.000000	51.318219
471.000000	53.297397
470.000000	56.184180
469.000000	59.566578
468.000000	63.097286
467.000000	66.490297
466.000000	69.513098
465.000000	72.045661
464.000000	74.086411
463.000000	75.701063
462.000000	76.963774
461.000000	77.942407
460.000000	78.702195
459.000000	79.325169
458.000000	79.907620
457.000000	80.520524
456.000000	81.181170
455.000000	81.863825
454.000000	82.531544
453.000000	83.136926
452.000000	83.622033
451.000000	83.946125
450.000000	84.100491
449.000000	84.107533
448.000000	84.021874
447.000000	83.928220
446.000000	83.911464
445.000000	84.020870
444.000000	84.261810
443.000000	84.614649
442.000000	85.032681
441.000000	85.438478
440.000000	85.748061
439.000000	85.902673
438.000000	85.886687
437.000000	85.724881
436.000000	85.481409
435.000000	85.244136
434.000000	85.075065
433.000000	84.973379
432.000000	84.898531
431.000000	84.824639
430.000000	84.760791
429.000000	84.721014
428.000000	84.706960
427.000000	84.717766
426.000000	84.738267
425.000000	84.734864
424.000000	84.701264
423.000000	84.686197
422.000000	84.726740
421.000000	84.791929
420.000000	84.847718
419.000000	84.973164
418.000000	85.290418
417.000000	85.762938
416.000000	86.247378
415.000000	86.650593
414.000000	86.942351
413.000000	87.110048
412.000000	87.138829
411.000000	87.025383
410.000000	86.766452
409.000000	86.301507
408.000000	85.558382
407.000000	84.620482
406.000000	83.815714
405.000000	83.523909
404.000000	83.914698
403.000000	84.814111
402.000000	85.866855
401.000000	86.703875
400.000000	87.216590
