PE IR       SUBTECH     SPECTRUM    ASCII       PEDS        4.00        
   -1
23ms143-cis.asc
24/10/17
15:24:09.00
24/10/17
15:24:09.00
Administrator
Sample 1288 By Administrator Date Thursday, October 17 2024
400.000000
#HDR
-1
-1
#GR
cm-1
%T
1.0
0.0
4000.000000
-1.000000
3601
8
90.881500
13.704648
#DATA
4000.000000	69.200357
3999.000000	69.183191
3998.000000	69.169497
3997.000000	69.158039
3996.000000	69.147770
3995.000000	69.138000
3994.000000	69.128112
3993.000000	69.117918
3992.000000	69.108365
3991.000000	69.101011
3990.000000	69.096251
3989.000000	69.093158
3988.000000	69.091533
3987.000000	69.092965
3986.000000	69.099361
3985.000000	69.110945
3984.000000	69.126325
3983.000000	69.143977
3982.000000	69.163108
3981.000000	69.183480
3980.000000	69.204839
3979.000000	69.227243
3978.000000	69.251782
3977.000000	69.279671
3976.000000	69.310920
3975.000000	69.344178
3974.000000	69.378274
3973.000000	69.413352
3972.000000	69.450281
3971.000000	69.490008
3970.000000	69.532515
3969.000000	69.576498
3968.000000	69.620383
3967.000000	69.663492
3966.000000	69.706275
3965.000000	69.749841
3964.000000	69.795146
3963.000000	69.842285
3962.000000	69.890985
3961.000000	69.940232
3960.000000	69.988679
3959.000000	70.036971
3958.000000	70.086628
3957.000000	70.137622
3956.000000	70.187986
3955.000000	70.235855
3954.000000	70.281000
3953.000000	70.323501
3952.000000	70.363258
3951.000000	70.400799
3950.000000	70.437523
3949.000000	70.475686
3948.000000	70.517231
3947.000000	70.561198
3946.000000	70.604038
3945.000000	70.644690
3944.000000	70.687104
3943.000000	70.733021
3942.000000	70.777653
3941.000000	70.815154
3940.000000	70.846386
3939.000000	70.880344
3938.000000	70.922932
3937.000000	70.968894
3936.000000	71.008437
3935.000000	71.039274
3934.000000	71.069953
3933.000000	71.107175
3932.000000	71.147417
3931.000000	71.182040
3930.000000	71.206745
3929.000000	71.226242
3928.000000	71.245484
3927.000000	71.265309
3926.000000	71.287176
3925.000000	71.311524
3924.000000	71.332767
3923.000000	71.343348
3922.000000	71.343959
3921.000000	71.345145
3920.000000	71.354587
3919.000000	71.369980
3918.000000	71.387350
3917.000000	71.408131
3916.000000	71.433773
3915.000000	71.458523
3914.000000	71.479207
3913.000000	71.502437
3912.000000	71.533694
3911.000000	71.571607
3910.000000	71.609229
3909.000000	71.642653
3908.000000	71.672460
3907.000000	71.695494
3906.000000	71.706222
3905.000000	71.703307
3904.000000	71.691896
3903.000000	71.680329
3902.000000	71.674772
3901.000000	71.683510
3900.000000	71.716748
3899.000000	71.770460
3898.000000	71.828452
3897.000000	71.881442
3896.000000	71.933546
3895.000000	71.993410
3894.000000	72.058587
3893.000000	72.118372
3892.000000	72.166589
3891.000000	72.207442
3890.000000	72.239180
3889.000000	72.251290
3888.000000	72.250749
3887.000000	72.268712
3886.000000	72.324320
3885.000000	72.395172
3884.000000	72.439580
3883.000000	72.448026
3882.000000	72.450339
3881.000000	72.474690
3880.000000	72.517758
3879.000000	72.554832
3878.000000	72.569024
3877.000000	72.568113
3876.000000	72.575446
3875.000000	72.606321
3874.000000	72.647222
3873.000000	72.663007
3872.000000	72.640823
3871.000000	72.615724
3870.000000	72.630799
3869.000000	72.680028
3868.000000	72.714568
3867.000000	72.715519
3866.000000	72.722192
3865.000000	72.764938
3864.000000	72.819620
3863.000000	72.852476
3862.000000	72.865853
3861.000000	72.887287
3860.000000	72.931481
3859.000000	72.995688
3858.000000	73.073017
3857.000000	73.151374
3856.000000	73.209193
3855.000000	73.220258
3854.000000	73.184418
3853.000000	73.142431
3852.000000	73.121909
3851.000000	73.114752
3850.000000	73.121587
3849.000000	73.157888
3848.000000	73.218067
3847.000000	73.282673
3846.000000	73.340869
3845.000000	73.390100
3844.000000	73.430675
3843.000000	73.463527
3842.000000	73.483634
3841.000000	73.492056
3840.000000	73.496798
3839.000000	73.504913
3838.000000	73.520348
3837.000000	73.542272
3836.000000	73.566666
3835.000000	73.589743
3834.000000	73.612785
3833.000000	73.644897
3832.000000	73.691498
3831.000000	73.745229
3830.000000	73.794315
3829.000000	73.831959
3828.000000	73.862242
3827.000000	73.900839
3826.000000	73.950702
3825.000000	73.991837
3824.000000	74.005786
3823.000000	74.005475
3822.000000	74.024713
3821.000000	74.074646
3820.000000	74.121735
3819.000000	74.128710
3818.000000	74.108040
3817.000000	74.110439
3816.000000	74.163976
3815.000000	74.237760
3814.000000	74.286012
3813.000000	74.306989
3812.000000	74.332052
3811.000000	74.377713
3810.000000	74.428746
3809.000000	74.462589
3808.000000	74.485188
3807.000000	74.521340
3806.000000	74.568227
3805.000000	74.595669
3804.000000	74.590065
3803.000000	74.584595
3802.000000	74.615441
3801.000000	74.670397
3800.000000	74.704842
3799.000000	74.702547
3798.000000	74.696096
3797.000000	74.721703
3796.000000	74.778688
3795.000000	74.837082
3794.000000	74.879482
3793.000000	74.915281
3792.000000	74.957490
3791.000000	75.004887
3790.000000	75.048370
3789.000000	75.083066
3788.000000	75.111761
3787.000000	75.138310
3786.000000	75.165346
3785.000000	75.195049
3784.000000	75.224992
3783.000000	75.247764
3782.000000	75.261101
3781.000000	75.273258
3780.000000	75.292982
3779.000000	75.319795
3778.000000	75.344076
3777.000000	75.360060
3776.000000	75.375606
3775.000000	75.404974
3774.000000	75.448021
3773.000000	75.485793
3772.000000	75.506752
3771.000000	75.525015
3770.000000	75.555060
3769.000000	75.586876
3768.000000	75.603600
3767.000000	75.611649
3766.000000	75.637459
3765.000000	75.689400
3764.000000	75.744122
3763.000000	75.777852
3762.000000	75.797382
3761.000000	75.829150
3760.000000	75.875473
3759.000000	75.917355
3758.000000	75.949899
3757.000000	75.982871
3756.000000	76.017113
3755.000000	76.043297
3754.000000	76.064339
3753.000000	76.093376
3752.000000	76.123867
3751.000000	76.138564
3750.000000	76.150267
3749.000000	76.184678
3748.000000	76.226249
3747.000000	76.244565
3746.000000	76.252887
3745.000000	76.296779
3744.000000	76.387245
3743.000000	76.475143
3742.000000	76.517219
3741.000000	76.536095
3740.000000	76.570509
3739.000000	76.619609
3738.000000	76.665094
3737.000000	76.712167
3736.000000	76.780830
3735.000000	76.852938
3734.000000	76.894610
3733.000000	76.917919
3732.000000	76.958518
3731.000000	77.019206
3730.000000	77.070256
3729.000000	77.096676
3728.000000	77.119965
3727.000000	77.163478
3726.000000	77.218349
3725.000000	77.256877
3724.000000	77.274650
3723.000000	77.290025
3722.000000	77.312918
3721.000000	77.342347
3720.000000	77.371837
3719.000000	77.401112
3718.000000	77.438260
3717.000000	77.484668
3716.000000	77.528534
3715.000000	77.558398
3714.000000	77.581090
3713.000000	77.612984
3712.000000	77.656495
3711.000000	77.701126
3710.000000	77.744593
3709.000000	77.795442
3708.000000	77.859895
3707.000000	77.933842
3706.000000	78.007946
3705.000000	78.075356
3704.000000	78.135140
3703.000000	78.189939
3702.000000	78.240439
3701.000000	78.286161
3700.000000	78.322497
3699.000000	78.345959
3698.000000	78.367988
3697.000000	78.405677
3696.000000	78.454870
3695.000000	78.494428
3694.000000	78.517342
3693.000000	78.539693
3692.000000	78.571814
3691.000000	78.600492
3690.000000	78.611121
3689.000000	78.615373
3688.000000	78.637063
3687.000000	78.671881
3686.000000	78.700189
3685.000000	78.724537
3684.000000	78.759730
3683.000000	78.805856
3682.000000	78.850196
3681.000000	78.887626
3680.000000	78.925849
3679.000000	78.953673
3678.000000	78.948750
3677.000000	78.924220
3676.000000	78.925839
3675.000000	78.968570
3674.000000	79.003836
3673.000000	78.989185
3672.000000	78.954756
3671.000000	78.967164
3670.000000	79.039413
3669.000000	79.120364
3668.000000	79.172958
3667.000000	79.205295
3666.000000	79.237480
3665.000000	79.280156
3664.000000	79.328612
3663.000000	79.374442
3662.000000	79.414409
3661.000000	79.446050
3660.000000	79.466383
3659.000000	79.470816
3658.000000	79.464062
3657.000000	79.463944
3656.000000	79.483228
3655.000000	79.507506
3654.000000	79.504775
3653.000000	79.468077
3652.000000	79.429570
3651.000000	79.418688
3650.000000	79.423977
3649.000000	79.421371
3648.000000	79.425057
3647.000000	79.459153
3646.000000	79.512511
3645.000000	79.562602
3644.000000	79.606862
3643.000000	79.657385
3642.000000	79.714760
3641.000000	79.763735
3640.000000	79.794942
3639.000000	79.815287
3638.000000	79.832954
3637.000000	79.842411
3636.000000	79.838641
3635.000000	79.833111
3634.000000	79.837403
3633.000000	79.838505
3632.000000	79.808996
3631.000000	79.747480
3630.000000	79.688850
3629.000000	79.665041
3628.000000	79.664610
3627.000000	79.655943
3626.000000	79.629234
3625.000000	79.600908
3624.000000	79.584241
3623.000000	79.568974
3622.000000	79.536400
3621.000000	79.483403
3620.000000	79.416872
3619.000000	79.338178
3618.000000	79.246429
3617.000000	79.143152
3616.000000	79.034146
3615.000000	78.931381
3614.000000	78.843454
3613.000000	78.764389
3612.000000	78.678849
3611.000000	78.579915
3610.000000	78.481408
3609.000000	78.405284
3608.000000	78.352143
3607.000000	78.301308
3606.000000	78.237350
3605.000000	78.161963
3604.000000	78.084354
3603.000000	78.006740
3602.000000	77.926003
3601.000000	77.844019
3600.000000	77.761637
3599.000000	77.673359
3598.000000	77.578360
3597.000000	77.482433
3596.000000	77.391658
3595.000000	77.306652
3594.000000	77.223135
3593.000000	77.137063
3592.000000	77.044312
3591.000000	76.941487
3590.000000	76.835611
3589.000000	76.744765
3588.000000	76.678480
3587.000000	76.624912
3586.000000	76.566504
3585.000000	76.499678
3584.000000	76.431582
3583.000000	76.367518
3582.000000	76.306467
3581.000000	76.245166
3580.000000	76.181071
3579.000000	76.111894
3578.000000	76.037306
3577.000000	75.960158
3576.000000	75.882709
3575.000000	75.805326
3574.000000	75.726649
3573.000000	75.644197
3572.000000	75.553447
3571.000000	75.447250
3570.000000	75.323947
3569.000000	75.196713
3568.000000	75.083914
3567.000000	74.988666
3566.000000	74.898672
3565.000000	74.804136
3564.000000	74.705469
3563.000000	74.607357
3562.000000	74.510771
3561.000000	74.412021
3560.000000	74.306648
3559.000000	74.191839
3558.000000	74.067192
3557.000000	73.934664
3556.000000	73.795912
3555.000000	73.650858
3554.000000	73.499934
3553.000000	73.345006
3552.000000	73.186264
3551.000000	73.019166
3550.000000	72.838627
3549.000000	72.647707
3548.000000	72.455431
3547.000000	72.265941
3546.000000	72.074053
3545.000000	71.873582
3544.000000	71.663887
3543.000000	71.447372
3542.000000	71.224929
3541.000000	70.996420
3540.000000	70.760850
3539.000000	70.514745
3538.000000	70.254150
3537.000000	69.977756
3536.000000	69.686866
3535.000000	69.381636
3534.000000	69.061189
3533.000000	68.726701
3532.000000	68.379953
3531.000000	68.018751
3530.000000	67.637259
3529.000000	67.233311
3528.000000	66.810795
3527.000000	66.373187
3526.000000	65.919157
3525.000000	65.446654
3524.000000	64.956049
3523.000000	64.447385
3522.000000	63.918872
3521.000000	63.369825
3520.000000	62.801923
3519.000000	62.215696
3518.000000	61.609139
3517.000000	60.980879
3516.000000	60.332362
3515.000000	59.665653
3514.000000	58.981008
3513.000000	58.277503
3512.000000	57.554321
3511.000000	56.810438
3510.000000	56.046247
3509.000000	55.267141
3508.000000	54.480509
3507.000000	53.687677
3506.000000	52.882403
3505.000000	52.058473
3504.000000	51.216001
3503.000000	50.360449
3502.000000	49.499366
3501.000000	48.640145
3500.000000	47.786081
3499.000000	46.933122
3498.000000	46.074184
3497.000000	45.207489
3496.000000	44.338401
3495.000000	43.473519
3494.000000	42.617236
3493.000000	41.773811
3492.000000	40.946983
3491.000000	40.136078
3490.000000	39.337569
3489.000000	38.552604
3488.000000	37.789217
3487.000000	37.055575
3486.000000	36.354847
3485.000000	35.686569
3484.000000	35.047280
3483.000000	34.430052
3482.000000	33.829291
3481.000000	33.247423
3480.000000	32.692219
3479.000000	32.166001
3478.000000	31.662477
3477.000000	31.173858
3476.000000	30.695186
3475.000000	30.222683
3474.000000	29.753898
3473.000000	29.290844
3472.000000	28.838813
3471.000000	28.402051
3470.000000	27.986110
3469.000000	27.602941
3468.000000	27.267676
3467.000000	26.989504
3466.000000	26.769750
3465.000000	26.608530
3464.000000	26.506632
3463.000000	26.462337
3462.000000	26.473810
3461.000000	26.543830
3460.000000	26.677206
3459.000000	26.872131
3458.000000	27.118640
3457.000000	27.405276
3456.000000	27.720841
3455.000000	28.051101
3454.000000	28.380100
3453.000000	28.694403
3452.000000	28.982094
3451.000000	29.228752
3450.000000	29.418582
3449.000000	29.540510
3448.000000	29.588918
3447.000000	29.559435
3446.000000	29.451132
3445.000000	29.269408
3444.000000	29.023100
3443.000000	28.720362
3442.000000	28.369569
3441.000000	27.984759
3440.000000	27.583752
3439.000000	27.182125
3438.000000	26.794057
3437.000000	26.436047
3436.000000	26.124455
3435.000000	25.869155
3434.000000	25.673267
3433.000000	25.537944
3432.000000	25.465225
3431.000000	25.456686
3430.000000	25.515641
3429.000000	25.650351
3428.000000	25.868063
3427.000000	26.170371
3426.000000	26.554975
3425.000000	27.020929
3424.000000	27.569358
3423.000000	28.197372
3422.000000	28.899862
3421.000000	29.672215
3420.000000	30.507468
3419.000000	31.394419
3418.000000	32.319759
3417.000000	33.273752
3416.000000	34.248736
3415.000000	35.234752
3414.000000	36.222085
3413.000000	37.204700
3412.000000	38.177804
3411.000000	39.133833
3410.000000	40.064496
3409.000000	40.965295
3408.000000	41.834574
3407.000000	42.669120
3406.000000	43.465401
3405.000000	44.223365
3404.000000	44.944941
3403.000000	45.631500
3402.000000	46.285572
3401.000000	46.913392
3400.000000	47.521858
3399.000000	48.112467
3398.000000	48.681805
3397.000000	49.226596
3396.000000	49.745331
3395.000000	50.238203
3394.000000	50.708031
3393.000000	51.161101
3392.000000	51.603882
3391.000000	52.038851
3390.000000	52.466445
3389.000000	52.887788
3388.000000	53.303343
3387.000000	53.710964
3386.000000	54.108327
3385.000000	54.496354
3384.000000	54.877088
3383.000000	55.250592
3382.000000	55.616777
3381.000000	55.978151
3380.000000	56.337791
3379.000000	56.696167
3378.000000	57.052745
3377.000000	57.408823
3376.000000	57.765397
3375.000000	58.120148
3374.000000	58.469583
3373.000000	58.812828
3372.000000	59.150679
3371.000000	59.482566
3370.000000	59.807957
3369.000000	60.129104
3368.000000	60.449362
3367.000000	60.769615
3366.000000	61.088743
3365.000000	61.406480
3364.000000	61.723067
3363.000000	62.037274
3362.000000	62.347423
3361.000000	62.653309
3360.000000	62.955140
3359.000000	63.251760
3358.000000	63.542149
3357.000000	63.827603
3356.000000	64.109904
3355.000000	64.388965
3354.000000	64.664184
3353.000000	64.936507
3352.000000	65.206958
3351.000000	65.474438
3350.000000	65.737361
3349.000000	65.996131
3348.000000	66.251579
3347.000000	66.502219
3346.000000	66.745556
3345.000000	66.981241
3344.000000	67.210737
3343.000000	67.434960
3342.000000	67.654532
3341.000000	67.870848
3340.000000	68.084559
3339.000000	68.293866
3338.000000	68.496153
3337.000000	68.690784
3336.000000	68.877922
3335.000000	69.055859
3334.000000	69.221937
3333.000000	69.374855
3332.000000	69.514451
3331.000000	69.639577
3330.000000	69.748431
3329.000000	69.840663
3328.000000	69.915987
3327.000000	69.972010
3326.000000	70.004884
3325.000000	70.011785
3324.000000	69.991437
3323.000000	69.941529
3322.000000	69.858716
3321.000000	69.740069
3320.000000	69.582032
3319.000000	69.379916
3318.000000	69.127030
3317.000000	68.816709
3316.000000	68.441662
3315.000000	67.991943
3314.000000	67.457635
3313.000000	66.829670
3312.000000	66.099269
3311.000000	65.257629
3310.000000	64.295606
3309.000000	63.209647
3308.000000	61.999172
3307.000000	60.663622
3306.000000	59.204456
3305.000000	57.623983
3304.000000	55.927436
3303.000000	54.117944
3302.000000	52.198177
3301.000000	50.175436
3300.000000	48.060271
3299.000000	45.868169
3298.000000	43.624099
3297.000000	41.366259
3296.000000	39.141372
3295.000000	36.994946
3294.000000	34.967618
3293.000000	33.095970
3292.000000	31.407340
3291.000000	29.909016
3290.000000	28.591643
3289.000000	27.433355
3288.000000	26.403851
3287.000000	25.469080
3286.000000	24.596887
3285.000000	23.767605
3284.000000	22.970268
3283.000000	22.198944
3282.000000	21.457421
3281.000000	20.761100
3280.000000	20.133154
3279.000000	19.596130
3278.000000	19.172123
3277.000000	18.886015
3276.000000	18.756664
3275.000000	18.790006
3274.000000	18.979142
3273.000000	19.305874
3272.000000	19.740177
3271.000000	20.236912
3270.000000	20.744540
3269.000000	21.214867
3268.000000	21.603771
3267.000000	21.871942
3266.000000	21.993104
3265.000000	21.960385
3264.000000	21.783186
3263.000000	21.483110
3262.000000	21.092210
3261.000000	20.654415
3260.000000	20.216614
3259.000000	19.818847
3258.000000	19.494517
3257.000000	19.271180
3256.000000	19.164276
3255.000000	19.171691
3254.000000	19.277721
3253.000000	19.457618
3252.000000	19.678713
3251.000000	19.900754
3250.000000	20.085467
3249.000000	20.206704
3248.000000	20.250928
3247.000000	20.217112
3246.000000	20.122456
3245.000000	20.004989
3244.000000	19.913014
3243.000000	19.888841
3242.000000	19.958461
3241.000000	20.124648
3240.000000	20.362004
3239.000000	20.624469
3238.000000	20.866231
3237.000000	21.058975
3236.000000	21.192561
3235.000000	21.268433
3234.000000	21.296666
3233.000000	21.292537
3232.000000	21.266173
3231.000000	21.216737
3230.000000	21.139861
3229.000000	21.034850
3228.000000	20.903399
3227.000000	20.745067
3226.000000	20.560013
3225.000000	20.352856
3224.000000	20.127576
3223.000000	19.883772
3222.000000	19.620855
3221.000000	19.342659
3220.000000	19.054343
3219.000000	18.757931
3218.000000	18.455553
3217.000000	18.151795
3216.000000	17.848930
3215.000000	17.544188
3214.000000	17.235363
3213.000000	16.925132
3212.000000	16.615739
3211.000000	16.304683
3210.000000	15.990329
3209.000000	15.677390
3208.000000	15.372498
3207.000000	15.078927
3206.000000	14.800184
3205.000000	14.543423
3204.000000	14.315427
3203.000000	14.118637
3202.000000	13.955161
3201.000000	13.830584
3200.000000	13.748315
3199.000000	13.706774
3198.000000	13.704648
3197.000000	13.744376
3196.000000	13.827474
3195.000000	13.949231
3194.000000	14.104887
3193.000000	14.293874
3192.000000	14.514410
3191.000000	14.760827
3190.000000	15.027940
3189.000000	15.315296
3188.000000	15.622172
3187.000000	15.943248
3186.000000	16.274255
3185.000000	16.615403
3184.000000	16.966470
3183.000000	17.323092
3182.000000	17.681665
3181.000000	18.043290
3180.000000	18.408219
3179.000000	18.771870
3178.000000	19.129965
3177.000000	19.482956
3176.000000	19.831738
3175.000000	20.173859
3174.000000	20.507760
3173.000000	20.835973
3172.000000	21.160592
3171.000000	21.479899
3170.000000	21.793197
3169.000000	22.104100
3168.000000	22.415266
3167.000000	22.724540
3166.000000	23.029213
3165.000000	23.329710
3164.000000	23.625659
3163.000000	23.912796
3162.000000	24.187704
3161.000000	24.450617
3160.000000	24.700708
3159.000000	24.933097
3158.000000	25.143381
3157.000000	25.331837
3156.000000	25.499242
3155.000000	25.643783
3154.000000	25.765627
3153.000000	25.869730
3152.000000	25.961880
3151.000000	26.045083
3150.000000	26.123287
3149.000000	26.203987
3148.000000	26.292902
3147.000000	26.390118
3146.000000	26.493815
3145.000000	26.603379
3144.000000	26.715886
3143.000000	26.823997
3142.000000	26.921150
3141.000000	27.005083
3140.000000	27.073622
3139.000000	27.122300
3138.000000	27.149004
3137.000000	27.157235
3136.000000	27.151054
3135.000000	27.130556
3134.000000	27.095795
3133.000000	27.049228
3132.000000	26.991522
3131.000000	26.918332
3130.000000	26.824149
3129.000000	26.706505
3128.000000	26.562703
3127.000000	26.388587
3126.000000	26.183855
3125.000000	25.954861
3124.000000	25.710351
3123.000000	25.457402
3122.000000	25.204573
3121.000000	24.963093
3120.000000	24.740752
3119.000000	24.538251
3118.000000	24.354041
3117.000000	24.188064
3116.000000	24.037899
3115.000000	23.896686
3114.000000	23.758104
3113.000000	23.619537
3112.000000	23.477697
3111.000000	23.326642
3110.000000	23.163658
3109.000000	22.992517
3108.000000	22.818097
3107.000000	22.642689
3106.000000	22.470174
3105.000000	22.308938
3104.000000	22.166757
3103.000000	22.047882
3102.000000	21.958869
3101.000000	21.911052
3100.000000	21.915597
3099.000000	21.978576
3098.000000	22.104550
3097.000000	22.299630
3096.000000	22.564967
3095.000000	22.895220
3094.000000	23.283729
3093.000000	23.726102
3092.000000	24.216615
3091.000000	24.744420
3090.000000	25.299414
3089.000000	25.874983
3088.000000	26.463705
3087.000000	27.056130
3086.000000	27.645601
3085.000000	28.231013
3084.000000	28.811142
3083.000000	29.381396
3082.000000	29.938495
3081.000000	30.483326
3080.000000	31.016587
3079.000000	31.536128
3078.000000	32.041209
3077.000000	32.534066
3076.000000	33.015454
3075.000000	33.482468
3074.000000	33.933395
3073.000000	34.370546
3072.000000	34.795408
3071.000000	35.206292
3070.000000	35.602500
3069.000000	35.986692
3068.000000	36.360908
3067.000000	36.723663
3066.000000	37.074057
3065.000000	37.414185
3064.000000	37.745322
3063.000000	38.066097
3062.000000	38.376118
3061.000000	38.678086
3060.000000	38.973798
3059.000000	39.261929
3058.000000	39.542127
3057.000000	39.816852
3056.000000	40.087532
3055.000000	40.352434
3054.000000	40.610368
3053.000000	40.863097
3052.000000	41.111702
3051.000000	41.354773
3050.000000	41.592070
3049.000000	41.826032
3048.000000	42.057843
3047.000000	42.285449
3046.000000	42.507766
3045.000000	42.727011
3044.000000	42.944711
3043.000000	43.159478
3042.000000	43.370657
3041.000000	43.580436
3040.000000	43.790002
3039.000000	43.997034
3038.000000	44.199699
3037.000000	44.399713
3036.000000	44.599394
3035.000000	44.798991
3034.000000	44.998822
3033.000000	45.200689
3032.000000	45.404860
3031.000000	45.608903
3030.000000	45.811459
3029.000000	46.013941
3028.000000	46.216804
3027.000000	46.417590
3026.000000	46.614602
3025.000000	46.809272
3024.000000	47.002739
3023.000000	47.193134
3022.000000	47.377937
3021.000000	47.555586
3020.000000	47.723083
3019.000000	47.874285
3018.000000	48.002852
3017.000000	48.104185
3016.000000	48.173876
3015.000000	48.209278
3014.000000	48.215417
3013.000000	48.208095
3012.000000	48.208888
3011.000000	48.238751
3010.000000	48.314951
3009.000000	48.447260
3008.000000	48.632362
3007.000000	48.853540
3006.000000	49.087905
3005.000000	49.312451
3004.000000	49.503028
3003.000000	49.631918
3002.000000	49.670713
3001.000000	49.594126
3000.000000	49.384470
2999.000000	49.040168
2998.000000	48.590221
2997.000000	48.102721
2996.000000	47.675309
2995.000000	47.409197
2994.000000	47.374641
2993.000000	47.585149
2992.000000	47.991879
2991.000000	48.509143
2990.000000	49.052634
2989.000000	49.564422
2988.000000	50.015451
2987.000000	50.396473
2986.000000	50.711339
2985.000000	50.969419
2984.000000	51.178558
2983.000000	51.342309
2982.000000	51.464405
2981.000000	51.550014
2980.000000	51.600949
2979.000000	51.612103
2978.000000	51.575250
2977.000000	51.487351
2976.000000	51.355230
2975.000000	51.198413
2974.000000	51.047618
2973.000000	50.935558
2972.000000	50.883698
2971.000000	50.894530
2970.000000	50.952932
2969.000000	51.028159
2968.000000	51.074251
2967.000000	51.038819
2966.000000	50.883136
2965.000000	50.599388
2964.000000	50.212723
2963.000000	49.769512
2962.000000	49.323297
2961.000000	48.921012
2960.000000	48.593450
2959.000000	48.352793
2958.000000	48.199092
2957.000000	48.128210
2956.000000	48.138059
2955.000000	48.234227
2954.000000	48.426058
2953.000000	48.709338
2952.000000	49.047315
2951.000000	49.377356
2950.000000	49.641512
2949.000000	49.814543
2948.000000	49.908238
2947.000000	49.953654
2946.000000	49.974071
2945.000000	49.955167
2944.000000	49.833985
2943.000000	49.528085
2942.000000	49.001858
2941.000000	48.323009
2940.000000	47.662771
2939.000000	47.231864
2938.000000	47.186918
2937.000000	47.564068
2936.000000	48.272747
2935.000000	49.153124
2934.000000	50.053118
2933.000000	50.876005
2932.000000	51.582534
2931.000000	52.171922
2930.000000	52.664330
2929.000000	53.085843
2928.000000	53.457985
2927.000000	53.793184
2926.000000	54.099482
2925.000000	54.383457
2924.000000	54.648329
2923.000000	54.893758
2922.000000	55.120224
2921.000000	55.330174
2920.000000	55.523643
2919.000000	55.697754
2918.000000	55.851394
2917.000000	55.987143
2916.000000	56.107269
2915.000000	56.211599
2914.000000	56.300922
2913.000000	56.378512
2912.000000	56.446799
2911.000000	56.505648
2910.000000	56.554774
2909.000000	56.594213
2908.000000	56.620710
2907.000000	56.625919
2906.000000	56.599345
2905.000000	56.529262
2904.000000	56.400410
2903.000000	56.195379
2902.000000	55.903193
2901.000000	55.525803
2900.000000	55.080687
2899.000000	54.603367
2898.000000	54.146494
2897.000000	53.770606
2896.000000	53.524528
2895.000000	53.430612
2894.000000	53.484224
2893.000000	53.659738
2892.000000	53.918394
2891.000000	54.218321
2890.000000	54.526743
2889.000000	54.824280
2888.000000	55.100520
2887.000000	55.349550
2886.000000	55.569879
2885.000000	55.764241
2884.000000	55.935058
2883.000000	56.082977
2882.000000	56.210008
2881.000000	56.320881
2880.000000	56.420000
2879.000000	56.510022
2878.000000	56.594318
2877.000000	56.677062
2876.000000	56.759249
2875.000000	56.837555
2874.000000	56.909215
2873.000000	56.975367
2872.000000	57.039078
2871.000000	57.103760
2870.000000	57.174943
2869.000000	57.260283
2868.000000	57.365240
2867.000000	57.490414
2866.000000	57.633472
2865.000000	57.790231
2864.000000	57.952977
2863.000000	58.111853
2862.000000	58.260211
2861.000000	58.396665
2860.000000	58.521760
2859.000000	58.635841
2858.000000	58.741133
2857.000000	58.842144
2856.000000	58.942123
2855.000000	59.041742
2854.000000	59.141756
2853.000000	59.243307
2852.000000	59.344399
2851.000000	59.439545
2850.000000	59.524559
2849.000000	59.599297
2848.000000	59.665396
2847.000000	59.724802
2846.000000	59.781481
2845.000000	59.840746
2844.000000	59.905208
2843.000000	59.973798
2842.000000	60.045515
2841.000000	60.121177
2840.000000	60.200701
2839.000000	60.282238
2838.000000	60.365461
2837.000000	60.452658
2836.000000	60.545254
2835.000000	60.642043
2834.000000	60.741841
2833.000000	60.845039
2832.000000	60.951240
2831.000000	61.058075
2830.000000	61.163710
2829.000000	61.268006
2828.000000	61.370228
2827.000000	61.468388
2826.000000	61.562028
2825.000000	61.653081
2824.000000	61.742888
2823.000000	61.830727
2822.000000	61.916266
2821.000000	62.000730
2820.000000	62.084414
2819.000000	62.165570
2818.000000	62.242842
2817.000000	62.316495
2816.000000	62.386341
2815.000000	62.450981
2814.000000	62.510318
2813.000000	62.566441
2812.000000	62.620967
2811.000000	62.673769
2810.000000	62.725114
2809.000000	62.776581
2808.000000	62.828890
2807.000000	62.881098
2806.000000	62.932877
2805.000000	62.985158
2804.000000	63.037646
2803.000000	63.088220
2802.000000	63.135796
2801.000000	63.181575
2800.000000	63.226706
2799.000000	63.271112
2798.000000	63.315383
2797.000000	63.361197
2796.000000	63.408797
2795.000000	63.456372
2794.000000	63.502772
2793.000000	63.548483
2792.000000	63.593247
2791.000000	63.635325
2790.000000	63.674033
2789.000000	63.710509
2788.000000	63.745073
2787.000000	63.776381
2786.000000	63.804266
2785.000000	63.831162
2784.000000	63.859793
2783.000000	63.891827
2782.000000	63.929410
2781.000000	63.975094
2780.000000	64.028997
2779.000000	64.088169
2778.000000	64.149591
2777.000000	64.211727
2776.000000	64.272762
2775.000000	64.330375
2774.000000	64.384479
2773.000000	64.437608
2772.000000	64.491490
2771.000000	64.545493
2770.000000	64.599080
2769.000000	64.653027
2768.000000	64.707063
2767.000000	64.758826
2766.000000	64.806468
2765.000000	64.850059
2764.000000	64.889509
2763.000000	64.923695
2762.000000	64.952825
2761.000000	64.979421
2760.000000	65.005715
2759.000000	65.031981
2758.000000	65.058279
2757.000000	65.085270
2756.000000	65.112203
2755.000000	65.136458
2754.000000	65.156421
2753.000000	65.173240
2752.000000	65.189099
2751.000000	65.205932
2750.000000	65.226362
2749.000000	65.253082
2748.000000	65.285822
2747.000000	65.320949
2746.000000	65.355046
2745.000000	65.387030
2744.000000	65.416502
2743.000000	65.442793
2742.000000	65.466561
2741.000000	65.489571
2740.000000	65.511385
2739.000000	65.528529
2738.000000	65.538646
2737.000000	65.544207
2736.000000	65.551574
2735.000000	65.568394
2734.000000	65.602019
2733.000000	65.656641
2732.000000	65.729894
2731.000000	65.813738
2730.000000	65.899728
2729.000000	65.982537
2728.000000	66.058741
2727.000000	66.125711
2726.000000	66.183358
2725.000000	66.234429
2724.000000	66.281281
2723.000000	66.324004
2722.000000	66.362301
2721.000000	66.396912
2720.000000	66.428233
2719.000000	66.455305
2718.000000	66.477571
2717.000000	66.496220
2716.000000	66.512986
2715.000000	66.529558
2714.000000	66.548603
2713.000000	66.573103
2712.000000	66.603789
2711.000000	66.639023
2710.000000	66.677681
2709.000000	66.720041
2708.000000	66.765196
2707.000000	66.809922
2706.000000	66.851134
2705.000000	66.887505
2704.000000	66.917964
2703.000000	66.940980
2702.000000	66.956324
2701.000000	66.965308
2700.000000	66.968647
2699.000000	66.965928
2698.000000	66.957933
2697.000000	66.947598
2696.000000	66.937594
2695.000000	66.929009
2694.000000	66.922801
2693.000000	66.920052
2692.000000	66.920002
2691.000000	66.920157
2690.000000	66.919382
2689.000000	66.919031
2688.000000	66.920489
2687.000000	66.923867
2686.000000	66.929923
2685.000000	66.940573
2684.000000	66.956354
2683.000000	66.975714
2682.000000	66.997740
2681.000000	67.023587
2680.000000	67.054082
2679.000000	67.087915
2678.000000	67.123321
2677.000000	67.159298
2676.000000	67.194355
2675.000000	67.226165
2674.000000	67.253509
2673.000000	67.276928
2672.000000	67.296849
2671.000000	67.313075
2670.000000	67.326808
2669.000000	67.341131
2668.000000	67.358672
2667.000000	67.380670
2666.000000	67.408714
2665.000000	67.444735
2664.000000	67.488132
2663.000000	67.535069
2662.000000	67.581417
2661.000000	67.624487
2660.000000	67.661610
2659.000000	67.689727
2658.000000	67.707709
2657.000000	67.717369
2656.000000	67.721331
2655.000000	67.721757
2654.000000	67.721885
2653.000000	67.726259
2652.000000	67.738290
2651.000000	67.759240
2650.000000	67.789874
2649.000000	67.830530
2648.000000	67.878872
2647.000000	67.929837
2646.000000	67.979049
2645.000000	68.024838
2644.000000	68.066533
2643.000000	68.103617
2642.000000	68.137520
2641.000000	68.171863
2640.000000	68.209654
2639.000000	68.251661
2638.000000	68.297843
2637.000000	68.347859
2636.000000	68.399256
2635.000000	68.447528
2634.000000	68.489379
2633.000000	68.524332
2632.000000	68.552736
2631.000000	68.574631
2630.000000	68.591345
2629.000000	68.606049
2628.000000	68.621249
2627.000000	68.637210
2626.000000	68.653576
2625.000000	68.670226
2624.000000	68.686020
2623.000000	68.698946
2622.000000	68.708588
2621.000000	68.716704
2620.000000	68.724345
2619.000000	68.730494
2618.000000	68.734145
2617.000000	68.735359
2616.000000	68.733377
2615.000000	68.725628
2614.000000	68.710116
2613.000000	68.687130
2612.000000	68.657862
2611.000000	68.623791
2610.000000	68.588393
2609.000000	68.557340
2608.000000	68.535456
2607.000000	68.524736
2606.000000	68.525626
2605.000000	68.538298
2604.000000	68.561539
2603.000000	68.592353
2602.000000	68.628247
2601.000000	68.667885
2600.000000	68.709333
2599.000000	68.749663
2598.000000	68.787036
2597.000000	68.821713
2596.000000	68.854144
2595.000000	68.884183
2594.000000	68.912831
2593.000000	68.942547
2592.000000	68.974713
2591.000000	69.008457
2590.000000	69.042453
2589.000000	69.075851
2588.000000	69.106815
2587.000000	69.132306
2586.000000	69.150660
2585.000000	69.162953
2584.000000	69.171403
2583.000000	69.178536
2582.000000	69.188482
2581.000000	69.206637
2580.000000	69.236696
2579.000000	69.279205
2578.000000	69.332989
2577.000000	69.396086
2576.000000	69.464614
2575.000000	69.533385
2574.000000	69.599158
2573.000000	69.661526
2572.000000	69.720573
2571.000000	69.775707
2570.000000	69.827408
2569.000000	69.877845
2568.000000	69.928534
2567.000000	69.979099
2566.000000	70.029030
2565.000000	70.078728
2564.000000	70.127778
2563.000000	70.174287
2562.000000	70.216864
2561.000000	70.255740
2560.000000	70.291403
2559.000000	70.323954
2558.000000	70.354738
2557.000000	70.386594
2556.000000	70.421475
2555.000000	70.459300
2554.000000	70.499673
2553.000000	70.542856
2552.000000	70.588308
2551.000000	70.634124
2550.000000	70.678795
2549.000000	70.722005
2548.000000	70.763195
2547.000000	70.801301
2546.000000	70.836641
2545.000000	70.871264
2544.000000	70.906430
2543.000000	70.941328
2542.000000	70.974674
2541.000000	71.005599
2540.000000	71.032526
2539.000000	71.052907
2538.000000	71.065307
2537.000000	71.070155
2536.000000	71.067626
2535.000000	71.057101
2534.000000	71.039058
2533.000000	71.015981
2532.000000	70.990483
2531.000000	70.963894
2530.000000	70.937658
2529.000000	70.913813
2528.000000	70.893208
2527.000000	70.874908
2526.000000	70.858176
2525.000000	70.843414
2524.000000	70.830355
2523.000000	70.817070
2522.000000	70.801607
2521.000000	70.782923
2520.000000	70.759727
2519.000000	70.730248
2518.000000	70.694082
2517.000000	70.652626
2516.000000	70.606705
2515.000000	70.555924
2514.000000	70.500998
2513.000000	70.444948
2512.000000	70.391196
2511.000000	70.342183
2510.000000	70.300537
2509.000000	70.269517
2508.000000	70.251233
2507.000000	70.245579
2506.000000	70.252201
2505.000000	70.271105
2504.000000	70.300911
2503.000000	70.338671
2502.000000	70.381557
2501.000000	70.427700
2500.000000	70.474508
2499.000000	70.518309
2498.000000	70.556794
2497.000000	70.589795
2496.000000	70.617367
2495.000000	70.639123
2494.000000	70.655959
2493.000000	70.670164
2492.000000	70.683122
2491.000000	70.694586
2490.000000	70.704936
2489.000000	70.716197
2488.000000	70.729870
2487.000000	70.745780
2486.000000	70.763635
2485.000000	70.783693
2484.000000	70.805151
2483.000000	70.826001
2482.000000	70.845402
2481.000000	70.864414
2480.000000	70.883837
2479.000000	70.903289
2478.000000	70.923283
2477.000000	70.945982
2476.000000	70.973089
2475.000000	71.004914
2474.000000	71.042053
2473.000000	71.086039
2472.000000	71.136972
2471.000000	71.192435
2470.000000	71.249672
2469.000000	71.307039
2468.000000	71.362977
2467.000000	71.415607
2466.000000	71.464412
2465.000000	71.510585
2464.000000	71.554900
2463.000000	71.596722
2462.000000	71.635648
2461.000000	71.672100
2460.000000	71.705396
2459.000000	71.733488
2458.000000	71.755140
2457.000000	71.770879
2456.000000	71.781255
2455.000000	71.786155
2454.000000	71.787124
2453.000000	71.788159
2452.000000	71.793112
2451.000000	71.803680
2450.000000	71.820456
2449.000000	71.843787
2448.000000	71.872672
2447.000000	71.904760
2446.000000	71.938560
2445.000000	71.974479
2444.000000	72.012806
2443.000000	72.052649
2442.000000	72.093485
2441.000000	72.135764
2440.000000	72.179283
2439.000000	72.222541
2438.000000	72.264506
2437.000000	72.305206
2436.000000	72.343977
2435.000000	72.378876
2434.000000	72.408647
2433.000000	72.433306
2432.000000	72.452043
2431.000000	72.463031
2430.000000	72.465872
2429.000000	72.462523
2428.000000	72.454610
2427.000000	72.441562
2426.000000	72.422882
2425.000000	72.399722
2424.000000	72.373351
2423.000000	72.343953
2422.000000	72.312378
2421.000000	72.281648
2420.000000	72.255227
2419.000000	72.235251
2418.000000	72.223194
2417.000000	72.220367
2416.000000	72.226173
2415.000000	72.237613
2414.000000	72.251531
2413.000000	72.265698
2412.000000	72.276845
2411.000000	72.279830
2410.000000	72.270361
2409.000000	72.247337
2408.000000	72.211839
2407.000000	72.165471
2406.000000	72.111354
2405.000000	72.054610
2404.000000	72.000239
2403.000000	71.951667
2402.000000	71.911891
2401.000000	71.883921
2400.000000	71.868417
2399.000000	71.862458
2398.000000	71.861671
2397.000000	71.861991
2396.000000	71.858597
2395.000000	71.845819
2394.000000	71.820071
2393.000000	71.782008
2392.000000	71.734355
2391.000000	71.680203
2390.000000	71.624678
2389.000000	71.575019
2388.000000	71.538450
2387.000000	71.519294
2386.000000	71.520842
2385.000000	71.547788
2384.000000	71.602504
2383.000000	71.683599
2382.000000	71.786148
2381.000000	71.903568
2380.000000	72.026932
2379.000000	72.142443
2378.000000	72.235897
2377.000000	72.299128
2376.000000	72.329586
2375.000000	72.327992
2374.000000	72.300576
2373.000000	72.259886
2372.000000	72.220136
2371.000000	72.190168
2370.000000	72.170163
2369.000000	72.161752
2368.000000	72.169650
2367.000000	72.195272
2366.000000	72.234566
2365.000000	72.288450
2364.000000	72.368594
2363.000000	72.465856
2362.000000	72.568140
2361.000000	72.679609
2360.000000	72.785680
2359.000000	72.876732
2358.000000	72.933548
2357.000000	72.947645
2356.000000	72.927484
2355.000000	72.869863
2354.000000	72.800384
2353.000000	72.754615
2352.000000	72.785723
2351.000000	72.896106
2350.000000	72.999752
2349.000000	73.034881
2348.000000	73.000428
2347.000000	72.990155
2346.000000	73.057056
2345.000000	73.156789
2344.000000	73.223485
2343.000000	73.214557
2342.000000	73.177289
2341.000000	73.141650
2340.000000	73.116282
2339.000000	73.094515
2338.000000	73.077684
2337.000000	73.068429
2336.000000	73.072498
2335.000000	73.087347
2334.000000	73.120342
2333.000000	73.154674
2332.000000	73.169462
2331.000000	73.145415
2330.000000	73.068449
2329.000000	72.975083
2328.000000	72.875107
2327.000000	72.797486
2326.000000	72.749202
2325.000000	72.731955
2324.000000	72.743715
2323.000000	72.749640
2322.000000	72.740405
2321.000000	72.698472
2320.000000	72.636233
2319.000000	72.561550
2318.000000	72.492375
2317.000000	72.441084
2316.000000	72.409345
2315.000000	72.391044
2314.000000	72.369357
2313.000000	72.331044
2312.000000	72.261598
2311.000000	72.162437
2310.000000	72.040297
2309.000000	71.907052
2308.000000	71.766153
2307.000000	71.618653
2306.000000	71.467665
2305.000000	71.316687
2304.000000	71.169813
2303.000000	71.027086
2302.000000	70.890249
2301.000000	70.761572
2300.000000	70.641516
2299.000000	70.532583
2298.000000	70.436072
2297.000000	70.355704
2296.000000	70.288283
2295.000000	70.232136
2294.000000	70.185186
2293.000000	70.149039
2292.000000	70.123176
2291.000000	70.107258
2290.000000	70.102731
2289.000000	70.111520
2288.000000	70.134674
2287.000000	70.171989
2286.000000	70.225026
2285.000000	70.293360
2284.000000	70.372819
2283.000000	70.455685
2282.000000	70.536567
2281.000000	70.611655
2280.000000	70.678189
2279.000000	70.734337
2278.000000	70.782810
2277.000000	70.829121
2276.000000	70.878108
2275.000000	70.934323
2274.000000	71.002370
2273.000000	71.085922
2272.000000	71.183644
2271.000000	71.291067
2270.000000	71.404787
2269.000000	71.522942
2268.000000	71.643404
2267.000000	71.764124
2266.000000	71.884867
2265.000000	72.007333
2264.000000	72.131639
2263.000000	72.257862
2262.000000	72.387047
2261.000000	72.519302
2260.000000	72.651748
2259.000000	72.778715
2258.000000	72.897106
2257.000000	73.005472
2256.000000	73.102892
2255.000000	73.188687
2254.000000	73.264909
2253.000000	73.335961
2252.000000	73.405553
2251.000000	73.477070
2250.000000	73.554440
2249.000000	73.640645
2248.000000	73.734504
2247.000000	73.831792
2246.000000	73.927867
2245.000000	74.018906
2244.000000	74.100580
2243.000000	74.169177
2242.000000	74.223997
2241.000000	74.267096
2240.000000	74.300796
2239.000000	74.327228
2238.000000	74.349673
2237.000000	74.371540
2236.000000	74.394251
2235.000000	74.417425
2234.000000	74.441076
2233.000000	74.465286
2232.000000	74.488385
2231.000000	74.507808
2230.000000	74.522753
2229.000000	74.534160
2228.000000	74.542577
2227.000000	74.548339
2226.000000	74.553623
2225.000000	74.561829
2224.000000	74.574546
2223.000000	74.590899
2222.000000	74.609438
2221.000000	74.628724
2220.000000	74.646314
2219.000000	74.659752
2218.000000	74.668871
2217.000000	74.675611
2216.000000	74.681829
2215.000000	74.689207
2214.000000	74.700872
2213.000000	74.720467
2212.000000	74.749329
2211.000000	74.786069
2210.000000	74.828669
2209.000000	74.874907
2208.000000	74.921125
2207.000000	74.962959
2206.000000	74.997553
2205.000000	75.023613
2204.000000	75.039743
2203.000000	75.045015
2202.000000	75.041100
2201.000000	75.031922
2200.000000	75.021159
2199.000000	75.011773
2198.000000	75.007390
2197.000000	75.011534
2196.000000	75.025203
2195.000000	75.046921
2194.000000	75.075237
2193.000000	75.109268
2192.000000	75.147219
2191.000000	75.186712
2190.000000	75.226704
2189.000000	75.267337
2188.000000	75.308040
2187.000000	75.347953
2186.000000	75.388030
2185.000000	75.430558
2184.000000	75.476289
2183.000000	75.523684
2182.000000	75.570895
2181.000000	75.616515
2180.000000	75.658530
2179.000000	75.694534
2178.000000	75.723363
2177.000000	75.745225
2176.000000	75.760460
2175.000000	75.769885
2174.000000	75.775990
2173.000000	75.781882
2172.000000	75.788863
2171.000000	75.796501
2170.000000	75.804667
2169.000000	75.813554
2168.000000	75.821967
2167.000000	75.827696
2166.000000	75.829840
2165.000000	75.829135
2164.000000	75.826149
2163.000000	75.821145
2162.000000	75.815729
2161.000000	75.812876
2160.000000	75.815107
2159.000000	75.823980
2158.000000	75.840917
2157.000000	75.866430
2156.000000	75.898497
2155.000000	75.933367
2154.000000	75.967896
2153.000000	75.999693
2152.000000	76.025945
2151.000000	76.044544
2150.000000	76.056506
2149.000000	76.065464
2148.000000	76.074630
2147.000000	76.085775
2146.000000	76.100441
2145.000000	76.119703
2144.000000	76.142536
2143.000000	76.166131
2142.000000	76.187874
2141.000000	76.205786
2140.000000	76.217683
2139.000000	76.222015
2138.000000	76.219611
2137.000000	76.213089
2136.000000	76.204769
2135.000000	76.196531
2134.000000	76.190974
2133.000000	76.190399
2132.000000	76.194449
2131.000000	76.200350
2130.000000	76.205281
2129.000000	76.207020
2128.000000	76.203083
2127.000000	76.191734
2126.000000	76.174089
2125.000000	76.153563
2124.000000	76.133345
2123.000000	76.116186
2122.000000	76.105948
2121.000000	76.106824
2120.000000	76.120656
2119.000000	76.146341
2118.000000	76.181314
2117.000000	76.221701
2116.000000	76.261573
2115.000000	76.294693
2114.000000	76.317840
2113.000000	76.331373
2112.000000	76.337134
2111.000000	76.337573
2110.000000	76.336255
2109.000000	76.336879
2108.000000	76.341314
2107.000000	76.349756
2106.000000	76.362413
2105.000000	76.379225
2104.000000	76.398192
2103.000000	76.415890
2102.000000	76.429560
2101.000000	76.437360
2100.000000	76.437188
2099.000000	76.427351
2098.000000	76.408589
2097.000000	76.383777
2096.000000	76.355882
2095.000000	76.328011
2094.000000	76.304652
2093.000000	76.290252
2092.000000	76.286467
2091.000000	76.292371
2090.000000	76.307168
2089.000000	76.330926
2088.000000	76.363028
2087.000000	76.402098
2086.000000	76.447061
2085.000000	76.496265
2084.000000	76.546227
2083.000000	76.593124
2082.000000	76.634863
2081.000000	76.670357
2080.000000	76.697601
2079.000000	76.714398
2078.000000	76.720570
2077.000000	76.717221
2076.000000	76.704728
2075.000000	76.683492
2074.000000	76.655503
2073.000000	76.623094
2072.000000	76.586499
2071.000000	76.544547
2070.000000	76.497739
2069.000000	76.448219
2068.000000	76.396643
2067.000000	76.341072
2066.000000	76.279220
2065.000000	76.210553
2064.000000	76.136091
2063.000000	76.058133
2062.000000	75.979705
2061.000000	75.902279
2060.000000	75.824493
2059.000000	75.744747
2058.000000	75.664426
2057.000000	75.586438
2056.000000	75.511708
2055.000000	75.439735
2054.000000	75.371860
2053.000000	75.311062
2052.000000	75.258747
2051.000000	75.214204
2050.000000	75.177033
2049.000000	75.147668
2048.000000	75.124969
2047.000000	75.106220
2046.000000	75.090734
2045.000000	75.080474
2044.000000	75.076458
2043.000000	75.077268
2042.000000	75.081808
2041.000000	75.091273
2040.000000	75.107350
2039.000000	75.131047
2038.000000	75.163491
2037.000000	75.205000
2036.000000	75.253510
2035.000000	75.306158
2034.000000	75.362488
2033.000000	75.423777
2032.000000	75.489734
2031.000000	75.558743
2030.000000	75.630573
2029.000000	75.705634
2028.000000	75.782153
2027.000000	75.856869
2026.000000	75.928279
2025.000000	75.996622
2024.000000	76.060911
2023.000000	76.119220
2022.000000	76.172524
2021.000000	76.224997
2020.000000	76.279188
2019.000000	76.333663
2018.000000	76.386466
2017.000000	76.438571
2016.000000	76.493185
2015.000000	76.553724
2014.000000	76.622435
2013.000000	76.698400
2012.000000	76.776431
2011.000000	76.850569
2010.000000	76.919184
2009.000000	76.984288
2008.000000	77.047168
2007.000000	77.108251
2006.000000	77.170017
2005.000000	77.236040
2004.000000	77.306617
2003.000000	77.378761
2002.000000	77.450077
2001.000000	77.519114
2000.000000	77.583072
1999.000000	77.638751
1998.000000	77.685614
1997.000000	77.726965
1996.000000	77.768056
1995.000000	77.812464
1994.000000	77.860110
1993.000000	77.908250
1992.000000	77.955025
1991.000000	78.002798
1990.000000	78.056372
1989.000000	78.117391
1988.000000	78.181945
1987.000000	78.243777
1986.000000	78.299696
1985.000000	78.351289
1984.000000	78.401585
1983.000000	78.452608
1982.000000	78.505900
1981.000000	78.563296
1980.000000	78.626469
1979.000000	78.695493
1978.000000	78.767784
1977.000000	78.839449
1976.000000	78.907972
1975.000000	78.972328
1974.000000	79.031627
1973.000000	79.085739
1972.000000	79.137338
1971.000000	79.190851
1970.000000	79.248165
1969.000000	79.306415
1968.000000	79.359662
1967.000000	79.402817
1966.000000	79.435428
1965.000000	79.461178
1964.000000	79.483090
1963.000000	79.498957
1962.000000	79.502427
1961.000000	79.490183
1960.000000	79.466272
1959.000000	79.438335
1958.000000	79.411863
1957.000000	79.389864
1956.000000	79.375709
1955.000000	79.372087
1954.000000	79.378438
1953.000000	79.392285
1952.000000	79.411490
1951.000000	79.434068
1950.000000	79.457400
1949.000000	79.478844
1948.000000	79.497713
1947.000000	79.516443
1946.000000	79.538411
1945.000000	79.564095
1944.000000	79.588967
1943.000000	79.606053
1942.000000	79.613324
1941.000000	79.617211
1940.000000	79.626823
1939.000000	79.645706
1938.000000	79.668586
1937.000000	79.686519
1936.000000	79.695655
1935.000000	79.698293
1934.000000	79.697331
1933.000000	79.693557
1932.000000	79.686735
1931.000000	79.678671
1930.000000	79.672694
1929.000000	79.669999
1928.000000	79.669973
1927.000000	79.674551
1926.000000	79.688049
1925.000000	79.708991
1924.000000	79.726249
1923.000000	79.730066
1922.000000	79.725065
1921.000000	79.723493
1920.000000	79.730479
1919.000000	79.741423
1918.000000	79.749388
1917.000000	79.752028
1916.000000	79.750271
1915.000000	79.746820
1914.000000	79.745542
1913.000000	79.746179
1912.000000	79.743326
1911.000000	79.733565
1910.000000	79.719268
1909.000000	79.703662
1908.000000	79.687862
1907.000000	79.675496
1906.000000	79.674492
1905.000000	79.687795
1904.000000	79.708307
1903.000000	79.730117
1902.000000	79.756483
1901.000000	79.790681
1900.000000	79.829663
1899.000000	79.871637
1898.000000	79.920786
1897.000000	79.977666
1896.000000	80.032254
1895.000000	80.076275
1894.000000	80.115972
1893.000000	80.161890
1892.000000	80.213640
1891.000000	80.262222
1890.000000	80.300456
1889.000000	80.328456
1888.000000	80.351528
1887.000000	80.377349
1886.000000	80.412935
1885.000000	80.455999
1884.000000	80.495343
1883.000000	80.526326
1882.000000	80.556550
1881.000000	80.591587
1880.000000	80.626841
1879.000000	80.657476
1878.000000	80.687397
1877.000000	80.722527
1876.000000	80.761098
1875.000000	80.799440
1874.000000	80.841244
1873.000000	80.891665
1872.000000	80.947276
1871.000000	80.999101
1870.000000	81.039502
1869.000000	81.063469
1868.000000	81.070465
1867.000000	81.069934
1866.000000	81.079765
1865.000000	81.110430
1864.000000	81.155803
1863.000000	81.204583
1862.000000	81.253936
1861.000000	81.305574
1860.000000	81.355092
1859.000000	81.397046
1858.000000	81.434694
1857.000000	81.473240
1856.000000	81.509604
1855.000000	81.540567
1854.000000	81.570732
1853.000000	81.605213
1852.000000	81.644973
1851.000000	81.691407
1850.000000	81.747515
1849.000000	81.809835
1848.000000	81.866858
1847.000000	81.911374
1846.000000	81.945784
1845.000000	81.971106
1844.000000	81.985058
1843.000000	81.992907
1842.000000	82.004051
1841.000000	82.025612
1840.000000	82.061206
1839.000000	82.106350
1838.000000	82.151596
1837.000000	82.190733
1836.000000	82.224602
1835.000000	82.259360
1834.000000	82.299249
1833.000000	82.343122
1832.000000	82.387951
1831.000000	82.425293
1830.000000	82.446144
1829.000000	82.458537
1828.000000	82.481826
1827.000000	82.523791
1826.000000	82.576930
1825.000000	82.628776
1824.000000	82.672737
1823.000000	82.711176
1822.000000	82.750543
1821.000000	82.796268
1820.000000	82.845499
1819.000000	82.887463
1818.000000	82.917524
1817.000000	82.942883
1816.000000	82.970918
1815.000000	83.001327
1814.000000	83.032491
1813.000000	83.064662
1812.000000	83.091590
1811.000000	83.101445
1810.000000	83.096363
1809.000000	83.091843
1808.000000	83.091709
1807.000000	83.088474
1806.000000	83.085449
1805.000000	83.094653
1804.000000	83.116382
1803.000000	83.135858
1802.000000	83.141501
1801.000000	83.139290
1800.000000	83.141255
1799.000000	83.152476
1798.000000	83.175456
1797.000000	83.207928
1796.000000	83.237973
1795.000000	83.256812
1794.000000	83.267976
1793.000000	83.279101
1792.000000	83.288319
1791.000000	83.288949
1790.000000	83.287639
1789.000000	83.299568
1788.000000	83.328221
1787.000000	83.362136
1786.000000	83.390134
1785.000000	83.409757
1784.000000	83.423939
1783.000000	83.435232
1782.000000	83.443770
1781.000000	83.449524
1780.000000	83.453219
1779.000000	83.460281
1778.000000	83.478463
1777.000000	83.509617
1776.000000	83.548358
1775.000000	83.589311
1774.000000	83.628236
1773.000000	83.663162
1772.000000	83.701200
1771.000000	83.745652
1770.000000	83.789313
1769.000000	83.833296
1768.000000	83.886030
1767.000000	83.942975
1766.000000	83.993311
1765.000000	84.039303
1764.000000	84.090991
1763.000000	84.140613
1762.000000	84.165177
1761.000000	84.166542
1760.000000	84.168263
1759.000000	84.180379
1758.000000	84.195533
1757.000000	84.205175
1756.000000	84.217826
1755.000000	84.242356
1754.000000	84.271164
1753.000000	84.301278
1752.000000	84.339648
1751.000000	84.385534
1750.000000	84.422517
1749.000000	84.438249
1748.000000	84.448422
1747.000000	84.476075
1746.000000	84.518856
1745.000000	84.561107
1744.000000	84.597346
1743.000000	84.625744
1742.000000	84.641074
1741.000000	84.646427
1740.000000	84.657627
1739.000000	84.683021
1738.000000	84.706891
1737.000000	84.717538
1736.000000	84.723625
1735.000000	84.727546
1734.000000	84.727322
1733.000000	84.735740
1732.000000	84.748810
1731.000000	84.755560
1730.000000	84.761070
1729.000000	84.762140
1728.000000	84.760365
1727.000000	84.762699
1726.000000	84.769691
1725.000000	84.772832
1724.000000	84.765189
1723.000000	84.753261
1722.000000	84.750927
1721.000000	84.763737
1720.000000	84.788209
1719.000000	84.809851
1718.000000	84.815151
1717.000000	84.820021
1716.000000	84.828430
1715.000000	84.822880
1714.000000	84.819204
1713.000000	84.836991
1712.000000	84.864655
1711.000000	84.888412
1710.000000	84.914177
1709.000000	84.950428
1708.000000	84.992623
1707.000000	85.032810
1706.000000	85.076053
1705.000000	85.131959
1704.000000	85.185427
1703.000000	85.220633
1702.000000	85.249187
1701.000000	85.289288
1700.000000	85.340844
1699.000000	85.378106
1698.000000	85.387764
1697.000000	85.401452
1696.000000	85.445646
1695.000000	85.508203
1694.000000	85.563915
1693.000000	85.600046
1692.000000	85.634744
1691.000000	85.682478
1690.000000	85.731382
1689.000000	85.761292
1688.000000	85.771145
1687.000000	85.778317
1686.000000	85.794710
1685.000000	85.795978
1684.000000	85.769217
1683.000000	85.760830
1682.000000	85.771976
1681.000000	85.765313
1680.000000	85.748938
1679.000000	85.737888
1678.000000	85.731345
1677.000000	85.710652
1676.000000	85.669877
1675.000000	85.628600
1674.000000	85.595780
1673.000000	85.549259
1672.000000	85.483856
1671.000000	85.418496
1670.000000	85.356229
1669.000000	85.285243
1668.000000	85.211495
1667.000000	85.153572
1666.000000	85.110479
1665.000000	85.061513
1664.000000	84.988225
1663.000000	84.896417
1662.000000	84.801547
1661.000000	84.693344
1660.000000	84.560237
1659.000000	84.422747
1658.000000	84.298791
1657.000000	84.175496
1656.000000	84.029090
1655.000000	83.836384
1654.000000	83.508492
1653.000000	83.014265
1652.000000	82.530206
1651.000000	82.111986
1650.000000	81.651774
1649.000000	81.051821
1648.000000	80.137070
1647.000000	78.778016
1646.000000	77.056444
1645.000000	75.141366
1644.000000	73.033037
1643.000000	70.618812
1642.000000	67.818823
1641.000000	64.685566
1640.000000	61.456802
1639.000000	58.423384
1638.000000	55.747408
1637.000000	53.486737
1636.000000	51.832829
1635.000000	51.106519
1634.000000	51.320108
1633.000000	52.168138
1632.000000	53.392277
1631.000000	54.859167
1630.000000	56.499473
1629.000000	58.268849
1628.000000	60.116225
1627.000000	61.948381
1626.000000	63.701034
1625.000000	65.427387
1624.000000	67.213845
1623.000000	69.005042
1622.000000	70.610304
1621.000000	71.925399
1620.000000	73.018530
1619.000000	74.011518
1618.000000	74.983619
1617.000000	75.953428
1616.000000	76.866511
1615.000000	77.625111
1614.000000	78.197070
1613.000000	78.647034
1612.000000	79.046353
1611.000000	79.395715
1610.000000	79.640737
1609.000000	79.753427
1608.000000	79.745110
1607.000000	79.605049
1606.000000	79.280984
1605.000000	78.719249
1604.000000	77.889628
1603.000000	76.756473
1602.000000	75.294913
1601.000000	73.557432
1600.000000	71.666872
1599.000000	69.728478
1598.000000	67.752586
1597.000000	65.695845
1596.000000	63.585353
1595.000000	61.587534
1594.000000	59.932226
1593.000000	58.762737
1592.000000	58.072931
1591.000000	57.749791
1590.000000	57.643749
1589.000000	57.611290
1588.000000	57.533032
1587.000000	57.307088
1586.000000	56.856283
1585.000000	56.181401
1584.000000	55.376474
1583.000000	54.549302
1582.000000	53.740054
1581.000000	52.947500
1580.000000	52.184633
1579.000000	51.428301
1578.000000	50.525055
1577.000000	49.226416
1576.000000	47.504608
1575.000000	45.727365
1574.000000	44.207454
1573.000000	42.908492
1572.000000	41.695866
1571.000000	40.526126
1570.000000	39.461529
1569.000000	38.619451
1568.000000	38.100369
1567.000000	37.934866
1566.000000	38.062857
1565.000000	38.371498
1564.000000	38.797617
1563.000000	39.349030
1562.000000	40.055847
1561.000000	40.952251
1560.000000	42.173255
1559.000000	43.813625
1558.000000	45.533875
1557.000000	46.919155
1556.000000	48.006319
1555.000000	49.016302
1554.000000	49.998890
1553.000000	50.867329
1552.000000	51.581840
1551.000000	52.229528
1550.000000	52.901722
1549.000000	53.614544
1548.000000	54.366542
1547.000000	55.209226
1546.000000	56.193849
1545.000000	57.280222
1544.000000	58.365093
1543.000000	59.402934
1542.000000	60.437110
1541.000000	61.510464
1540.000000	62.596720
1539.000000	63.625412
1538.000000	64.516378
1537.000000	65.244983
1536.000000	65.894196
1535.000000	66.581636
1534.000000	67.354226
1533.000000	68.140060
1532.000000	68.852153
1531.000000	69.494653
1530.000000	70.118862
1529.000000	70.738997
1528.000000	71.334732
1527.000000	71.895713
1526.000000	72.414305
1525.000000	72.871318
1524.000000	73.270452
1523.000000	73.655297
1522.000000	74.050066
1521.000000	74.421081
1520.000000	74.738671
1519.000000	75.023100
1518.000000	75.306131
1517.000000	75.583845
1516.000000	75.838767
1515.000000	76.081808
1514.000000	76.328960
1513.000000	76.585236
1512.000000	76.849785
1511.000000	77.116746
1510.000000	77.372824
1509.000000	77.603513
1508.000000	77.793483
1507.000000	77.936511
1506.000000	78.102731
1505.000000	78.329605
1504.000000	78.556300
1503.000000	78.774010
1502.000000	78.997438
1501.000000	79.214946
1500.000000	79.414752
1499.000000	79.601425
1498.000000	79.772611
1497.000000	79.920282
1496.000000	80.060179
1495.000000	80.212473
1494.000000	80.368318
1493.000000	80.515609
1492.000000	80.668225
1491.000000	80.840682
1490.000000	81.007695
1489.000000	81.134881
1488.000000	81.227080
1487.000000	81.308693
1486.000000	81.377299
1485.000000	81.395706
1484.000000	81.344864
1483.000000	81.229126
1482.000000	81.027767
1481.000000	80.707279
1480.000000	80.267413
1479.000000	79.699891
1478.000000	78.913143
1477.000000	77.791788
1476.000000	76.327617
1475.000000	74.593858
1474.000000	72.595886
1473.000000	70.358256
1472.000000	68.182565
1471.000000	66.460531
1470.000000	65.283402
1469.000000	64.534290
1468.000000	64.148052
1467.000000	64.159318
1466.000000	64.638135
1465.000000	65.570282
1464.000000	66.755289
1463.000000	67.879096
1462.000000	68.711951
1461.000000	69.172630
1460.000000	69.237609
1459.000000	68.851134
1458.000000	67.899645
1457.000000	66.478690
1456.000000	65.098092
1455.000000	64.142209
1454.000000	63.539187
1453.000000	63.115827
1452.000000	62.793360
1451.000000	62.559836
1450.000000	62.417996
1449.000000	62.372489
1448.000000	62.423885
1447.000000	62.560257
1446.000000	62.790589
1445.000000	63.180859
1444.000000	63.815060
1443.000000	64.715690
1442.000000	65.825880
1441.000000	67.060325
1440.000000	68.357770
1439.000000	69.705653
1438.000000	71.133162
1437.000000	72.622998
1436.000000	74.013576
1435.000000	75.123726
1434.000000	75.958024
1433.000000	76.646939
1432.000000	77.270271
1431.000000	77.823320
1430.000000	78.290241
1429.000000	78.691399
1428.000000	79.049023
1427.000000	79.367351
1426.000000	79.652518
1425.000000	79.912665
1424.000000	80.147558
1423.000000	80.353517
1422.000000	80.543248
1421.000000	80.738022
1420.000000	80.935757
1419.000000	81.105045
1418.000000	81.234502
1417.000000	81.357611
1416.000000	81.501362
1415.000000	81.664618
1414.000000	81.836654
1413.000000	82.010575
1412.000000	82.178337
1411.000000	82.328067
1410.000000	82.457642
1409.000000	82.580931
1408.000000	82.705244
1407.000000	82.820235
1406.000000	82.911171
1405.000000	82.968517
1404.000000	82.989290
1403.000000	82.972060
1402.000000	82.909432
1401.000000	82.774406
1400.000000	82.521206
1399.000000	82.144777
1398.000000	81.738682
1397.000000	81.445402
1396.000000	81.362660
1395.000000	81.497447
1394.000000	81.757659
1393.000000	82.022777
1392.000000	82.244205
1391.000000	82.454229
1390.000000	82.708102
1389.000000	83.033630
1388.000000	83.413429
1387.000000	83.800531
1386.000000	84.153964
1385.000000	84.457265
1384.000000	84.710080
1383.000000	84.916254
1382.000000	85.085677
1381.000000	85.230113
1380.000000	85.347628
1379.000000	85.422257
1378.000000	85.435427
1377.000000	85.353152
1376.000000	85.078536
1375.000000	84.414323
1374.000000	83.081993
1373.000000	80.833243
1372.000000	77.600647
1371.000000	73.625668
1370.000000	69.535938
1369.000000	66.249107
1368.000000	64.559053
1367.000000	64.619892
1366.000000	65.897601
1365.000000	67.592882
1364.000000	68.995926
1363.000000	69.635061
1362.000000	69.427147
1361.000000	68.782013
1360.000000	68.406684
1359.000000	68.903572
1358.000000	70.456433
1357.000000	72.759234
1356.000000	75.245399
1355.000000	77.436402
1354.000000	79.138734
1353.000000	80.400805
1352.000000	81.349643
1351.000000	82.089315
1350.000000	82.689936
1349.000000	83.193157
1348.000000	83.618933
1347.000000	83.981137
1346.000000	84.296342
1345.000000	84.574757
1344.000000	84.818377
1343.000000	85.030699
1342.000000	85.222564
1341.000000	85.398906
1340.000000	85.550795
1339.000000	85.674293
1338.000000	85.783528
1337.000000	85.895775
1336.000000	86.012284
1335.000000	86.118204
1334.000000	86.189375
1333.000000	86.182181
1332.000000	86.024735
1331.000000	85.632538
1330.000000	84.941721
1329.000000	83.933384
1328.000000	82.612116
1327.000000	80.967147
1326.000000	78.980786
1325.000000	76.725960
1324.000000	74.491209
1323.000000	72.731270
1322.000000	71.787631
1321.000000	71.639360
1320.000000	71.953239
1319.000000	72.364981
1318.000000	72.706251
1317.000000	72.996169
1316.000000	73.307075
1315.000000	73.696035
1314.000000	74.211717
1313.000000	74.904439
1312.000000	75.803321
1311.000000	76.884662
1310.000000	78.063615
1309.000000	79.212837
1308.000000	80.202019
1307.000000	80.943929
1306.000000	81.413015
1305.000000	81.612628
1304.000000	81.541526
1303.000000	81.190970
1302.000000	80.560037
1301.000000	79.679387
1300.000000	78.640098
1299.000000	77.613743
1298.000000	76.806238
1297.000000	76.346337
1296.000000	76.204804
1295.000000	76.211403
1294.000000	76.142073
1293.000000	75.799524
1292.000000	75.057536
1291.000000	73.877740
1290.000000	72.286753
1289.000000	70.344028
1288.000000	68.164934
1287.000000	65.990793
1286.000000	64.185793
1285.000000	63.096455
1284.000000	62.879203
1283.000000	63.454217
1282.000000	64.625060
1281.000000	66.213870
1280.000000	68.073095
1279.000000	69.994238
1278.000000	71.676379
1277.000000	72.834496
1276.000000	73.327636
1275.000000	73.194184
1274.000000	72.623947
1273.000000	71.933932
1272.000000	71.521422
1271.000000	71.729313
1270.000000	72.671136
1269.000000	74.172759
1268.000000	75.897560
1267.000000	77.543722
1266.000000	78.954258
1265.000000	80.104201
1264.000000	81.034811
1263.000000	81.801638
1262.000000	82.451102
1261.000000	83.012672
1260.000000	83.498448
1259.000000	83.911405
1258.000000	84.258904
1257.000000	84.549597
1256.000000	84.788391
1255.000000	84.982015
1254.000000	85.143665
1253.000000	85.289603
1252.000000	85.430696
1251.000000	85.573727
1250.000000	85.725529
1249.000000	85.888493
1248.000000	86.056503
1247.000000	86.219762
1246.000000	86.371205
1245.000000	86.505310
1244.000000	86.615022
1243.000000	86.696859
1242.000000	86.755463
1241.000000	86.798116
1240.000000	86.828174
1239.000000	86.847311
1238.000000	86.860317
1237.000000	86.870232
1236.000000	86.872225
1235.000000	86.858663
1234.000000	86.825637
1233.000000	86.770782
1232.000000	86.687875
1231.000000	86.569458
1230.000000	86.413188
1229.000000	86.216945
1228.000000	85.972980
1227.000000	85.668947
1226.000000	85.288290
1225.000000	84.807828
1224.000000	84.189257
1223.000000	83.386009
1222.000000	82.354283
1221.000000	81.055313
1220.000000	79.470756
1219.000000	77.613830
1218.000000	75.532057
1217.000000	73.297361
1216.000000	70.998547
1215.000000	68.746843
1214.000000	66.675299
1213.000000	64.924839
1212.000000	63.622149
1211.000000	62.850049
1210.000000	62.598603
1209.000000	62.762686
1208.000000	63.185866
1207.000000	63.701350
1206.000000	64.159469
1205.000000	64.437223
1204.000000	64.454611
1203.000000	64.189284
1202.000000	63.681224
1201.000000	63.037197
1200.000000	62.427047
1199.000000	62.053058
1198.000000	62.085281
1197.000000	62.598186
1196.000000	63.562478
1195.000000	64.872507
1194.000000	66.392310
1193.000000	68.001453
1192.000000	69.612991
1191.000000	71.175062
1190.000000	72.657688
1189.000000	74.044591
1188.000000	75.329063
1187.000000	76.508928
1186.000000	77.580719
1185.000000	78.541938
1184.000000	79.394275
1183.000000	80.138621
1182.000000	80.775870
1181.000000	81.303577
1180.000000	81.720032
1179.000000	82.032949
1178.000000	82.257536
1177.000000	82.412481
1176.000000	82.510689
1175.000000	82.559043
1174.000000	82.562053
1173.000000	82.512895
1172.000000	82.389589
1171.000000	82.151804
1170.000000	81.743318
1169.000000	81.100871
1168.000000	80.165323
1167.000000	78.916703
1166.000000	77.408867
1165.000000	75.785003
1164.000000	74.262633
1163.000000	73.084501
1162.000000	72.437344
1161.000000	72.390696
1160.000000	72.891395
1159.000000	73.792054
1158.000000	74.909505
1157.000000	76.071113
1156.000000	77.145744
1155.000000	78.054943
1154.000000	78.763683
1153.000000	79.267289
1152.000000	79.578799
1151.000000	79.720330
1150.000000	79.712041
1149.000000	79.569980
1148.000000	79.292945
1147.000000	78.859548
1146.000000	78.228497
1145.000000	77.327904
1144.000000	76.069938
1143.000000	74.363896
1142.000000	72.151796
1141.000000	69.459786
1140.000000	66.428374
1139.000000	63.301095
1138.000000	60.325895
1137.000000	57.635585
1136.000000	55.197549
1135.000000	52.868312
1134.000000	50.519389
1133.000000	48.195401
1132.000000	46.199886
1131.000000	44.997071
1130.000000	44.994468
1129.000000	46.306715
1128.000000	48.695511
1127.000000	51.672640
1126.000000	54.663719
1125.000000	57.165700
1124.000000	58.820413
1123.000000	59.417063
1122.000000	58.876106
1121.000000	57.244945
1120.000000	54.638213
1119.000000	51.212762
1118.000000	47.233185
1117.000000	43.216496
1116.000000	39.981250
1115.000000	38.417584
1114.000000	39.039713
1113.000000	41.681387
1112.000000	45.575570
1111.000000	49.673391
1110.000000	53.057466
1109.000000	55.268674
1108.000000	56.412503
1107.000000	56.970719
1106.000000	57.421033
1105.000000	57.960028
1104.000000	58.535241
1103.000000	59.051546
1102.000000	59.436501
1101.000000	59.559379
1100.000000	59.213502
1099.000000	58.322529
1098.000000	57.191354
1097.000000	56.478598
1096.000000	56.826147
1095.000000	58.455649
1094.000000	61.056316
1093.000000	64.024075
1092.000000	66.822858
1091.000000	69.174022
1090.000000	71.041628
1089.000000	72.515456
1088.000000	73.705990
1087.000000	74.698388
1086.000000	75.554645
1085.000000	76.318375
1084.000000	77.009414
1083.000000	77.634454
1082.000000	78.193372
1081.000000	78.685512
1080.000000	79.106235
1079.000000	79.443853
1078.000000	79.691828
1077.000000	79.844125
1076.000000	79.885051
1075.000000	79.786886
1074.000000	79.507308
1073.000000	78.996549
1072.000000	78.169950
1071.000000	76.894217
1070.000000	74.988705
1069.000000	72.204114
1068.000000	68.280954
1067.000000	63.081142
1066.000000	56.812027
1065.000000	50.181318
1064.000000	44.265402
1063.000000	40.035420
1062.000000	37.778046
1061.000000	36.862947
1060.000000	36.115264
1059.000000	34.591130
1058.000000	32.162434
1057.000000	29.575663
1056.000000	27.955219
1055.000000	28.089036
1054.000000	30.070591
1053.000000	33.412991
1052.000000	37.452138
1051.000000	41.656706
1050.000000	45.677885
1049.000000	49.329777
1048.000000	52.553407
1047.000000	55.377820
1046.000000	57.859240
1045.000000	60.045558
1044.000000	61.967285
1043.000000	63.649453
1042.000000	65.114123
1041.000000	66.372159
1040.000000	67.439434
1039.000000	68.335745
1038.000000	69.082328
1037.000000	69.699761
1036.000000	70.206104
1035.000000	70.625947
1034.000000	70.983699
1033.000000	71.298136
1032.000000	71.584526
1031.000000	71.855102
1030.000000	72.118648
1029.000000	72.374697
1028.000000	72.613871
1027.000000	72.823458
1026.000000	72.987922
1025.000000	73.091160
1024.000000	73.119516
1023.000000	73.066108
1022.000000	72.933118
1021.000000	72.722192
1020.000000	72.430609
1019.000000	72.044429
1018.000000	71.528395
1017.000000	70.826119
1016.000000	69.862091
1015.000000	68.573724
1014.000000	66.952575
1013.000000	65.081663
1012.000000	63.146162
1011.000000	61.371111
1010.000000	59.899557
1009.000000	58.689013
1008.000000	57.546588
1007.000000	56.317825
1006.000000	55.115316
1005.000000	54.359939
1004.000000	54.549983
1003.000000	55.907280
1002.000000	58.177963
1001.000000	60.778981
1000.000000	63.106054
999.000000	64.749882
998.000000	65.542358
997.000000	65.529348
996.000000	64.953295
995.000000	64.204166
994.000000	63.693623
993.000000	63.704689
992.000000	64.324915
991.000000	65.469675
990.000000	66.949981
989.000000	68.548691
988.000000	70.090739
987.000000	71.471446
986.000000	72.653715
985.000000	73.645475
984.000000	74.478731
983.000000	75.194014
982.000000	75.829891
981.000000	76.411354
980.000000	76.946108
979.000000	77.434869
978.000000	77.873590
977.000000	78.255825
976.000000	78.575443
975.000000	78.832637
974.000000	79.039341
973.000000	79.213736
972.000000	79.375888
971.000000	79.545781
970.000000	79.739015
969.000000	79.960991
968.000000	80.205087
967.000000	80.458376
966.000000	80.706786
965.000000	80.934999
964.000000	81.128126
963.000000	81.277783
962.000000	81.386781
961.000000	81.466374
960.000000	81.530855
959.000000	81.596834
958.000000	81.681255
957.000000	81.795127
956.000000	81.939287
955.000000	82.107131
954.000000	82.288352
953.000000	82.468593
952.000000	82.630767
951.000000	82.762597
950.000000	82.862287
949.000000	82.935613
948.000000	82.990886
947.000000	83.039587
946.000000	83.097254
945.000000	83.177263
944.000000	83.284643
943.000000	83.417434
942.000000	83.570387
941.000000	83.733525
940.000000	83.891092
939.000000	84.028036
938.000000	84.137348
937.000000	84.218496
936.000000	84.272912
935.000000	84.306059
934.000000	84.331325
933.000000	84.365139
932.000000	84.418461
931.000000	84.496215
930.000000	84.600579
929.000000	84.728377
928.000000	84.867162
927.000000	85.000232
926.000000	85.115385
925.000000	85.205260
924.000000	85.263696
923.000000	85.289612
922.000000	85.293237
921.000000	85.292091
920.000000	85.300941
919.000000	85.330083
918.000000	85.389241
917.000000	85.484019
916.000000	85.607895
915.000000	85.743995
914.000000	85.874640
913.000000	85.984963
912.000000	86.059250
911.000000	86.084510
910.000000	86.056609
909.000000	85.974433
908.000000	85.828715
907.000000	85.598231
906.000000	85.259301
905.000000	84.786212
904.000000	84.153985
903.000000	83.372605
902.000000	82.538216
901.000000	81.839647
900.000000	81.483303
899.000000	81.575096
898.000000	82.050494
897.000000	82.720195
896.000000	83.383486
895.000000	83.925174
894.000000	84.334281
893.000000	84.644761
892.000000	84.875815
891.000000	85.024703
890.000000	85.105097
889.000000	85.167025
888.000000	85.265961
887.000000	85.407056
886.000000	85.524991
885.000000	85.520373
884.000000	85.323288
883.000000	84.944303
882.000000	84.475383
881.000000	84.036632
880.000000	83.699108
879.000000	83.447378
878.000000	83.222023
877.000000	83.006522
876.000000	82.875039
875.000000	82.940931
874.000000	83.256673
873.000000	83.759358
872.000000	84.313659
871.000000	84.801884
870.000000	85.179517
869.000000	85.467239
868.000000	85.708940
867.000000	85.940809
866.000000	86.178308
865.000000	86.415360
864.000000	86.629141
863.000000	86.794533
862.000000	86.897179
861.000000	86.935624
860.000000	86.918564
859.000000	86.864206
858.000000	86.800891
857.000000	86.759768
856.000000	86.764414
855.000000	86.826828
854.000000	86.947079
853.000000	87.110593
852.000000	87.287928
851.000000	87.444420
850.000000	87.553252
849.000000	87.600400
848.000000	87.583871
847.000000	87.516082
846.000000	87.424695
845.000000	87.343861
844.000000	87.301372
843.000000	87.313708
842.000000	87.386262
841.000000	87.510687
840.000000	87.662741
839.000000	87.809930
838.000000	87.924094
837.000000	87.987000
836.000000	87.989787
835.000000	87.936871
834.000000	87.850195
833.000000	87.762067
832.000000	87.701110
831.000000	87.686209
830.000000	87.727908
829.000000	87.825646
828.000000	87.962732
827.000000	88.110824
826.000000	88.242450
825.000000	88.336951
824.000000	88.379670
823.000000	88.366093
822.000000	88.308893
821.000000	88.232760
820.000000	88.161150
819.000000	88.110830
818.000000	88.093780
817.000000	88.114060
816.000000	88.160087
815.000000	88.206153
814.000000	88.222517
813.000000	88.179037
812.000000	88.044492
811.000000	87.794204
810.000000	87.428526
809.000000	86.982598
808.000000	86.513849
807.000000	86.077538
806.000000	85.699289
805.000000	85.356992
804.000000	84.986765
803.000000	84.507944
802.000000	83.850669
801.000000	82.959812
800.000000	81.789174
799.000000	80.311173
798.000000	78.527816
797.000000	76.477184
796.000000	74.225834
795.000000	71.866237
794.000000	69.514511
793.000000	67.300693
792.000000	65.356675
791.000000	63.803430
790.000000	62.737635
789.000000	62.207720
788.000000	62.203696
787.000000	62.652377
786.000000	63.435500
785.000000	64.421967
784.000000	65.487857
783.000000	66.530894
782.000000	67.472039
781.000000	68.257005
780.000000	68.852117
779.000000	69.245135
778.000000	69.448939
777.000000	69.495460
776.000000	69.414816
775.000000	69.218502
774.000000	68.913476
773.000000	68.534714
772.000000	68.171612
771.000000	67.958697
770.000000	68.034202
769.000000	68.483260
768.000000	69.303288
767.000000	70.412268
766.000000	71.693571
765.000000	73.044532
764.000000	74.392872
763.000000	75.693115
762.000000	76.917445
761.000000	78.047541
760.000000	79.065336
759.000000	79.954945
758.000000	80.714925
757.000000	81.361126
756.000000	81.916208
755.000000	82.401600
754.000000	82.842191
753.000000	83.264324
752.000000	83.683301
751.000000	84.098138
750.000000	84.498532
749.000000	84.870214
748.000000	85.192225
747.000000	85.442465
746.000000	85.613828
745.000000	85.718184
744.000000	85.773953
743.000000	85.799117
742.000000	85.816660
741.000000	85.852043
740.000000	85.917594
739.000000	86.007602
738.000000	86.109879
737.000000	86.209560
736.000000	86.279233
735.000000	86.281604
734.000000	86.192562
733.000000	86.013824
732.000000	85.762452
731.000000	85.463681
730.000000	85.156624
729.000000	84.885960
728.000000	84.678221
727.000000	84.530596
726.000000	84.421261
725.000000	84.323917
724.000000	84.205716
723.000000	84.017396
722.000000	83.689639
721.000000	83.140586
720.000000	82.300785
719.000000	81.158079
718.000000	79.789329
717.000000	78.346746
716.000000	77.013187
715.000000	75.959118
714.000000	75.314549
713.000000	75.139284
712.000000	75.398582
711.000000	75.978139
710.000000	76.744618
709.000000	77.594205
708.000000	78.455436
707.000000	79.282721
706.000000	80.062413
705.000000	80.810620
704.000000	81.544195
703.000000	82.259386
702.000000	82.948517
701.000000	83.614392
700.000000	84.249063
699.000000	84.825586
698.000000	85.322665
697.000000	85.743191
696.000000	86.095351
695.000000	86.372743
694.000000	86.580046
693.000000	86.750646
692.000000	86.913804
691.000000	87.071100
690.000000	87.218302
689.000000	87.370741
688.000000	87.540704
687.000000	87.709757
686.000000	87.859707
685.000000	87.998372
684.000000	88.125301
683.000000	88.211812
682.000000	88.245620
681.000000	88.257562
680.000000	88.270209
679.000000	88.266759
678.000000	88.241387
677.000000	88.218209
676.000000	88.220352
675.000000	88.242234
674.000000	88.292717
673.000000	88.446994
672.000000	88.812394
671.000000	89.431505
670.000000	90.227063
669.000000	90.881500
668.000000	90.757915
667.000000	89.854092
666.000000	89.020433
665.000000	88.539761
664.000000	88.279354
663.000000	88.167551
662.000000	88.180340
661.000000	88.269902
660.000000	88.376354
659.000000	88.479920
658.000000	88.579274
657.000000	88.637585
656.000000	88.623984
655.000000	88.562188
654.000000	88.480819
653.000000	88.370873
652.000000	88.239572
651.000000	88.140693
650.000000	88.107846
649.000000	88.107287
648.000000	88.103356
647.000000	88.110374
646.000000	88.136688
645.000000	88.142068
644.000000	88.085900
643.000000	87.970842
642.000000	87.815217
641.000000	87.617361
640.000000	87.385927
639.000000	87.169545
638.000000	87.013192
637.000000	86.916872
636.000000	86.867787
635.000000	86.868371
634.000000	86.904183
633.000000	86.923992
632.000000	86.880854
631.000000	86.767230
630.000000	86.589903
629.000000	86.345406
628.000000	86.048822
627.000000	85.752820
626.000000	85.502844
625.000000	85.306309
624.000000	85.159716
623.000000	85.070762
622.000000	85.030514
621.000000	84.993584
620.000000	84.910201
619.000000	84.747533
618.000000	84.471703
617.000000	84.051530
616.000000	83.509455
615.000000	82.928972
614.000000	82.381027
613.000000	81.874832
612.000000	81.395251
611.000000	80.941352
610.000000	80.495559
609.000000	79.993859
608.000000	79.369095
607.000000	78.596113
606.000000	77.664924
605.000000	76.557439
604.000000	75.282517
603.000000	73.900150
602.000000	72.465820
601.000000	70.985335
600.000000	69.455943
599.000000	67.909472
598.000000	66.367260
597.000000	64.795822
596.000000	63.163759
595.000000	61.495374
594.000000	59.817106
593.000000	58.097865
592.000000	56.310776
591.000000	54.513422
590.000000	52.816485
589.000000	51.324887
588.000000	50.141680
587.000000	49.337436
586.000000	48.831584
585.000000	48.383528
584.000000	47.789022
583.000000	47.024324
582.000000	46.162242
581.000000	45.263649
580.000000	44.422498
579.000000	43.820064
578.000000	43.609150
577.000000	43.812862
576.000000	44.385629
575.000000	45.269287
574.000000	46.341398
573.000000	47.406234
572.000000	48.332765
571.000000	49.152266
570.000000	49.984317
569.000000	50.917765
568.000000	51.986359
567.000000	53.173251
566.000000	54.378624
565.000000	55.455317
564.000000	56.326477
563.000000	57.028798
562.000000	57.624937
561.000000	58.137446
560.000000	58.592731
559.000000	59.047847
558.000000	59.526699
557.000000	59.992662
556.000000	60.425847
555.000000	60.874088
554.000000	61.384009
553.000000	61.943066
552.000000	62.528396
551.000000	63.152582
550.000000	63.818119
549.000000	64.483569
548.000000	65.118087
547.000000	65.737676
546.000000	66.352265
545.000000	66.927168
544.000000	67.435508
543.000000	67.897516
542.000000	68.336218
541.000000	68.739170
540.000000	69.100728
539.000000	69.454642
538.000000	69.829246
537.000000	70.211089
536.000000	70.581738
535.000000	70.953335
534.000000	71.330715
533.000000	71.684984
532.000000	71.986095
531.000000	72.233456
530.000000	72.430230
529.000000	72.556319
528.000000	72.586794
527.000000	72.520298
526.000000	72.355607
525.000000	72.073185
524.000000	71.672934
523.000000	71.195639
522.000000	70.694702
521.000000	70.202493
520.000000	69.728672
519.000000	69.236941
518.000000	68.578559
517.000000	67.517803
516.000000	65.892076
515.000000	63.754165
514.000000	61.347152
513.000000	58.999369
512.000000	57.056932
511.000000	55.828619
510.000000	55.472893
509.000000	55.947599
508.000000	57.112609
507.000000	58.791968
506.000000	60.748535
505.000000	62.731833
504.000000	64.598603
503.000000	66.328773
502.000000	67.904929
501.000000	69.274139
500.000000	70.431307
499.000000	71.454581
498.000000	72.414898
497.000000	73.317798
496.000000	74.143332
495.000000	74.889074
494.000000	75.557113
493.000000	76.125542
492.000000	76.578850
491.000000	76.944410
490.000000	77.261446
489.000000	77.552577
488.000000	77.834940
487.000000	78.136867
486.000000	78.470665
485.000000	78.804907
484.000000	79.094507
483.000000	79.319110
482.000000	79.468244
481.000000	79.514421
480.000000	79.438616
479.000000	79.263361
478.000000	79.019245
477.000000	78.721155
476.000000	78.401112
475.000000	78.117871
474.000000	77.887851
473.000000	77.636894
472.000000	77.271814
471.000000	76.794121
470.000000	76.280825
469.000000	75.813862
468.000000	75.481618
467.000000	75.346047
466.000000	75.321590
465.000000	75.166552
464.000000	74.663533
463.000000	73.807614
462.000000	72.847941
461.000000	72.150644
460.000000	72.053537
459.000000	72.766936
458.000000	74.213525
457.000000	75.956381
456.000000	77.519137
455.000000	78.744483
454.000000	79.688046
453.000000	80.387584
452.000000	80.850401
451.000000	81.144297
450.000000	81.334623
449.000000	81.390999
448.000000	81.227790
447.000000	80.802686
446.000000	80.143410
445.000000	79.326748
444.000000	78.504272
443.000000	77.905439
442.000000	77.705948
441.000000	77.892670
440.000000	78.344742
439.000000	78.959951
438.000000	79.647744
437.000000	80.293805
436.000000	80.808142
435.000000	81.183603
434.000000	81.448607
433.000000	81.600959
432.000000	81.629685
431.000000	81.561125
430.000000	81.437572
429.000000	81.270410
428.000000	81.074567
427.000000	80.910787
426.000000	80.820919
425.000000	80.755589
424.000000	80.647874
423.000000	80.529896
422.000000	80.466939
421.000000	80.429770
420.000000	80.334126
419.000000	80.186863
418.000000	80.076179
417.000000	79.993698
416.000000	79.899403
415.000000	79.843831
414.000000	79.880629
413.000000	79.965406
412.000000	80.030265
411.000000	80.094477
410.000000	80.219310
409.000000	80.377428
408.000000	80.500592
407.000000	80.594951
406.000000	80.685063
405.000000	80.727385
404.000000	80.714044
403.000000	80.760420
402.000000	80.966184
401.000000	81.259416
400.000000	81.495683
