PE IR       SUBTECH     SPECTRUM    ASCII       PEDS        4.00        
   -1
23MS040-trans.asc
24/10/14
15:45:30.00
24/10/14
15:45:30.00
Administrator
Sample 1263 By Administrator Date Monday, October 14 2024
400.000000
#HDR
-1
-1
#GR
cm-1
%T
1.0
0.0
4000.000000
-1.000000
3601
8
82.574184
1.924278
#DATA
4000.000000	29.772385
3999.000000	29.748574
3998.000000	29.722837
3997.000000	29.694967
3996.000000	29.664938
3995.000000	29.632537
3994.000000	29.597477
3993.000000	29.559516
3992.000000	29.518634
3991.000000	29.475088
3990.000000	29.429825
3989.000000	29.385375
3988.000000	29.345475
3987.000000	29.313311
3986.000000	29.290367
3985.000000	29.276564
3984.000000	29.270584
3983.000000	29.269501
3982.000000	29.268890
3981.000000	29.264471
3980.000000	29.253866
3979.000000	29.237684
3978.000000	29.218962
3977.000000	29.200922
3976.000000	29.185702
3975.000000	29.174228
3974.000000	29.167230
3973.000000	29.166633
3972.000000	29.175609
3971.000000	29.197534
3970.000000	29.233678
3969.000000	29.282299
3968.000000	29.340139
3967.000000	29.403845
3966.000000	29.471114
3965.000000	29.541078
3964.000000	29.613223
3963.000000	29.685959
3962.000000	29.756784
3961.000000	29.822805
3960.000000	29.882008
3959.000000	29.934576
3958.000000	29.981192
3957.000000	30.022928
3956.000000	30.062168
3955.000000	30.101005
3954.000000	30.140251
3953.000000	30.178815
3952.000000	30.216006
3951.000000	30.253311
3950.000000	30.293154
3949.000000	30.337523
3948.000000	30.385694
3947.000000	30.435112
3946.000000	30.484670
3945.000000	30.535401
3944.000000	30.587135
3943.000000	30.634773
3942.000000	30.674557
3941.000000	30.709505
3940.000000	30.743966
3939.000000	30.778435
3938.000000	30.807490
3937.000000	30.826052
3936.000000	30.838015
3935.000000	30.852983
3934.000000	30.879020
3933.000000	30.915146
3932.000000	30.954982
3931.000000	30.992782
3930.000000	31.023323
3929.000000	31.046415
3928.000000	31.065164
3927.000000	31.084082
3926.000000	31.105664
3925.000000	31.124724
3924.000000	31.136584
3923.000000	31.144759
3922.000000	31.154417
3921.000000	31.166727
3920.000000	31.180616
3919.000000	31.199106
3918.000000	31.227286
3917.000000	31.263255
3916.000000	31.299470
3915.000000	31.329207
3914.000000	31.353385
3913.000000	31.376556
3912.000000	31.398785
3911.000000	31.420886
3910.000000	31.444342
3909.000000	31.470702
3908.000000	31.503415
3907.000000	31.539374
3906.000000	31.571794
3905.000000	31.593442
3904.000000	31.607026
3903.000000	31.630825
3902.000000	31.677791
3901.000000	31.742089
3900.000000	31.803414
3899.000000	31.840027
3898.000000	31.850514
3897.000000	31.850368
3896.000000	31.851977
3895.000000	31.862612
3894.000000	31.883298
3893.000000	31.910307
3892.000000	31.934252
3891.000000	31.945668
3890.000000	31.947127
3889.000000	31.950498
3888.000000	31.971260
3887.000000	32.010007
3886.000000	32.043822
3885.000000	32.057612
3884.000000	32.065510
3883.000000	32.088514
3882.000000	32.125428
3881.000000	32.153579
3880.000000	32.157339
3879.000000	32.147360
3878.000000	32.145262
3877.000000	32.161341
3876.000000	32.189226
3875.000000	32.211060
3874.000000	32.215041
3873.000000	32.211628
3872.000000	32.226498
3871.000000	32.265253
3870.000000	32.300559
3869.000000	32.315642
3868.000000	32.324136
3867.000000	32.344291
3866.000000	32.377137
3865.000000	32.399063
3864.000000	32.397688
3863.000000	32.393714
3862.000000	32.400972
3861.000000	32.416093
3860.000000	32.436867
3859.000000	32.469174
3858.000000	32.528013
3857.000000	32.617741
3856.000000	32.723024
3855.000000	32.789012
3854.000000	32.774203
3853.000000	32.737972
3852.000000	32.752978
3851.000000	32.790139
3850.000000	32.796145
3849.000000	32.765592
3848.000000	32.716091
3847.000000	32.673449
3846.000000	32.654377
3845.000000	32.654708
3844.000000	32.664524
3843.000000	32.678794
3842.000000	32.697037
3841.000000	32.730137
3840.000000	32.775683
3839.000000	32.810537
3838.000000	32.827692
3837.000000	32.839944
3836.000000	32.858830
3835.000000	32.880371
3834.000000	32.897392
3833.000000	32.909858
3832.000000	32.915021
3831.000000	32.912703
3830.000000	32.915944
3829.000000	32.934462
3828.000000	32.962875
3827.000000	32.989661
3826.000000	33.004361
3825.000000	33.013960
3824.000000	33.039340
3823.000000	33.087188
3822.000000	33.135033
3821.000000	33.156087
3820.000000	33.160490
3819.000000	33.178501
3818.000000	33.223094
3817.000000	33.274341
3816.000000	33.297142
3815.000000	33.290463
3814.000000	33.288749
3813.000000	33.305685
3812.000000	33.321233
3811.000000	33.323765
3810.000000	33.328087
3809.000000	33.349791
3808.000000	33.383206
3807.000000	33.408076
3806.000000	33.420386
3805.000000	33.444153
3804.000000	33.494771
3803.000000	33.564059
3802.000000	33.610935
3801.000000	33.607545
3800.000000	33.587769
3799.000000	33.589085
3798.000000	33.608891
3797.000000	33.622108
3796.000000	33.614447
3795.000000	33.598066
3794.000000	33.594922
3793.000000	33.609194
3792.000000	33.626414
3791.000000	33.638590
3790.000000	33.650867
3789.000000	33.667879
3788.000000	33.689455
3787.000000	33.714148
3786.000000	33.740714
3785.000000	33.765458
3784.000000	33.782234
3783.000000	33.792800
3782.000000	33.807232
3781.000000	33.829120
3780.000000	33.849133
3779.000000	33.861323
3778.000000	33.872553
3777.000000	33.890566
3776.000000	33.911670
3775.000000	33.925986
3774.000000	33.930884
3773.000000	33.933265
3772.000000	33.942228
3771.000000	33.957183
3770.000000	33.966867
3769.000000	33.968524
3768.000000	33.971968
3767.000000	33.982736
3766.000000	33.996401
3765.000000	33.998708
3764.000000	33.984861
3763.000000	33.969947
3762.000000	33.969092
3761.000000	33.980429
3760.000000	33.985896
3759.000000	33.985432
3758.000000	33.996433
3757.000000	34.019028
3756.000000	34.044890
3755.000000	34.073609
3754.000000	34.113167
3753.000000	34.162762
3752.000000	34.205754
3751.000000	34.242383
3750.000000	34.287594
3749.000000	34.335735
3748.000000	34.370615
3747.000000	34.403908
3746.000000	34.453037
3745.000000	34.486111
3744.000000	34.471023
3743.000000	34.443646
3742.000000	34.427846
3741.000000	34.408589
3740.000000	34.372397
3739.000000	34.329083
3738.000000	34.311395
3737.000000	34.336047
3736.000000	34.393364
3735.000000	34.454652
3734.000000	34.504322
3733.000000	34.545295
3732.000000	34.567031
3731.000000	34.559320
3730.000000	34.530208
3729.000000	34.501108
3728.000000	34.489711
3727.000000	34.489291
3726.000000	34.486418
3725.000000	34.484318
3724.000000	34.493431
3723.000000	34.507218
3722.000000	34.509142
3721.000000	34.503540
3720.000000	34.499311
3719.000000	34.497129
3718.000000	34.494351
3717.000000	34.487394
3716.000000	34.484347
3715.000000	34.495233
3714.000000	34.520289
3713.000000	34.548067
3712.000000	34.566039
3711.000000	34.577273
3710.000000	34.589014
3709.000000	34.598379
3708.000000	34.596870
3707.000000	34.579056
3706.000000	34.551499
3705.000000	34.527667
3704.000000	34.514749
3703.000000	34.506703
3702.000000	34.493439
3701.000000	34.476019
3700.000000	34.458770
3699.000000	34.439998
3698.000000	34.420415
3697.000000	34.399797
3696.000000	34.374863
3695.000000	34.348492
3694.000000	34.328181
3693.000000	34.318158
3692.000000	34.311630
3691.000000	34.296184
3690.000000	34.266697
3689.000000	34.235650
3688.000000	34.219079
3687.000000	34.208221
3686.000000	34.182669
3685.000000	34.137322
3684.000000	34.075426
3683.000000	34.003167
3682.000000	33.934783
3681.000000	33.880055
3680.000000	33.839090
3679.000000	33.799744
3678.000000	33.760389
3677.000000	33.728084
3676.000000	33.687753
3675.000000	33.628963
3674.000000	33.563311
3673.000000	33.498455
3672.000000	33.436537
3671.000000	33.367934
3670.000000	33.271615
3669.000000	33.156586
3668.000000	33.052486
3667.000000	32.957079
3666.000000	32.849130
3665.000000	32.726094
3664.000000	32.597111
3663.000000	32.471150
3662.000000	32.350088
3661.000000	32.228715
3660.000000	32.109924
3659.000000	31.997394
3658.000000	31.886946
3657.000000	31.767210
3656.000000	31.632360
3655.000000	31.491692
3654.000000	31.350076
3653.000000	31.204761
3652.000000	31.052988
3651.000000	30.886003
3650.000000	30.701660
3649.000000	30.524075
3648.000000	30.375739
3647.000000	30.238884
3646.000000	30.079807
3645.000000	29.892390
3644.000000	29.692388
3643.000000	29.493552
3642.000000	29.295335
3641.000000	29.092782
3640.000000	28.889229
3639.000000	28.687542
3638.000000	28.484663
3637.000000	28.276400
3636.000000	28.066375
3635.000000	27.861574
3634.000000	27.662317
3633.000000	27.468021
3632.000000	27.279257
3631.000000	27.090860
3630.000000	26.882457
3629.000000	26.643115
3628.000000	26.399844
3627.000000	26.180084
3626.000000	25.971075
3625.000000	25.752531
3624.000000	25.524679
3623.000000	25.297705
3622.000000	25.079135
3621.000000	24.866090
3620.000000	24.646064
3619.000000	24.413479
3618.000000	24.179370
3617.000000	23.954235
3616.000000	23.738446
3615.000000	23.526367
3614.000000	23.310257
3613.000000	23.088646
3612.000000	22.868418
3611.000000	22.654596
3610.000000	22.445477
3609.000000	22.238171
3608.000000	22.029707
3607.000000	21.818934
3606.000000	21.607119
3605.000000	21.396371
3604.000000	21.189012
3603.000000	20.983054
3602.000000	20.775576
3601.000000	20.568681
3600.000000	20.366263
3599.000000	20.169859
3598.000000	19.979547
3597.000000	19.792881
3596.000000	19.606783
3595.000000	19.417477
3594.000000	19.222995
3593.000000	19.029481
3592.000000	18.843519
3591.000000	18.664442
3590.000000	18.487229
3589.000000	18.307531
3588.000000	18.122979
3587.000000	17.935303
3586.000000	17.750883
3585.000000	17.575762
3584.000000	17.409867
3583.000000	17.247867
3582.000000	17.086255
3581.000000	16.926570
3580.000000	16.771204
3579.000000	16.618296
3578.000000	16.464747
3577.000000	16.311143
3576.000000	16.159011
3575.000000	16.007718
3574.000000	15.855479
3573.000000	15.703711
3572.000000	15.556018
3571.000000	15.413640
3570.000000	15.277323
3569.000000	15.149883
3568.000000	15.031822
3567.000000	14.917342
3566.000000	14.800018
3565.000000	14.678256
3564.000000	14.553257
3563.000000	14.426438
3562.000000	14.300559
3561.000000	14.180579
3560.000000	14.069073
3559.000000	13.962601
3558.000000	13.856171
3557.000000	13.749207
3556.000000	13.643476
3555.000000	13.538294
3554.000000	13.431669
3553.000000	13.324052
3552.000000	13.217942
3551.000000	13.113534
3550.000000	13.008366
3549.000000	12.900924
3548.000000	12.791191
3547.000000	12.680193
3546.000000	12.571492
3545.000000	12.470996
3544.000000	12.381683
3543.000000	12.300361
3542.000000	12.221508
3541.000000	12.141914
3540.000000	12.059218
3539.000000	11.970275
3538.000000	11.875613
3537.000000	11.781984
3536.000000	11.696552
3535.000000	11.619113
3534.000000	11.544412
3533.000000	11.469404
3532.000000	11.393802
3531.000000	11.316736
3530.000000	11.236770
3529.000000	11.154328
3528.000000	11.069898
3527.000000	10.981817
3526.000000	10.890234
3525.000000	10.801055
3524.000000	10.721118
3523.000000	10.650877
3522.000000	10.585268
3521.000000	10.519971
3520.000000	10.453069
3519.000000	10.382432
3518.000000	10.306491
3517.000000	10.226453
3516.000000	10.145012
3515.000000	10.064112
3514.000000	9.986216
3513.000000	9.915166
3512.000000	9.851836
3511.000000	9.791140
3510.000000	9.727117
3509.000000	9.658808
3508.000000	9.587739
3507.000000	9.512838
3506.000000	9.432387
3505.000000	9.349060
3504.000000	9.268874
3503.000000	9.196160
3502.000000	9.131674
3501.000000	9.073487
3500.000000	9.017122
3499.000000	8.957561
3498.000000	8.894508
3497.000000	8.833289
3496.000000	8.778116
3495.000000	8.727090
3494.000000	8.676434
3493.000000	8.625996
3492.000000	8.576913
3491.000000	8.527428
3490.000000	8.475403
3489.000000	8.422455
3488.000000	8.371718
3487.000000	8.324013
3486.000000	8.279260
3485.000000	8.238018
3484.000000	8.198209
3483.000000	8.153977
3482.000000	8.102486
3481.000000	8.049440
3480.000000	8.003472
3479.000000	7.967232
3478.000000	7.937329
3477.000000	7.909857
3476.000000	7.881844
3475.000000	7.850035
3474.000000	7.812298
3473.000000	7.768566
3472.000000	7.718565
3471.000000	7.661967
3470.000000	7.603209
3469.000000	7.552349
3468.000000	7.517146
3467.000000	7.496632
3466.000000	7.484686
3465.000000	7.475573
3464.000000	7.463427
3463.000000	7.442030
3462.000000	7.410534
3461.000000	7.376254
3460.000000	7.347193
3459.000000	7.324350
3458.000000	7.304149
3457.000000	7.284477
3456.000000	7.264573
3455.000000	7.242482
3454.000000	7.217385
3453.000000	7.191803
3452.000000	7.167837
3451.000000	7.144033
3450.000000	7.118774
3449.000000	7.093821
3448.000000	7.071375
3447.000000	7.050570
3446.000000	7.030069
3445.000000	7.010874
3444.000000	6.993348
3443.000000	6.974637
3442.000000	6.951883
3441.000000	6.925010
3440.000000	6.894063
3439.000000	6.857816
3438.000000	6.818264
3437.000000	6.782870
3436.000000	6.758733
3435.000000	6.746349
3434.000000	6.741167
3433.000000	6.738039
3432.000000	6.732583
3431.000000	6.722681
3430.000000	6.711306
3429.000000	6.704508
3428.000000	6.703824
3427.000000	6.704092
3426.000000	6.700496
3425.000000	6.693544
3424.000000	6.685182
3423.000000	6.674769
3422.000000	6.662176
3421.000000	6.650591
3420.000000	6.642582
3419.000000	6.636474
3418.000000	6.629453
3417.000000	6.620739
3416.000000	6.609633
3415.000000	6.594841
3414.000000	6.578310
3413.000000	6.565494
3412.000000	6.558962
3411.000000	6.555710
3410.000000	6.553263
3409.000000	6.553838
3408.000000	6.559046
3407.000000	6.564829
3406.000000	6.565129
3405.000000	6.557057
3404.000000	6.540222
3403.000000	6.515909
3402.000000	6.490911
3401.000000	6.477482
3400.000000	6.484018
3399.000000	6.507247
3398.000000	6.536045
3397.000000	6.560141
3396.000000	6.573143
3395.000000	6.572433
3394.000000	6.561640
3393.000000	6.551041
3392.000000	6.550945
3391.000000	6.564781
3390.000000	6.589445
3389.000000	6.619119
3388.000000	6.647074
3387.000000	6.668055
3386.000000	6.682178
3385.000000	6.693904
3384.000000	6.705598
3383.000000	6.715450
3382.000000	6.722911
3381.000000	6.731481
3380.000000	6.743770
3379.000000	6.758223
3378.000000	6.773303
3377.000000	6.790664
3376.000000	6.811030
3375.000000	6.830630
3374.000000	6.844766
3373.000000	6.852079
3372.000000	6.853631
3371.000000	6.851919
3370.000000	6.853026
3369.000000	6.865356
3368.000000	6.892812
3367.000000	6.931688
3366.000000	6.975746
3365.000000	7.020419
3364.000000	7.061359
3363.000000	7.094701
3362.000000	7.121761
3361.000000	7.149182
3360.000000	7.181357
3359.000000	7.216199
3358.000000	7.250434
3357.000000	7.284198
3356.000000	7.317423
3355.000000	7.346611
3354.000000	7.369048
3353.000000	7.387434
3352.000000	7.407762
3351.000000	7.435171
3350.000000	7.472836
3349.000000	7.520662
3348.000000	7.572822
3347.000000	7.620461
3346.000000	7.659730
3345.000000	7.694336
3344.000000	7.729212
3343.000000	7.765373
3342.000000	7.801939
3341.000000	7.838938
3340.000000	7.876377
3339.000000	7.914508
3338.000000	7.956394
3337.000000	8.005883
3336.000000	8.061560
3335.000000	8.117007
3334.000000	8.168331
3333.000000	8.217012
3332.000000	8.264457
3331.000000	8.308837
3330.000000	8.348811
3329.000000	8.385741
3328.000000	8.420658
3327.000000	8.453819
3326.000000	8.488427
3325.000000	8.529274
3324.000000	8.575833
3323.000000	8.621554
3322.000000	8.661735
3321.000000	8.697330
3320.000000	8.729561
3319.000000	8.756456
3318.000000	8.776862
3317.000000	8.792604
3316.000000	8.804010
3315.000000	8.807849
3314.000000	8.801863
3313.000000	8.786590
3312.000000	8.761279
3311.000000	8.723129
3310.000000	8.672698
3309.000000	8.615733
3308.000000	8.557529
3307.000000	8.500256
3306.000000	8.447026
3305.000000	8.402428
3304.000000	8.366524
3303.000000	8.333644
3302.000000	8.299739
3301.000000	8.266208
3300.000000	8.235003
3299.000000	8.205458
3298.000000	8.178652
3297.000000	8.159159
3296.000000	8.148972
3295.000000	8.144738
3294.000000	8.143310
3293.000000	8.145313
3292.000000	8.150311
3291.000000	8.153065
3290.000000	8.147834
3289.000000	8.132192
3288.000000	8.104293
3287.000000	8.061264
3286.000000	8.003049
3285.000000	7.932913
3284.000000	7.851900
3283.000000	7.756258
3282.000000	7.642192
3281.000000	7.509238
3280.000000	7.356003
3279.000000	7.178440
3278.000000	6.974927
3277.000000	6.748569
3276.000000	6.502942
3275.000000	6.238931
3274.000000	5.959287
3273.000000	5.672596
3272.000000	5.390350
3271.000000	5.124012
3270.000000	4.886285
3269.000000	4.690036
3268.000000	4.543254
3267.000000	4.449864
3266.000000	4.414132
3265.000000	4.440852
3264.000000	4.528247
3263.000000	4.664730
3262.000000	4.836412
3261.000000	5.029611
3260.000000	5.227235
3259.000000	5.409002
3258.000000	5.558256
3257.000000	5.664775
3256.000000	5.719670
3255.000000	5.712239
3254.000000	5.634172
3253.000000	5.483036
3252.000000	5.256828
3251.000000	4.954930
3250.000000	4.585079
3249.000000	4.165602
3248.000000	3.720676
3247.000000	3.274744
3246.000000	2.854732
3245.000000	2.489546
3244.000000	2.203175
3243.000000	2.010865
3242.000000	1.924278
3241.000000	1.950421
3240.000000	2.083024
3239.000000	2.302259
3238.000000	2.581771
3237.000000	2.897717
3236.000000	3.229079
3235.000000	3.558475
3234.000000	3.878320
3233.000000	4.187499
3232.000000	4.482403
3231.000000	4.754786
3230.000000	4.999508
3229.000000	5.218388
3228.000000	5.414761
3227.000000	5.589997
3226.000000	5.747045
3225.000000	5.891631
3224.000000	6.026096
3223.000000	6.148010
3222.000000	6.255886
3221.000000	6.351547
3220.000000	6.435514
3219.000000	6.504481
3218.000000	6.556325
3217.000000	6.591815
3216.000000	6.610352
3215.000000	6.609769
3214.000000	6.591242
3213.000000	6.560414
3212.000000	6.521394
3211.000000	6.474914
3210.000000	6.423766
3209.000000	6.373600
3208.000000	6.327454
3207.000000	6.284364
3206.000000	6.244681
3205.000000	6.211474
3204.000000	6.185401
3203.000000	6.163922
3202.000000	6.146656
3201.000000	6.135921
3200.000000	6.130639
3199.000000	6.125932
3198.000000	6.120052
3197.000000	6.115949
3196.000000	6.114946
3195.000000	6.114730
3194.000000	6.115119
3193.000000	6.119207
3192.000000	6.127095
3191.000000	6.134751
3190.000000	6.140856
3189.000000	6.149359
3188.000000	6.163519
3187.000000	6.183167
3186.000000	6.209417
3185.000000	6.245575
3184.000000	6.291551
3183.000000	6.342755
3182.000000	6.396097
3181.000000	6.451543
3180.000000	6.506293
3179.000000	6.553788
3178.000000	6.590369
3177.000000	6.617574
3176.000000	6.636733
3175.000000	6.647587
3174.000000	6.653714
3173.000000	6.663097
3172.000000	6.681242
3171.000000	6.709497
3170.000000	6.751351
3169.000000	6.814032
3168.000000	6.901931
3167.000000	7.013313
3166.000000	7.146283
3165.000000	7.301847
3164.000000	7.480289
3163.000000	7.681321
3162.000000	7.908182
3161.000000	8.167022
3160.000000	8.458534
3159.000000	8.775059
3158.000000	9.107081
3157.000000	9.445407
3156.000000	9.777966
3155.000000	10.091319
3154.000000	10.378432
3153.000000	10.639998
3152.000000	10.877042
3151.000000	11.087220
3150.000000	11.269252
3149.000000	11.425452
3148.000000	11.556645
3147.000000	11.661092
3146.000000	11.737880
3145.000000	11.786126
3144.000000	11.800228
3143.000000	11.768910
3142.000000	11.683948
3141.000000	11.544054
3140.000000	11.350269
3139.000000	11.104635
3138.000000	10.812281
3137.000000	10.482707
3136.000000	10.125599
3135.000000	9.750304
3134.000000	9.371445
3133.000000	9.007970
3132.000000	8.676131
3131.000000	8.386913
3130.000000	8.149984
3129.000000	7.972363
3128.000000	7.852670
3127.000000	7.781824
3126.000000	7.751064
3125.000000	7.754726
3124.000000	7.783798
3123.000000	7.827359
3122.000000	7.881214
3121.000000	7.948951
3120.000000	8.033360
3119.000000	8.131267
3118.000000	8.239481
3117.000000	8.357682
3116.000000	8.483005
3115.000000	8.607094
3114.000000	8.720356
3113.000000	8.814110
3112.000000	8.877864
3111.000000	8.901743
3110.000000	8.882396
3109.000000	8.822873
3108.000000	8.724233
3107.000000	8.583315
3106.000000	8.400364
3105.000000	8.181817
3104.000000	7.936668
3103.000000	7.675060
3102.000000	7.412595
3101.000000	7.169327
3100.000000	6.961628
3099.000000	6.798739
3098.000000	6.687257
3097.000000	6.633176
3096.000000	6.636371
3095.000000	6.691078
3094.000000	6.791880
3093.000000	6.935578
3092.000000	7.117739
3091.000000	7.331501
3090.000000	7.572728
3089.000000	7.838279
3088.000000	8.119848
3087.000000	8.406673
3086.000000	8.693942
3085.000000	8.983769
3084.000000	9.275985
3083.000000	9.564725
3082.000000	9.845240
3081.000000	10.117600
3080.000000	10.382927
3079.000000	10.641555
3078.000000	10.895888
3077.000000	11.148704
3076.000000	11.397792
3075.000000	11.637546
3074.000000	11.866742
3073.000000	12.089261
3072.000000	12.306469
3071.000000	12.515517
3070.000000	12.716039
3069.000000	12.912954
3068.000000	13.111078
3067.000000	13.311400
3066.000000	13.513584
3065.000000	13.716947
3064.000000	13.918287
3063.000000	14.113750
3062.000000	14.303341
3061.000000	14.489497
3060.000000	14.671466
3059.000000	14.846102
3058.000000	15.014104
3057.000000	15.179680
3056.000000	15.344007
3055.000000	15.504076
3054.000000	15.658344
3053.000000	15.808826
3052.000000	15.956938
3051.000000	16.102301
3050.000000	16.245349
3049.000000	16.386220
3048.000000	16.521529
3047.000000	16.646972
3046.000000	16.763442
3045.000000	16.875797
3044.000000	16.986106
3043.000000	17.093554
3042.000000	17.199970
3041.000000	17.309391
3040.000000	17.421411
3039.000000	17.530516
3038.000000	17.633361
3037.000000	17.732088
3036.000000	17.830637
3035.000000	17.932525
3034.000000	18.041952
3033.000000	18.161539
3032.000000	18.287925
3031.000000	18.414344
3030.000000	18.537805
3029.000000	18.659447
3028.000000	18.778963
3027.000000	18.894735
3026.000000	19.009567
3025.000000	19.130042
3024.000000	19.259053
3023.000000	19.393721
3022.000000	19.531107
3021.000000	19.671167
3020.000000	19.813544
3019.000000	19.956472
3018.000000	20.099653
3017.000000	20.244073
3016.000000	20.388744
3015.000000	20.531637
3014.000000	20.674170
3013.000000	20.820532
3012.000000	20.972200
3011.000000	21.126598
3010.000000	21.280751
3009.000000	21.432503
3008.000000	21.578466
3007.000000	21.715335
3006.000000	21.843112
3005.000000	21.963925
3004.000000	22.077049
3003.000000	22.177351
3002.000000	22.257449
3001.000000	22.303379
3000.000000	22.285310
2999.000000	22.152867
2998.000000	21.850340
2997.000000	21.356766
2996.000000	20.733228
2995.000000	20.134895
2994.000000	19.750832
2993.000000	19.701289
2992.000000	19.970608
2991.000000	20.435416
2990.000000	20.951476
2989.000000	21.421164
2988.000000	21.807079
2987.000000	22.112594
2986.000000	22.361359
2985.000000	22.578448
2984.000000	22.778182
2983.000000	22.962766
2982.000000	23.129052
2981.000000	23.268334
2980.000000	23.358837
2979.000000	23.366041
2978.000000	23.258543
2977.000000	23.033334
2976.000000	22.735187
2975.000000	22.457028
2974.000000	22.306644
2973.000000	22.352345
2972.000000	22.587497
2971.000000	22.944949
2970.000000	23.343615
2969.000000	23.722958
2968.000000	24.050086
2967.000000	24.314312
2966.000000	24.521690
2965.000000	24.684390
2964.000000	24.809993
2963.000000	24.897292
2962.000000	24.938525
2961.000000	24.914005
2960.000000	24.777875
2959.000000	24.454287
2958.000000	23.858097
2957.000000	22.950031
2956.000000	21.804542
2955.000000	20.640761
2954.000000	19.754099
2953.000000	19.363574
2952.000000	19.484953
2951.000000	19.937036
2950.000000	20.470319
2949.000000	20.899995
2948.000000	21.165150
2947.000000	21.310807
2946.000000	21.433586
2945.000000	21.619571
2944.000000	21.901877
2943.000000	22.260871
2942.000000	22.654719
2941.000000	23.048068
2940.000000	23.420663
2939.000000	23.767233
2938.000000	24.096417
2937.000000	24.422247
2936.000000	24.751713
2935.000000	25.082127
2934.000000	25.408635
2933.000000	25.727322
2932.000000	26.032212
2931.000000	26.318035
2930.000000	26.586369
2929.000000	26.842511
2928.000000	27.086332
2927.000000	27.313605
2926.000000	27.525514
2925.000000	27.728352
2924.000000	27.924175
2923.000000	28.109345
2922.000000	28.282308
2921.000000	28.444908
2920.000000	28.596059
2919.000000	28.732203
2918.000000	28.853818
2917.000000	28.964694
2916.000000	29.065505
2915.000000	29.154989
2914.000000	29.236600
2913.000000	29.316224
2912.000000	29.393878
2911.000000	29.464578
2910.000000	29.526919
2909.000000	29.583950
2908.000000	29.635984
2907.000000	29.680190
2906.000000	29.717443
2905.000000	29.753202
2904.000000	29.790415
2903.000000	29.828708
2902.000000	29.869568
2901.000000	29.915603
2900.000000	29.965390
2899.000000	30.013285
2898.000000	30.055760
2897.000000	30.091279
2896.000000	30.115043
2895.000000	30.120649
2894.000000	30.108052
2893.000000	30.084348
2892.000000	30.056487
2891.000000	30.028631
2890.000000	30.005771
2889.000000	29.993344
2888.000000	29.992301
2887.000000	30.000264
2886.000000	30.017825
2885.000000	30.048212
2884.000000	30.090941
2883.000000	30.141414
2882.000000	30.196755
2881.000000	30.256374
2880.000000	30.316866
2879.000000	30.371474
2878.000000	30.414557
2877.000000	30.441278
2876.000000	30.444439
2875.000000	30.419261
2874.000000	30.371814
2873.000000	30.316133
2872.000000	30.261389
2871.000000	30.207283
2870.000000	30.153327
2869.000000	30.108447
2868.000000	30.090750
2867.000000	30.122012
2866.000000	30.220838
2865.000000	30.392528
2864.000000	30.623022
2863.000000	30.886942
2862.000000	31.162202
2861.000000	31.434354
2860.000000	31.691563
2859.000000	31.923872
2858.000000	32.128429
2857.000000	32.308944
2856.000000	32.468465
2855.000000	32.608125
2854.000000	32.732019
2853.000000	32.847234
2852.000000	32.958779
2851.000000	33.069786
2850.000000	33.186039
2849.000000	33.314261
2848.000000	33.455189
2847.000000	33.602983
2846.000000	33.751846
2845.000000	33.898583
2844.000000	34.039451
2843.000000	34.170074
2842.000000	34.289366
2841.000000	34.399827
2840.000000	34.504125
2839.000000	34.604581
2838.000000	34.704558
2837.000000	34.806173
2836.000000	34.907446
2835.000000	35.005586
2834.000000	35.101918
2833.000000	35.199595
2832.000000	35.298079
2831.000000	35.394487
2830.000000	35.488865
2829.000000	35.583324
2828.000000	35.677127
2827.000000	35.767532
2826.000000	35.854553
2825.000000	35.940180
2824.000000	36.023894
2823.000000	36.103564
2822.000000	36.179920
2821.000000	36.255454
2820.000000	36.329718
2819.000000	36.400260
2818.000000	36.467345
2817.000000	36.533272
2816.000000	36.597889
2815.000000	36.659284
2814.000000	36.718091
2813.000000	36.776756
2812.000000	36.835458
2811.000000	36.893071
2810.000000	36.951064
2809.000000	37.011784
2808.000000	37.073772
2807.000000	37.133282
2806.000000	37.189591
2805.000000	37.244547
2804.000000	37.297865
2803.000000	37.347548
2802.000000	37.394295
2801.000000	37.441229
2800.000000	37.490036
2799.000000	37.541208
2798.000000	37.596838
2797.000000	37.658667
2796.000000	37.724311
2795.000000	37.789728
2794.000000	37.854364
2793.000000	37.919921
2792.000000	37.985700
2791.000000	38.049752
2790.000000	38.113395
2789.000000	38.179736
2788.000000	38.248506
2787.000000	38.316872
2786.000000	38.384337
2785.000000	38.452521
2784.000000	38.521120
2783.000000	38.588533
2782.000000	38.655576
2781.000000	38.724118
2780.000000	38.792781
2779.000000	38.858175
2778.000000	38.919627
2777.000000	38.978917
2776.000000	39.036557
2775.000000	39.092164
2774.000000	39.147122
2773.000000	39.202737
2772.000000	39.257014
2771.000000	39.307442
2770.000000	39.355512
2769.000000	39.404326
2768.000000	39.453302
2767.000000	39.499381
2766.000000	39.541970
2765.000000	39.582135
2764.000000	39.618356
2763.000000	39.647873
2762.000000	39.671109
2761.000000	39.690425
2760.000000	39.705670
2759.000000	39.715301
2758.000000	39.720930
2757.000000	39.726301
2756.000000	39.732737
2755.000000	39.739850
2754.000000	39.749522
2753.000000	39.764789
2752.000000	39.785844
2751.000000	39.811233
2750.000000	39.842083
2749.000000	39.881060
2748.000000	39.927952
2747.000000	39.980284
2746.000000	40.036944
2745.000000	40.097087
2744.000000	40.157090
2743.000000	40.212637
2742.000000	40.262466
2741.000000	40.306314
2740.000000	40.340970
2739.000000	40.362832
2738.000000	40.373154
2737.000000	40.376835
2736.000000	40.377961
2735.000000	40.381194
2734.000000	40.395488
2733.000000	40.430311
2732.000000	40.488100
2731.000000	40.563775
2730.000000	40.650326
2729.000000	40.741483
2728.000000	40.830895
2727.000000	40.914171
2726.000000	40.991670
2725.000000	41.065491
2724.000000	41.134913
2723.000000	41.198103
2722.000000	41.255906
2721.000000	41.309603
2720.000000	41.357018
2719.000000	41.395407
2718.000000	41.427065
2717.000000	41.457984
2716.000000	41.492241
2715.000000	41.531649
2714.000000	41.578536
2713.000000	41.633737
2712.000000	41.693114
2711.000000	41.750658
2710.000000	41.804076
2709.000000	41.853468
2708.000000	41.896669
2707.000000	41.930795
2706.000000	41.957052
2705.000000	41.979440
2704.000000	41.999587
2703.000000	42.016973
2702.000000	42.032798
2701.000000	42.048889
2700.000000	42.064212
2699.000000	42.076898
2698.000000	42.088566
2697.000000	42.102576
2696.000000	42.119364
2695.000000	42.137903
2694.000000	42.160598
2693.000000	42.192240
2692.000000	42.234818
2691.000000	42.287292
2690.000000	42.348611
2689.000000	42.416528
2688.000000	42.485010
2687.000000	42.547391
2686.000000	42.601714
2685.000000	42.649630
2684.000000	42.691719
2683.000000	42.727895
2682.000000	42.760410
2681.000000	42.791467
2680.000000	42.819131
2679.000000	42.839910
2678.000000	42.854209
2677.000000	42.865677
2676.000000	42.876953
2675.000000	42.890407
2674.000000	42.911402
2673.000000	42.945817
2672.000000	42.994720
2671.000000	43.055357
2670.000000	43.125878
2669.000000	43.204738
2668.000000	43.287249
2667.000000	43.367143
2666.000000	43.441093
2665.000000	43.508400
2664.000000	43.567869
2663.000000	43.619148
2662.000000	43.665566
2661.000000	43.711361
2660.000000	43.757176
2659.000000	43.801836
2658.000000	43.846557
2657.000000	43.893511
2656.000000	43.942010
2655.000000	43.990202
2654.000000	44.038918
2653.000000	44.089378
2652.000000	44.138746
2651.000000	44.182106
2650.000000	44.217476
2649.000000	44.245212
2648.000000	44.264194
2647.000000	44.273374
2646.000000	44.276114
2645.000000	44.278854
2644.000000	44.286546
2643.000000	44.302521
2642.000000	44.330446
2641.000000	44.371919
2640.000000	44.423367
2639.000000	44.479155
2638.000000	44.536704
2637.000000	44.595131
2636.000000	44.651139
2635.000000	44.700785
2634.000000	44.743515
2633.000000	44.780185
2632.000000	44.808709
2631.000000	44.826228
2630.000000	44.834437
2629.000000	44.839299
2628.000000	44.846885
2627.000000	44.862616
2626.000000	44.892080
2625.000000	44.937526
2624.000000	44.994479
2623.000000	45.055837
2622.000000	45.118154
2621.000000	45.180582
2620.000000	45.240356
2619.000000	45.293874
2618.000000	45.340645
2617.000000	45.381965
2616.000000	45.417180
2615.000000	45.445178
2614.000000	45.468137
2613.000000	45.489518
2612.000000	45.509435
2611.000000	45.526129
2610.000000	45.540167
2609.000000	45.553409
2608.000000	45.565257
2607.000000	45.573714
2606.000000	45.578960
2605.000000	45.581975
2604.000000	45.581341
2603.000000	45.575467
2602.000000	45.566567
2601.000000	45.558865
2600.000000	45.554385
2599.000000	45.553987
2598.000000	45.560579
2597.000000	45.577081
2596.000000	45.602390
2595.000000	45.633146
2594.000000	45.667957
2593.000000	45.706171
2592.000000	45.744848
2591.000000	45.780863
2590.000000	45.814626
2589.000000	45.848087
2588.000000	45.880706
2587.000000	45.911204
2586.000000	45.941146
2585.000000	45.972714
2584.000000	46.004629
2583.000000	46.034283
2582.000000	46.062305
2581.000000	46.091375
2580.000000	46.122409
2579.000000	46.155652
2578.000000	46.193354
2577.000000	46.237255
2576.000000	46.284965
2575.000000	46.332679
2574.000000	46.380007
2573.000000	46.428480
2572.000000	46.477556
2571.000000	46.525791
2570.000000	46.573924
2569.000000	46.622852
2568.000000	46.670343
2567.000000	46.713576
2566.000000	46.753191
2565.000000	46.791316
2564.000000	46.827610
2563.000000	46.861072
2562.000000	46.893431
2561.000000	46.926859
2560.000000	46.960335
2559.000000	46.992075
2558.000000	47.023622
2557.000000	47.057736
2556.000000	47.094385
2555.000000	47.132575
2554.000000	47.173910
2553.000000	47.220101
2552.000000	47.269019
2551.000000	47.317343
2550.000000	47.365199
2549.000000	47.414535
2548.000000	47.464885
2547.000000	47.514653
2546.000000	47.564389
2545.000000	47.614649
2544.000000	47.662604
2543.000000	47.704875
2542.000000	47.741969
2541.000000	47.775970
2540.000000	47.805959
2539.000000	47.829272
2538.000000	47.845636
2537.000000	47.856327
2536.000000	47.861005
2535.000000	47.859727
2534.000000	47.856049
2533.000000	47.854740
2532.000000	47.858065
2531.000000	47.867497
2530.000000	47.886456
2529.000000	47.917350
2528.000000	47.957702
2527.000000	48.002825
2526.000000	48.050625
2525.000000	48.100054
2524.000000	48.147759
2523.000000	48.190323
2522.000000	48.227877
2521.000000	48.261749
2520.000000	48.290698
2519.000000	48.312891
2518.000000	48.329173
2517.000000	48.340741
2516.000000	48.345457
2515.000000	48.340868
2514.000000	48.328373
2513.000000	48.310650
2512.000000	48.287739
2511.000000	48.259265
2510.000000	48.228653
2509.000000	48.200822
2508.000000	48.177547
2507.000000	48.158868
2506.000000	48.146574
2505.000000	48.142059
2504.000000	48.142977
2503.000000	48.146531
2502.000000	48.153928
2501.000000	48.168086
2500.000000	48.188796
2499.000000	48.214119
2498.000000	48.244518
2497.000000	48.280753
2496.000000	48.320188
2495.000000	48.359150
2494.000000	48.397269
2493.000000	48.435799
2492.000000	48.473627
2491.000000	48.509026
2490.000000	48.543086
2489.000000	48.577434
2488.000000	48.610636
2487.000000	48.640891
2486.000000	48.670168
2485.000000	48.701923
2484.000000	48.736774
2483.000000	48.774355
2482.000000	48.816778
2481.000000	48.866053
2480.000000	48.920036
2479.000000	48.974871
2478.000000	49.029374
2477.000000	49.083025
2476.000000	49.132287
2475.000000	49.173474
2474.000000	49.207767
2473.000000	49.239615
2472.000000	49.272222
2471.000000	49.307872
2470.000000	49.349862
2469.000000	49.399463
2468.000000	49.452530
2467.000000	49.503013
2466.000000	49.548089
2465.000000	49.586594
2464.000000	49.615409
2463.000000	49.631412
2462.000000	49.635282
2461.000000	49.629753
2460.000000	49.615908
2459.000000	49.595318
2458.000000	49.572851
2457.000000	49.553724
2456.000000	49.539536
2455.000000	49.530593
2454.000000	49.529643
2453.000000	49.539414
2452.000000	49.558935
2451.000000	49.585952
2450.000000	49.621043
2449.000000	49.664835
2448.000000	49.714134
2447.000000	49.764594
2446.000000	49.814841
2445.000000	49.864541
2444.000000	49.910923
2443.000000	49.951641
2442.000000	49.988538
2441.000000	50.024532
2440.000000	50.059189
2439.000000	50.091323
2438.000000	50.123149
2437.000000	50.157488
2436.000000	50.193290
2435.000000	50.228097
2434.000000	50.262539
2433.000000	50.297974
2432.000000	50.331704
2431.000000	50.359011
2430.000000	50.377712
2429.000000	50.387139
2428.000000	50.385222
2427.000000	50.370985
2426.000000	50.348499
2425.000000	50.323772
2424.000000	50.299818
2423.000000	50.277969
2422.000000	50.261360
2421.000000	50.252796
2420.000000	50.251086
2419.000000	50.253765
2418.000000	50.261373
2417.000000	50.275511
2416.000000	50.294642
2415.000000	50.316300
2414.000000	50.340983
2413.000000	50.369597
2412.000000	50.399413
2411.000000	50.426562
2410.000000	50.450669
2409.000000	50.472990
2408.000000	50.492440
2407.000000	50.507762
2406.000000	50.521425
2405.000000	50.536864
2404.000000	50.553574
2403.000000	50.569051
2402.000000	50.583155
2401.000000	50.596352
2400.000000	50.605557
2399.000000	50.605946
2398.000000	50.595608
2397.000000	50.573860
2396.000000	50.537550
2395.000000	50.483228
2394.000000	50.410928
2393.000000	50.322803
2392.000000	50.218738
2391.000000	50.098372
2390.000000	49.965328
2389.000000	49.824547
2388.000000	49.678167
2387.000000	49.526782
2386.000000	49.374119
2385.000000	49.226026
2384.000000	49.085755
2383.000000	48.955685
2382.000000	48.841002
2381.000000	48.747466
2380.000000	48.675889
2379.000000	48.622530
2378.000000	48.584440
2377.000000	48.559690
2376.000000	48.544859
2375.000000	48.537477
2374.000000	48.541200
2373.000000	48.561548
2372.000000	48.596982
2371.000000	48.640171
2370.000000	48.685730
2369.000000	48.730788
2368.000000	48.769169
2367.000000	48.795085
2366.000000	48.809902
2365.000000	48.815683
2364.000000	48.810764
2363.000000	48.791261
2362.000000	48.759269
2361.000000	48.728080
2360.000000	48.707316
2359.000000	48.700919
2358.000000	48.710325
2357.000000	48.729476
2356.000000	48.750543
2355.000000	48.767962
2354.000000	48.784550
2353.000000	48.801672
2352.000000	48.819002
2351.000000	48.839163
2350.000000	48.861437
2349.000000	48.883881
2348.000000	48.905739
2347.000000	48.928216
2346.000000	48.959861
2345.000000	49.010584
2344.000000	49.082031
2343.000000	49.150461
2342.000000	49.187460
2341.000000	49.181325
2340.000000	49.133379
2339.000000	49.058974
2338.000000	48.984227
2337.000000	48.935597
2336.000000	48.925452
2335.000000	48.956875
2334.000000	49.026636
2333.000000	49.125157
2332.000000	49.231515
2331.000000	49.337212
2330.000000	49.441184
2329.000000	49.546816
2328.000000	49.646761
2327.000000	49.733729
2326.000000	49.810383
2325.000000	49.880639
2324.000000	49.946471
2323.000000	50.005809
2322.000000	50.058855
2321.000000	50.105345
2320.000000	50.140746
2319.000000	50.163872
2318.000000	50.173437
2317.000000	50.167668
2316.000000	50.136840
2315.000000	50.077519
2314.000000	49.992347
2313.000000	49.888735
2312.000000	49.767682
2311.000000	49.631068
2310.000000	49.481362
2309.000000	49.322370
2308.000000	49.153613
2307.000000	48.978749
2306.000000	48.806302
2305.000000	48.647178
2304.000000	48.509047
2303.000000	48.403902
2302.000000	48.348108
2301.000000	48.355891
2300.000000	48.428062
2299.000000	48.555410
2298.000000	48.723508
2297.000000	48.913867
2296.000000	49.103396
2295.000000	49.273563
2294.000000	49.416246
2293.000000	49.530310
2292.000000	49.615452
2291.000000	49.673556
2290.000000	49.709432
2289.000000	49.725234
2288.000000	49.716386
2287.000000	49.676647
2286.000000	49.603484
2285.000000	49.494334
2284.000000	49.345726
2283.000000	49.159961
2282.000000	48.953149
2281.000000	48.750802
2280.000000	48.578180
2279.000000	48.454708
2278.000000	48.390860
2277.000000	48.384696
2276.000000	48.424043
2275.000000	48.500257
2274.000000	48.615080
2273.000000	48.773407
2272.000000	48.971862
2271.000000	49.199177
2270.000000	49.442799
2269.000000	49.689298
2268.000000	49.925286
2267.000000	50.143087
2266.000000	50.343135
2265.000000	50.527039
2264.000000	50.692446
2263.000000	50.838025
2262.000000	50.967810
2261.000000	51.086062
2260.000000	51.192419
2259.000000	51.286629
2258.000000	51.373380
2257.000000	51.458622
2256.000000	51.545504
2255.000000	51.637979
2254.000000	51.743269
2253.000000	51.865995
2252.000000	52.003408
2251.000000	52.150097
2250.000000	52.302878
2249.000000	52.457140
2248.000000	52.605580
2247.000000	52.743698
2246.000000	52.873841
2245.000000	52.999499
2244.000000	53.120256
2243.000000	53.235924
2242.000000	53.349889
2241.000000	53.464145
2240.000000	53.575268
2239.000000	53.679581
2238.000000	53.777749
2237.000000	53.870567
2236.000000	53.955299
2235.000000	54.029956
2234.000000	54.096798
2233.000000	54.157710
2232.000000	54.210512
2231.000000	54.253657
2230.000000	54.289806
2229.000000	54.321058
2228.000000	54.345209
2227.000000	54.360063
2226.000000	54.367350
2225.000000	54.368832
2224.000000	54.363495
2223.000000	54.352221
2222.000000	54.340669
2221.000000	54.334110
2220.000000	54.333325
2219.000000	54.338635
2218.000000	54.352594
2217.000000	54.375098
2216.000000	54.400319
2215.000000	54.422146
2214.000000	54.437944
2213.000000	54.444334
2212.000000	54.434811
2211.000000	54.406166
2210.000000	54.363373
2209.000000	54.315352
2208.000000	54.270430
2207.000000	54.237655
2206.000000	54.225449
2205.000000	54.233376
2204.000000	54.249425
2203.000000	54.259432
2202.000000	54.256001
2201.000000	54.237900
2200.000000	54.208985
2199.000000	54.183262
2198.000000	54.183654
2197.000000	54.228433
2196.000000	54.319821
2195.000000	54.447640
2194.000000	54.598081
2193.000000	54.755623
2192.000000	54.904438
2191.000000	55.034970
2190.000000	55.146552
2189.000000	55.240265
2188.000000	55.313778
2187.000000	55.366591
2186.000000	55.404159
2185.000000	55.432960
2184.000000	55.455620
2183.000000	55.474166
2182.000000	55.492370
2181.000000	55.511224
2180.000000	55.527207
2179.000000	55.538625
2178.000000	55.548903
2177.000000	55.560249
2176.000000	55.569761
2175.000000	55.575247
2174.000000	55.579476
2173.000000	55.585186
2172.000000	55.591542
2171.000000	55.599187
2170.000000	55.612984
2169.000000	55.635793
2168.000000	55.664627
2167.000000	55.696655
2166.000000	55.733387
2165.000000	55.775346
2164.000000	55.818634
2163.000000	55.861118
2162.000000	55.906445
2161.000000	55.957928
2160.000000	56.013797
2159.000000	56.072085
2158.000000	56.134361
2157.000000	56.200726
2156.000000	56.266811
2155.000000	56.329548
2154.000000	56.390552
2153.000000	56.450126
2152.000000	56.503950
2151.000000	56.549240
2150.000000	56.588627
2149.000000	56.624193
2148.000000	56.653198
2147.000000	56.673376
2146.000000	56.686285
2145.000000	56.691927
2144.000000	56.686571
2143.000000	56.669666
2142.000000	56.646865
2141.000000	56.622947
2140.000000	56.596668
2139.000000	56.565532
2138.000000	56.529693
2137.000000	56.488562
2136.000000	56.440817
2135.000000	56.392434
2134.000000	56.358277
2133.000000	56.351692
2132.000000	56.376789
2131.000000	56.432544
2130.000000	56.516911
2129.000000	56.622131
2128.000000	56.733209
2127.000000	56.837001
2126.000000	56.928471
2125.000000	57.005018
2124.000000	57.061981
2123.000000	57.097289
2122.000000	57.113964
2121.000000	57.114107
2120.000000	57.096399
2119.000000	57.063008
2118.000000	57.022819
2117.000000	56.983908
2116.000000	56.948236
2115.000000	56.916710
2114.000000	56.892324
2113.000000	56.874870
2112.000000	56.859088
2111.000000	56.842189
2110.000000	56.827333
2109.000000	56.816349
2108.000000	56.805469
2107.000000	56.792188
2106.000000	56.780288
2105.000000	56.774934
2104.000000	56.778809
2103.000000	56.796151
2102.000000	56.833688
2101.000000	56.892709
2100.000000	56.966598
2099.000000	57.048433
2098.000000	57.135395
2097.000000	57.222811
2096.000000	57.301515
2095.000000	57.365993
2094.000000	57.416996
2093.000000	57.452814
2092.000000	57.466055
2091.000000	57.453633
2090.000000	57.422837
2089.000000	57.384126
2088.000000	57.345776
2087.000000	57.319596
2086.000000	57.322078
2085.000000	57.363828
2084.000000	57.443253
2083.000000	57.553316
2082.000000	57.687288
2081.000000	57.834310
2080.000000	57.979257
2079.000000	58.112988
2078.000000	58.236570
2077.000000	58.351705
2076.000000	58.455157
2075.000000	58.547097
2074.000000	58.632997
2073.000000	58.714682
2072.000000	58.787123
2071.000000	58.846806
2070.000000	58.897734
2069.000000	58.943601
2068.000000	58.982307
2067.000000	59.012912
2066.000000	59.040981
2065.000000	59.072609
2064.000000	59.108296
2063.000000	59.147126
2062.000000	59.190123
2061.000000	59.235592
2060.000000	59.278347
2059.000000	59.317200
2058.000000	59.356237
2057.000000	59.396285
2056.000000	59.433271
2055.000000	59.467886
2054.000000	59.507422
2053.000000	59.555879
2052.000000	59.610064
2051.000000	59.666564
2050.000000	59.726087
2049.000000	59.788005
2048.000000	59.846845
2047.000000	59.898999
2046.000000	59.947848
2045.000000	59.996459
2044.000000	60.041950
2043.000000	60.082287
2042.000000	60.122035
2041.000000	60.165348
2040.000000	60.209228
2039.000000	60.249465
2038.000000	60.286450
2037.000000	60.320771
2036.000000	60.349933
2035.000000	60.374743
2034.000000	60.402148
2033.000000	60.436561
2032.000000	60.475787
2031.000000	60.520005
2030.000000	60.574555
2029.000000	60.641006
2028.000000	60.710951
2027.000000	60.775916
2026.000000	60.834486
2025.000000	60.886050
2024.000000	60.926209
2023.000000	60.950973
2022.000000	60.963819
2021.000000	60.969421
2020.000000	60.966189
2019.000000	60.952526
2018.000000	60.936182
2017.000000	60.929587
2016.000000	60.938458
2015.000000	60.962045
2014.000000	60.998726
2013.000000	61.044434
2012.000000	61.090480
2011.000000	61.131359
2010.000000	61.169602
2009.000000	61.208126
2008.000000	61.243773
2007.000000	61.276051
2006.000000	61.312212
2005.000000	61.357596
2004.000000	61.409524
2003.000000	61.462030
2002.000000	61.516247
2001.000000	61.571111
2000.000000	61.620725
1999.000000	61.664454
1998.000000	61.705976
1997.000000	61.749653
1996.000000	61.797379
1995.000000	61.846747
1994.000000	61.889617
1993.000000	61.917836
1992.000000	61.932574
1991.000000	61.942947
1990.000000	61.952925
1989.000000	61.956207
1988.000000	61.945543
1987.000000	61.922894
1986.000000	61.897422
1985.000000	61.875321
1984.000000	61.859821
1983.000000	61.856341
1982.000000	61.871765
1981.000000	61.903079
1980.000000	61.941042
1979.000000	61.979335
1978.000000	62.011002
1977.000000	62.030648
1976.000000	62.041789
1975.000000	62.057891
1974.000000	62.090020
1973.000000	62.141231
1972.000000	62.212922
1971.000000	62.305424
1970.000000	62.409371
1969.000000	62.507624
1968.000000	62.591496
1967.000000	62.667901
1966.000000	62.744721
1965.000000	62.818156
1964.000000	62.879057
1963.000000	62.922330
1962.000000	62.946767
1961.000000	62.954380
1960.000000	62.951971
1959.000000	62.945066
1958.000000	62.928348
1957.000000	62.889450
1956.000000	62.824692
1955.000000	62.745054
1954.000000	62.661458
1953.000000	62.578678
1952.000000	62.499891
1951.000000	62.432963
1950.000000	62.390181
1949.000000	62.373063
1948.000000	62.377040
1947.000000	62.408234
1946.000000	62.474570
1945.000000	62.566777
1944.000000	62.663554
1943.000000	62.759649
1942.000000	62.871356
1941.000000	63.006372
1940.000000	63.154918
1939.000000	63.306546
1938.000000	63.454617
1937.000000	63.594646
1936.000000	63.726201
1935.000000	63.851315
1934.000000	63.965977
1933.000000	64.063861
1932.000000	64.138795
1931.000000	64.191201
1930.000000	64.230909
1929.000000	64.251915
1928.000000	64.248725
1927.000000	64.228736
1926.000000	64.206221
1925.000000	64.180518
1924.000000	64.132005
1923.000000	64.074063
1922.000000	64.049571
1921.000000	64.068100
1920.000000	64.092240
1919.000000	64.083214
1918.000000	64.050096
1917.000000	64.026971
1916.000000	64.015808
1915.000000	64.005435
1914.000000	63.996806
1913.000000	63.990406
1912.000000	63.976771
1911.000000	63.955499
1910.000000	63.946270
1909.000000	63.958218
1908.000000	63.988484
1907.000000	64.034137
1906.000000	64.102240
1905.000000	64.189530
1904.000000	64.263782
1903.000000	64.311903
1902.000000	64.350080
1901.000000	64.377285
1900.000000	64.378565
1899.000000	64.359768
1898.000000	64.350175
1897.000000	64.364862
1896.000000	64.386617
1895.000000	64.414946
1894.000000	64.479628
1893.000000	64.586717
1892.000000	64.698476
1891.000000	64.782793
1890.000000	64.852432
1889.000000	64.935904
1888.000000	65.029207
1887.000000	65.119185
1886.000000	65.211222
1885.000000	65.303538
1884.000000	65.379362
1883.000000	65.442169
1882.000000	65.516505
1881.000000	65.600595
1880.000000	65.672361
1879.000000	65.728608
1878.000000	65.785382
1877.000000	65.850441
1876.000000	65.904934
1875.000000	65.935694
1874.000000	65.965683
1873.000000	66.018798
1872.000000	66.081175
1871.000000	66.120141
1870.000000	66.120269
1869.000000	66.102703
1868.000000	66.093497
1867.000000	66.095634
1866.000000	66.108695
1865.000000	66.119324
1864.000000	66.094542
1863.000000	66.025936
1862.000000	65.949884
1861.000000	65.898871
1860.000000	65.872551
1859.000000	65.875082
1858.000000	65.934572
1857.000000	66.055782
1856.000000	66.199748
1855.000000	66.332546
1854.000000	66.462825
1853.000000	66.589138
1852.000000	66.697432
1851.000000	66.792947
1850.000000	66.883899
1849.000000	66.974914
1848.000000	67.069165
1847.000000	67.179326
1846.000000	67.298059
1845.000000	67.378968
1844.000000	67.411133
1843.000000	67.436666
1842.000000	67.472819
1841.000000	67.497170
1840.000000	67.494601
1839.000000	67.468518
1838.000000	67.449585
1837.000000	67.463064
1836.000000	67.496486
1835.000000	67.544582
1834.000000	67.624103
1833.000000	67.732310
1832.000000	67.841206
1831.000000	67.908211
1830.000000	67.937011
1829.000000	67.986395
1828.000000	68.071033
1827.000000	68.155243
1826.000000	68.199481
1825.000000	68.208652
1824.000000	68.223763
1823.000000	68.265675
1822.000000	68.334540
1821.000000	68.428976
1820.000000	68.540387
1819.000000	68.646695
1818.000000	68.749070
1817.000000	68.867076
1816.000000	68.985900
1815.000000	69.081829
1814.000000	69.154028
1813.000000	69.218763
1812.000000	69.273445
1811.000000	69.300423
1810.000000	69.331119
1809.000000	69.400358
1808.000000	69.479702
1807.000000	69.535400
1806.000000	69.585386
1805.000000	69.654402
1804.000000	69.713253
1803.000000	69.734707
1802.000000	69.733544
1801.000000	69.749773
1800.000000	69.787596
1799.000000	69.813657
1798.000000	69.831018
1797.000000	69.856549
1796.000000	69.878769
1795.000000	69.893344
1794.000000	69.898612
1793.000000	69.888142
1792.000000	69.875188
1791.000000	69.873079
1790.000000	69.889113
1789.000000	69.926631
1788.000000	69.970335
1787.000000	70.003428
1786.000000	70.039955
1785.000000	70.101628
1784.000000	70.167003
1783.000000	70.222433
1782.000000	70.258058
1781.000000	70.271632
1780.000000	70.284594
1779.000000	70.304845
1778.000000	70.333168
1777.000000	70.353366
1776.000000	70.370635
1775.000000	70.420672
1774.000000	70.496723
1773.000000	70.567639
1772.000000	70.683093
1771.000000	70.845980
1770.000000	70.972996
1769.000000	71.048954
1768.000000	71.103991
1767.000000	71.151849
1766.000000	71.194125
1765.000000	71.247743
1764.000000	71.317316
1763.000000	71.362807
1762.000000	71.352187
1761.000000	71.335187
1760.000000	71.344597
1759.000000	71.355338
1758.000000	71.335163
1757.000000	71.261849
1756.000000	71.187008
1755.000000	71.140402
1754.000000	71.089487
1753.000000	71.018575
1752.000000	70.953076
1751.000000	70.922460
1750.000000	70.921628
1749.000000	70.910250
1748.000000	70.878109
1747.000000	70.856662
1746.000000	70.821449
1745.000000	70.744674
1744.000000	70.654795
1743.000000	70.581148
1742.000000	70.517754
1741.000000	70.441105
1740.000000	70.342554
1739.000000	70.255773
1738.000000	70.211924
1737.000000	70.216730
1736.000000	70.250727
1735.000000	70.210244
1734.000000	70.156416
1733.000000	70.223411
1732.000000	70.304123
1731.000000	70.303465
1730.000000	70.258436
1729.000000	70.197717
1728.000000	70.143274
1727.000000	70.111710
1726.000000	70.076323
1725.000000	70.019563
1724.000000	69.942205
1723.000000	69.862835
1722.000000	69.830255
1721.000000	69.845214
1720.000000	69.829132
1719.000000	69.664181
1718.000000	69.421762
1717.000000	69.350495
1716.000000	69.417162
1715.000000	69.429532
1714.000000	69.385583
1713.000000	69.340589
1712.000000	69.269236
1711.000000	69.161181
1710.000000	69.069832
1709.000000	69.019834
1708.000000	68.971138
1707.000000	68.863242
1706.000000	68.711789
1705.000000	68.597647
1704.000000	68.538261
1703.000000	68.541826
1702.000000	68.607776
1701.000000	68.531725
1700.000000	68.256549
1699.000000	67.922958
1698.000000	67.622082
1697.000000	67.402078
1696.000000	67.230697
1695.000000	67.074397
1694.000000	66.921892
1693.000000	66.726489
1692.000000	66.468467
1691.000000	66.160459
1690.000000	65.834810
1689.000000	65.510206
1688.000000	65.219196
1687.000000	64.993876
1686.000000	64.786380
1685.000000	64.427382
1684.000000	64.034846
1683.000000	63.809720
1682.000000	63.586428
1681.000000	63.235011
1680.000000	62.841416
1679.000000	62.520012
1678.000000	62.283239
1677.000000	62.031452
1676.000000	61.664170
1675.000000	61.235658
1674.000000	60.827418
1673.000000	60.434510
1672.000000	60.048124
1671.000000	59.649299
1670.000000	59.216122
1669.000000	58.756553
1668.000000	58.303676
1667.000000	57.892264
1666.000000	57.515742
1665.000000	57.129752
1664.000000	56.673107
1663.000000	56.172741
1662.000000	55.708382
1661.000000	55.259432
1660.000000	54.801749
1659.000000	54.372130
1658.000000	53.983046
1657.000000	53.628050
1656.000000	53.325175
1655.000000	53.026940
1654.000000	52.488489
1653.000000	51.859876
1652.000000	51.416450
1651.000000	51.018930
1650.000000	50.569714
1649.000000	50.049073
1648.000000	49.375447
1647.000000	48.601307
1646.000000	47.895190
1645.000000	47.272060
1644.000000	46.637563
1643.000000	45.977719
1642.000000	45.325772
1641.000000	44.699500
1640.000000	44.134897
1639.000000	43.663304
1638.000000	43.291924
1637.000000	42.972557
1636.000000	42.722085
1635.000000	42.634631
1634.000000	42.659287
1633.000000	42.689022
1632.000000	42.709768
1631.000000	42.774712
1630.000000	42.916852
1629.000000	43.112821
1628.000000	43.332055
1627.000000	43.585724
1626.000000	43.882375
1625.000000	44.205056
1624.000000	44.544999
1623.000000	44.936769
1622.000000	45.376580
1621.000000	45.784483
1620.000000	46.147412
1619.000000	46.542950
1618.000000	47.050802
1617.000000	47.702014
1616.000000	48.452377
1615.000000	49.178250
1614.000000	49.795662
1613.000000	50.321726
1612.000000	50.804391
1611.000000	51.278471
1610.000000	51.725352
1609.000000	52.081206
1608.000000	52.304962
1607.000000	52.395213
1606.000000	52.316015
1605.000000	51.979840
1604.000000	51.332367
1603.000000	50.342440
1602.000000	48.942191
1601.000000	47.007560
1600.000000	44.355348
1599.000000	40.806663
1598.000000	36.294226
1597.000000	31.039833
1596.000000	25.679841
1595.000000	21.158188
1594.000000	18.264907
1593.000000	17.144303
1592.000000	17.360990
1591.000000	18.376592
1590.000000	19.855858
1589.000000	21.583027
1588.000000	23.332421
1587.000000	24.912304
1586.000000	26.279499
1585.000000	27.573621
1584.000000	28.992037
1583.000000	30.587757
1582.000000	32.182922
1581.000000	33.564004
1580.000000	34.738720
1579.000000	35.915004
1578.000000	37.269591
1577.000000	38.793813
1576.000000	40.300930
1575.000000	41.544898
1574.000000	42.398700
1573.000000	42.944358
1572.000000	43.360965
1571.000000	43.780491
1570.000000	44.269138
1569.000000	44.816100
1568.000000	45.395366
1567.000000	46.029542
1566.000000	46.730937
1565.000000	47.442878
1564.000000	48.107628
1563.000000	48.745839
1562.000000	49.405765
1561.000000	50.104566
1560.000000	50.713313
1559.000000	51.466344
1558.000000	52.476790
1557.000000	53.256682
1556.000000	53.756320
1555.000000	54.253838
1554.000000	54.810058
1553.000000	55.356095
1552.000000	55.855714
1551.000000	56.317185
1550.000000	56.758744
1549.000000	57.174662
1548.000000	57.552395
1547.000000	57.909615
1546.000000	58.241824
1545.000000	58.518434
1544.000000	58.757747
1543.000000	58.979197
1542.000000	59.169460
1541.000000	59.336127
1540.000000	59.614811
1539.000000	60.049955
1538.000000	60.446332
1537.000000	60.726169
1536.000000	60.973999
1535.000000	61.251963
1534.000000	61.549173
1533.000000	61.871201
1532.000000	62.194269
1531.000000	62.462881
1530.000000	62.711067
1529.000000	62.971346
1528.000000	63.212989
1527.000000	63.429104
1526.000000	63.639863
1525.000000	63.845470
1524.000000	64.035101
1523.000000	64.200725
1522.000000	64.368265
1521.000000	64.596989
1520.000000	64.840453
1519.000000	65.000509
1518.000000	65.066329
1517.000000	65.096593
1516.000000	65.142582
1515.000000	65.204726
1514.000000	65.268119
1513.000000	65.351795
1512.000000	65.441628
1511.000000	65.503877
1510.000000	65.538998
1509.000000	65.583956
1508.000000	65.630248
1507.000000	65.811752
1506.000000	66.252543
1505.000000	66.658539
1504.000000	66.833667
1503.000000	66.883760
1502.000000	66.931446
1501.000000	67.029971
1500.000000	67.160393
1499.000000	67.270713
1498.000000	67.359631
1497.000000	67.531944
1496.000000	67.820974
1495.000000	68.122816
1494.000000	68.381667
1493.000000	68.632518
1492.000000	68.874379
1491.000000	69.052813
1490.000000	69.203965
1489.000000	69.430421
1488.000000	69.699168
1487.000000	69.930262
1486.000000	70.160917
1485.000000	70.400238
1484.000000	70.624453
1483.000000	70.840285
1482.000000	71.062646
1481.000000	71.299567
1480.000000	71.528958
1479.000000	71.743220
1478.000000	71.946858
1477.000000	72.132695
1476.000000	72.272114
1475.000000	72.392876
1474.000000	72.553914
1473.000000	72.786072
1472.000000	73.073295
1471.000000	73.309024
1470.000000	73.436433
1469.000000	73.511187
1468.000000	73.578334
1467.000000	73.629075
1466.000000	73.605095
1465.000000	73.410774
1464.000000	72.991951
1463.000000	72.326643
1462.000000	71.446004
1461.000000	70.422493
1460.000000	69.314469
1459.000000	68.120679
1458.000000	66.789761
1457.000000	65.465409
1456.000000	64.363955
1455.000000	63.384987
1454.000000	62.250302
1453.000000	60.793844
1452.000000	59.033811
1451.000000	57.084130
1450.000000	54.947596
1449.000000	52.448096
1448.000000	49.461804
1447.000000	46.271932
1446.000000	43.530139
1445.000000	41.957583
1444.000000	42.084603
1443.000000	43.953221
1442.000000	47.003516
1441.000000	50.388067
1440.000000	53.456772
1439.000000	55.915241
1438.000000	57.701343
1437.000000	58.914724
1436.000000	59.819133
1435.000000	60.642779
1434.000000	61.500453
1433.000000	62.489712
1432.000000	63.620010
1431.000000	64.754670
1430.000000	65.740755
1429.000000	66.561460
1428.000000	67.255208
1427.000000	67.840258
1426.000000	68.321766
1425.000000	68.728092
1424.000000	69.132458
1423.000000	69.541141
1422.000000	69.919808
1421.000000	70.278960
1420.000000	70.627412
1419.000000	70.936252
1418.000000	71.183959
1417.000000	71.405066
1416.000000	71.649196
1415.000000	71.912872
1414.000000	72.154318
1413.000000	72.376227
1412.000000	72.617830
1411.000000	72.862632
1410.000000	73.059117
1409.000000	73.219394
1408.000000	73.367738
1407.000000	73.481157
1406.000000	73.512015
1405.000000	73.442590
1404.000000	73.304075
1403.000000	73.106132
1402.000000	72.852717
1401.000000	72.575044
1400.000000	72.308411
1399.000000	72.073778
1398.000000	71.874078
1397.000000	71.718759
1396.000000	71.633616
1395.000000	71.641347
1394.000000	71.687760
1393.000000	71.667437
1392.000000	71.530097
1391.000000	71.285676
1390.000000	70.970195
1389.000000	70.639969
1388.000000	70.374149
1387.000000	70.267560
1386.000000	70.373740
1385.000000	70.676573
1384.000000	71.142708
1383.000000	71.725490
1382.000000	72.367577
1381.000000	73.023415
1380.000000	73.656671
1379.000000	74.234462
1378.000000	74.724840
1377.000000	75.095935
1376.000000	75.307188
1375.000000	75.321448
1374.000000	75.105448
1373.000000	74.609389
1372.000000	73.728094
1371.000000	72.258303
1370.000000	69.852964
1369.000000	66.155742
1368.000000	61.221895
1367.000000	55.815740
1366.000000	51.174126
1365.000000	48.425949
1364.000000	48.150114
1363.000000	50.142919
1362.000000	53.469691
1361.000000	57.048002
1360.000000	60.252960
1359.000000	62.940975
1358.000000	65.165928
1357.000000	67.011933
1356.000000	68.556053
1355.000000	69.850599
1354.000000	70.925178
1353.000000	71.825136
1352.000000	72.595597
1351.000000	73.259415
1350.000000	73.822391
1349.000000	74.297913
1348.000000	74.717550
1347.000000	75.096123
1346.000000	75.428834
1345.000000	75.721421
1344.000000	75.994343
1343.000000	76.250920
1342.000000	76.474806
1341.000000	76.665216
1340.000000	76.852285
1339.000000	77.058093
1338.000000	77.262524
1337.000000	77.442069
1336.000000	77.602048
1335.000000	77.754885
1334.000000	77.906406
1333.000000	78.068654
1332.000000	78.254512
1331.000000	78.454040
1330.000000	78.633913
1329.000000	78.770561
1328.000000	78.857932
1327.000000	78.884155
1326.000000	78.815059
1325.000000	78.606402
1324.000000	78.220184
1323.000000	77.597823
1322.000000	76.658055
1321.000000	75.335860
1320.000000	73.583887
1319.000000	71.331971
1318.000000	68.519322
1317.000000	65.275814
1316.000000	62.092351
1315.000000	59.727060
1314.000000	58.791950
1313.000000	59.360477
1312.000000	60.973151
1311.000000	63.012130
1310.000000	65.074672
1309.000000	67.019588
1308.000000	68.807000
1307.000000	70.408620
1306.000000	71.819329
1305.000000	73.064984
1304.000000	74.160604
1303.000000	75.090078
1302.000000	75.846555
1301.000000	76.459048
1300.000000	76.955052
1299.000000	77.336138
1298.000000	77.603382
1297.000000	77.766782
1296.000000	77.819353
1295.000000	77.706718
1294.000000	77.310845
1293.000000	76.424394
1292.000000	74.807917
1291.000000	72.469783
1290.000000	69.953783
1289.000000	68.165759
1288.000000	67.715485
1287.000000	68.392861
1286.000000	69.371634
1285.000000	69.942495
1284.000000	69.951111
1283.000000	69.637722
1282.000000	69.296144
1281.000000	69.116767
1280.000000	69.178540
1279.000000	69.428915
1278.000000	69.670915
1277.000000	69.587876
1276.000000	68.737990
1275.000000	66.590002
1274.000000	62.867709
1273.000000	58.137690
1272.000000	53.991405
1271.000000	52.248930
1270.000000	53.707760
1269.000000	57.630968
1268.000000	62.410471
1267.000000	66.681552
1266.000000	69.884005
1265.000000	72.098314
1264.000000	73.632165
1263.000000	74.749139
1262.000000	75.612941
1261.000000	76.321357
1260.000000	76.929916
1259.000000	77.459562
1258.000000	77.919126
1257.000000	78.315129
1256.000000	78.653611
1255.000000	78.943605
1254.000000	79.197846
1253.000000	79.433100
1252.000000	79.659933
1251.000000	79.878533
1250.000000	80.086601
1249.000000	80.286843
1248.000000	80.484883
1247.000000	80.681458
1246.000000	80.873701
1245.000000	81.062597
1244.000000	81.249821
1243.000000	81.430555
1242.000000	81.598637
1241.000000	81.756775
1240.000000	81.912758
1239.000000	82.066966
1238.000000	82.212721
1237.000000	82.344559
1236.000000	82.456321
1235.000000	82.536254
1234.000000	82.574184
1233.000000	82.573488
1232.000000	82.543632
1231.000000	82.481898
1230.000000	82.374099
1229.000000	82.203041
1228.000000	81.948484
1227.000000	81.577693
1226.000000	81.046208
1225.000000	80.313613
1224.000000	79.339870
1223.000000	78.087640
1222.000000	76.545397
1221.000000	74.749151
1220.000000	72.786553
1219.000000	70.760538
1218.000000	68.750225
1217.000000	66.788239
1216.000000	64.849934
1215.000000	62.865427
1214.000000	60.751429
1213.000000	58.460191
1212.000000	56.015146
1211.000000	53.513430
1210.000000	51.103824
1209.000000	48.970138
1208.000000	47.295937
1207.000000	46.177488
1206.000000	45.552808
1205.000000	45.226481
1204.000000	45.028141
1203.000000	44.958535
1202.000000	45.183358
1201.000000	45.912272
1200.000000	47.226897
1199.000000	49.006623
1198.000000	51.000755
1197.000000	52.973510
1196.000000	54.816681
1195.000000	56.537084
1194.000000	58.189494
1193.000000	59.832225
1192.000000	61.502344
1191.000000	63.193966
1190.000000	64.859411
1189.000000	66.440914
1188.000000	67.894237
1187.000000	69.191383
1186.000000	70.315900
1185.000000	71.274637
1184.000000	72.097735
1183.000000	72.813579
1182.000000	73.439625
1181.000000	73.983400
1180.000000	74.445794
1179.000000	74.822074
1178.000000	75.109640
1177.000000	75.325952
1176.000000	75.499367
1175.000000	75.648010
1174.000000	75.779051
1173.000000	75.901719
1172.000000	76.030407
1171.000000	76.172344
1170.000000	76.327611
1169.000000	76.501300
1168.000000	76.699675
1167.000000	76.912805
1166.000000	77.113687
1165.000000	77.277592
1164.000000	77.393424
1163.000000	77.462404
1162.000000	77.504148
1161.000000	77.562370
1160.000000	77.684546
1159.000000	77.887909
1158.000000	78.153508
1157.000000	78.450946
1156.000000	78.756345
1155.000000	79.050510
1154.000000	79.320628
1153.000000	79.568548
1152.000000	79.802010
1151.000000	80.015023
1150.000000	80.189886
1149.000000	80.319610
1148.000000	80.412200
1147.000000	80.476245
1146.000000	80.517937
1145.000000	80.547766
1144.000000	80.573880
1143.000000	80.581228
1142.000000	80.534103
1141.000000	80.401844
1140.000000	80.166370
1139.000000	79.815720
1138.000000	79.339207
1137.000000	78.733402
1136.000000	77.996882
1135.000000	77.106341
1134.000000	76.023796
1133.000000	74.717850
1132.000000	73.176473
1131.000000	71.412295
1130.000000	69.465867
1129.000000	67.419794
1128.000000	65.385730
1127.000000	63.461082
1126.000000	61.697602
1125.000000	60.080754
1124.000000	58.521467
1123.000000	56.819372
1122.000000	54.638851
1121.000000	51.559358
1120.000000	47.182421
1119.000000	41.326082
1118.000000	34.264981
1117.000000	26.878600
1116.000000	20.498767
1115.000000	16.463616
1114.000000	15.554553
1113.000000	17.709286
1112.000000	22.151916
1111.000000	27.682040
1110.000000	33.072635
1109.000000	37.443084
1108.000000	40.387054
1107.000000	41.739662
1106.000000	41.276057
1105.000000	38.819431
1104.000000	34.773184
1103.000000	30.462087
1102.000000	27.685494
1101.000000	27.720229
1100.000000	30.640146
1099.000000	35.457745
1098.000000	40.851252
1097.000000	45.862393
1096.000000	50.095154
1095.000000	53.538869
1094.000000	56.329850
1093.000000	58.621154
1092.000000	60.541637
1091.000000	62.189149
1090.000000	63.635405
1089.000000	64.937224
1088.000000	66.147958
1087.000000	67.296426
1086.000000	68.391747
1085.000000	69.438408
1084.000000	70.435442
1083.000000	71.375964
1082.000000	72.250813
1081.000000	73.062136
1080.000000	73.815922
1079.000000	74.503893
1078.000000	75.112021
1077.000000	75.633841
1076.000000	76.069817
1075.000000	76.417346
1074.000000	76.669180
1073.000000	76.824525
1072.000000	76.870689
1071.000000	76.766520
1070.000000	76.455220
1069.000000	75.877911
1068.000000	74.988002
1067.000000	73.738525
1066.000000	72.089770
1065.000000	70.035398
1064.000000	67.592664
1063.000000	64.804600
1062.000000	61.715244
1061.000000	58.342368
1060.000000	54.659134
1059.000000	50.581150
1058.000000	46.022286
1057.000000	40.993384
1056.000000	35.704161
1055.000000	30.584824
1054.000000	26.222477
1053.000000	23.196827
1052.000000	21.921441
1051.000000	22.519415
1050.000000	24.738088
1049.000000	28.073115
1048.000000	31.943246
1047.000000	35.850940
1046.000000	39.485916
1045.000000	42.725491
1044.000000	45.590897
1043.000000	48.144263
1042.000000	50.414700
1041.000000	52.396264
1040.000000	54.089297
1039.000000	55.509778
1038.000000	56.686538
1037.000000	57.664944
1036.000000	58.494929
1035.000000	59.224961
1034.000000	59.890130
1033.000000	60.518950
1032.000000	61.138308
1031.000000	61.760201
1030.000000	62.380499
1029.000000	62.992926
1028.000000	63.604349
1027.000000	64.235308
1026.000000	64.913810
1025.000000	65.667905
1024.000000	66.510965
1023.000000	67.423290
1022.000000	68.354538
1021.000000	69.247329
1020.000000	70.058288
1019.000000	70.757088
1018.000000	71.312160
1017.000000	71.685216
1016.000000	71.804454
1015.000000	71.568290
1014.000000	70.857922
1013.000000	69.552152
1012.000000	67.552366
1011.000000	64.739633
1010.000000	60.952021
1009.000000	56.010322
1008.000000	49.883088
1007.000000	42.998354
1006.000000	36.427902
1005.000000	31.632578
1004.000000	29.782262
1003.000000	31.100710
1002.000000	34.725896
1001.000000	39.215157
1000.000000	43.170101
999.000000	45.553599
998.000000	45.795554
997.000000	43.953775
996.000000	40.913130
995.000000	38.195809
994.000000	37.214934
993.000000	38.484577
992.000000	41.469500
991.000000	45.130835
990.000000	48.618813
989.000000	51.588613
988.000000	54.072101
987.000000	56.204510
986.000000	58.083539
985.000000	59.755815
984.000000	61.234823
983.000000	62.512875
982.000000	63.593537
981.000000	64.508162
980.000000	65.294500
979.000000	65.983491
978.000000	66.598373
977.000000	67.165837
976.000000	67.702839
975.000000	68.204829
974.000000	68.665688
973.000000	69.092943
972.000000	69.499441
971.000000	69.888877
970.000000	70.261783
969.000000	70.626237
968.000000	70.985125
967.000000	71.325442
966.000000	71.633385
965.000000	71.912087
964.000000	72.174242
963.000000	72.424883
962.000000	72.664306
961.000000	72.896408
960.000000	73.119385
959.000000	73.319709
958.000000	73.488137
957.000000	73.635640
956.000000	73.781855
955.000000	73.935597
954.000000	74.098402
953.000000	74.273301
952.000000	74.455867
951.000000	74.626924
950.000000	74.769272
949.000000	74.885438
948.000000	74.987218
947.000000	75.078265
946.000000	75.159512
945.000000	75.238685
944.000000	75.319877
943.000000	75.393153
942.000000	75.450047
941.000000	75.501131
940.000000	75.563702
939.000000	75.641747
938.000000	75.729581
937.000000	75.823747
936.000000	75.917175
935.000000	75.993314
934.000000	76.043370
933.000000	76.081487
932.000000	76.128818
931.000000	76.191437
930.000000	76.264875
929.000000	76.346372
928.000000	76.427731
927.000000	76.489417
926.000000	76.520173
925.000000	76.532963
924.000000	76.548238
923.000000	76.571933
922.000000	76.601848
921.000000	76.640538
920.000000	76.685874
919.000000	76.724117
918.000000	76.749781
917.000000	76.778759
916.000000	76.825603
915.000000	76.882067
914.000000	76.932694
913.000000	76.975246
912.000000	77.009082
911.000000	77.023534
910.000000	77.018298
909.000000	77.017431
908.000000	77.041727
907.000000	77.083120
906.000000	77.123699
905.000000	77.155508
904.000000	77.158941
903.000000	77.089869
902.000000	76.919858
901.000000	76.678453
900.000000	76.429502
899.000000	76.210622
898.000000	76.004416
897.000000	75.735061
896.000000	75.299931
895.000000	74.652177
894.000000	73.856825
893.000000	72.977734
892.000000	71.878078
891.000000	70.283106
890.000000	68.205521
889.000000	66.256385
888.000000	65.301365
887.000000	65.739838
886.000000	67.172920
885.000000	68.812772
884.000000	70.133002
883.000000	71.053244
882.000000	71.695089
881.000000	72.148632
880.000000	72.457943
879.000000	72.684260
878.000000	72.899355
877.000000	73.150328
876.000000	73.452974
875.000000	73.793206
874.000000	74.125010
873.000000	74.399368
872.000000	74.600547
871.000000	74.743505
870.000000	74.845074
869.000000	74.913446
868.000000	74.956591
867.000000	74.973832
866.000000	74.944555
865.000000	74.847211
864.000000	74.686230
863.000000	74.492157
862.000000	74.302060
861.000000	74.149921
860.000000	74.062737
859.000000	74.044637
858.000000	74.067725
857.000000	74.092947
856.000000	74.099722
855.000000	74.088904
854.000000	74.069799
853.000000	74.055388
852.000000	74.059431
851.000000	74.083010
850.000000	74.108076
849.000000	74.113662
848.000000	74.093498
847.000000	74.052982
846.000000	73.998944
845.000000	73.940853
844.000000	73.890318
843.000000	73.848301
842.000000	73.800586
841.000000	73.735117
840.000000	73.657410
839.000000	73.582520
838.000000	73.520631
837.000000	73.475741
836.000000	73.446827
835.000000	73.421483
834.000000	73.377842
833.000000	73.302631
832.000000	73.201386
831.000000	73.087110
830.000000	72.969817
829.000000	72.861655
828.000000	72.777653
827.000000	72.720796
826.000000	72.676275
825.000000	72.628883
824.000000	72.576247
823.000000	72.519138
822.000000	72.452877
821.000000	72.375098
820.000000	72.286866
819.000000	72.179539
818.000000	72.033171
817.000000	71.837082
816.000000	71.592138
815.000000	71.288539
814.000000	70.885092
813.000000	70.293436
812.000000	69.360350
811.000000	67.878444
810.000000	65.720167
809.000000	63.050448
808.000000	60.397986
807.000000	58.426175
806.000000	57.560069
805.000000	57.787868
804.000000	58.774850
803.000000	60.123994
802.000000	61.533095
801.000000	62.822796
800.000000	63.908688
799.000000	64.770513
798.000000	65.424104
797.000000	65.891029
796.000000	66.182763
795.000000	66.301222
794.000000	66.251338
793.000000	66.050276
792.000000	65.734877
791.000000	65.356928
790.000000	64.968892
789.000000	64.611863
788.000000	64.308663
787.000000	64.065340
786.000000	63.877207
785.000000	63.739026
784.000000	63.650183
783.000000	63.609430
782.000000	63.605203
781.000000	63.614728
780.000000	63.613349
779.000000	63.585055
778.000000	63.531163
777.000000	63.473336
776.000000	63.445865
775.000000	63.477880
774.000000	63.577424
773.000000	63.729781
772.000000	63.906739
771.000000	64.078669
770.000000	64.225850
769.000000	64.345248
768.000000	64.447220
767.000000	64.543677
766.000000	64.638930
765.000000	64.728408
764.000000	64.801205
763.000000	64.843590
762.000000	64.847101
761.000000	64.817367
760.000000	64.772809
759.000000	64.733049
758.000000	64.707934
757.000000	64.694978
756.000000	64.682509
755.000000	64.655879
754.000000	64.606804
753.000000	64.539493
752.000000	64.466241
751.000000	64.396569
750.000000	64.331818
749.000000	64.267114
748.000000	64.193307
747.000000	64.099097
746.000000	63.978887
745.000000	63.840157
744.000000	63.698627
743.000000	63.564908
742.000000	63.437722
741.000000	63.307416
740.000000	63.161306
739.000000	62.989120
738.000000	62.791068
737.000000	62.580631
736.000000	62.373643
735.000000	62.172114
734.000000	61.959327
733.000000	61.706045
732.000000	61.376049
731.000000	60.932897
730.000000	60.353668
729.000000	59.641865
728.000000	58.828803
727.000000	57.969727
726.000000	57.146662
725.000000	56.468480
724.000000	56.045218
723.000000	55.943567
722.000000	56.162139
721.000000	56.638941
720.000000	57.272302
719.000000	57.945829
718.000000	58.560480
717.000000	59.058188
716.000000	59.420341
715.000000	59.654123
714.000000	59.784478
713.000000	59.848775
712.000000	59.881976
711.000000	59.902116
710.000000	59.913407
709.000000	59.916956
708.000000	59.912520
707.000000	59.896459
706.000000	59.867971
705.000000	59.837025
704.000000	59.816569
703.000000	59.807484
702.000000	59.800949
701.000000	59.789453
700.000000	59.766627
699.000000	59.726927
698.000000	59.673230
697.000000	59.620346
696.000000	59.579272
695.000000	59.542766
694.000000	59.499466
693.000000	59.448279
692.000000	59.388845
691.000000	59.314914
690.000000	59.229977
689.000000	59.159182
688.000000	59.123627
687.000000	59.111929
686.000000	59.100272
685.000000	59.080883
684.000000	59.052018
683.000000	59.003919
682.000000	58.938098
681.000000	58.879791
680.000000	58.846047
679.000000	58.820777
678.000000	58.788877
677.000000	58.756957
676.000000	58.730381
675.000000	58.712596
674.000000	58.712832
673.000000	58.735966
672.000000	58.750006
671.000000	58.689396
670.000000	58.527017
669.000000	58.312601
668.000000	58.164392
667.000000	58.256958
666.000000	58.530551
665.000000	58.720346
664.000000	58.774369
663.000000	58.773577
662.000000	58.772269
661.000000	58.766367
660.000000	58.744959
659.000000	58.719735
658.000000	58.701647
657.000000	58.681055
656.000000	58.650026
655.000000	58.626764
654.000000	58.616567
653.000000	58.600883
652.000000	58.580763
651.000000	58.583913
650.000000	58.620562
649.000000	58.669511
648.000000	58.716383
647.000000	58.763392
646.000000	58.798184
645.000000	58.798707
644.000000	58.771542
643.000000	58.752164
642.000000	58.762325
641.000000	58.793333
640.000000	58.836389
639.000000	58.893407
638.000000	58.951843
637.000000	58.985124
636.000000	58.988309
635.000000	58.984196
634.000000	58.989346
633.000000	58.999048
632.000000	59.007020
631.000000	59.014504
630.000000	59.017596
629.000000	59.009226
628.000000	58.999147
627.000000	59.010372
626.000000	59.051418
625.000000	59.110106
624.000000	59.169688
623.000000	59.215417
622.000000	59.228361
621.000000	59.197088
620.000000	59.137891
619.000000	59.084970
618.000000	59.062474
617.000000	59.076275
616.000000	59.122960
615.000000	59.188336
614.000000	59.245497
613.000000	59.276512
612.000000	59.291685
611.000000	59.311218
610.000000	59.339617
609.000000	59.368495
608.000000	59.393447
607.000000	59.411879
606.000000	59.414829
605.000000	59.401736
604.000000	59.388006
603.000000	59.383295
602.000000	59.373073
601.000000	59.332452
600.000000	59.242897
599.000000	59.085909
598.000000	58.836005
597.000000	58.470759
596.000000	57.976041
595.000000	57.309154
594.000000	56.322722
593.000000	54.707435
592.000000	52.034773
591.000000	48.046109
590.000000	43.109875
589.000000	38.422377
588.000000	35.553850
587.000000	35.522777
586.000000	38.089117
585.000000	41.944950
584.000000	45.705173
583.000000	48.673123
582.000000	50.814977
581.000000	52.354953
580.000000	53.511328
579.000000	54.436655
578.000000	55.204913
577.000000	55.821814
576.000000	56.286241
575.000000	56.634315
574.000000	56.902497
573.000000	57.104977
572.000000	57.265709
571.000000	57.426319
570.000000	57.602011
569.000000	57.760398
568.000000	57.873342
567.000000	57.943683
566.000000	57.966151
565.000000	57.905471
564.000000	57.732916
563.000000	57.457192
562.000000	57.101471
561.000000	56.690993
560.000000	56.274694
559.000000	55.912849
558.000000	55.621842
557.000000	55.372192
556.000000	55.160210
555.000000	55.040923
554.000000	55.067834
553.000000	55.236614
552.000000	55.508068
551.000000	55.844119
550.000000	56.198201
549.000000	56.519743
548.000000	56.792714
547.000000	57.036607
546.000000	57.257898
545.000000	57.434102
544.000000	57.556521
543.000000	57.648620
542.000000	57.730445
541.000000	57.796133
540.000000	57.838650
539.000000	57.860245
538.000000	57.850951
537.000000	57.793686
536.000000	57.702779
535.000000	57.623250
534.000000	57.579952
533.000000	57.563210
532.000000	57.553336
531.000000	57.538424
530.000000	57.500327
529.000000	57.413018
528.000000	57.264512
527.000000	57.068798
526.000000	56.838167
525.000000	56.565572
524.000000	56.239759
523.000000	55.840113
522.000000	55.322274
521.000000	54.633505
520.000000	53.752016
519.000000	52.682707
518.000000	51.419687
517.000000	49.976635
516.000000	48.474828
515.000000	47.144057
514.000000	46.209791
513.000000	45.808506
512.000000	45.976095
511.000000	46.656146
510.000000	47.695319
509.000000	48.892769
508.000000	50.088132
507.000000	51.185349
506.000000	52.123447
505.000000	52.882504
504.000000	53.510889
503.000000	54.089956
502.000000	54.660195
501.000000	55.198442
500.000000	55.669797
499.000000	56.069875
498.000000	56.396363
497.000000	56.639134
496.000000	56.810406
495.000000	56.945383
494.000000	57.066840
493.000000	57.163471
492.000000	57.223657
491.000000	57.259100
490.000000	57.274895
489.000000	57.263585
488.000000	57.224816
487.000000	57.168117
486.000000	57.070514
485.000000	56.853022
484.000000	56.428794
483.000000	55.740964
482.000000	54.745675
481.000000	53.397860
480.000000	51.681965
479.000000	49.625249
478.000000	47.273996
477.000000	44.758738
476.000000	42.402541
475.000000	40.689806
474.000000	40.029989
473.000000	40.544677
472.000000	42.012924
471.000000	44.000239
470.000000	46.108168
469.000000	48.099445
468.000000	49.872516
467.000000	51.398033
466.000000	52.677862
465.000000	53.741839
464.000000	54.634823
463.000000	55.400730
462.000000	56.062345
461.000000	56.618584
460.000000	57.067737
459.000000	57.421618
458.000000	57.704474
457.000000	57.957202
456.000000	58.218250
455.000000	58.503424
454.000000	58.802193
453.000000	59.078974
452.000000	59.310519
451.000000	59.507998
450.000000	59.679514
449.000000	59.819357
448.000000	59.935571
447.000000	60.056092
446.000000	60.188453
445.000000	60.316309
444.000000	60.428073
443.000000	60.540122
442.000000	60.676757
441.000000	60.839785
440.000000	61.018060
439.000000	61.193955
438.000000	61.332865
437.000000	61.398199
436.000000	61.400738
435.000000	61.400191
434.000000	61.438267
433.000000	61.498403
432.000000	61.533991
431.000000	61.510459
430.000000	61.425358
429.000000	61.288520
428.000000	61.124140
427.000000	60.993912
426.000000	60.962237
425.000000	61.029230
424.000000	61.140233
423.000000	61.264720
422.000000	61.404797
421.000000	61.540780
420.000000	61.616201
419.000000	61.682869
418.000000	61.882463
417.000000	62.150984
416.000000	62.363129
415.000000	62.508181
414.000000	62.603974
413.000000	62.664350
412.000000	62.716399
411.000000	62.792166
410.000000	62.895764
409.000000	62.939407
408.000000	62.795939
407.000000	62.440054
406.000000	62.016510
405.000000	61.740808
404.000000	61.777252
403.000000	62.140942
402.000000	62.717718
401.000000	63.295700
400.000000	63.726710
