PE IR       SUBTECH     SPECTRUM    ASCII       PEDS        4.00        
   -1
23ms151 cis.asc
24/10/17
16:06:42.00
24/10/17
16:06:42.00
Administrator
Sample 1295 By Administrator Date Thursday, October 17 2024
400.000000
#HDR
-1
-1
#GR
cm-1
%T
1.0
0.0
4000.000000
-1.000000
3601
8
87.545891
11.519857
#DATA
4000.000000	66.486457
3999.000000	66.472411
3998.000000	66.462415
3997.000000	66.454874
3996.000000	66.448913
3995.000000	66.444127
3994.000000	66.439562
3993.000000	66.434649
3992.000000	66.431202
3991.000000	66.432471
3990.000000	66.438921
3989.000000	66.447466
3988.000000	66.456276
3987.000000	66.467835
3986.000000	66.486164
3985.000000	66.512157
3984.000000	66.543296
3983.000000	66.576490
3982.000000	66.609696
3981.000000	66.641887
3980.000000	66.672323
3979.000000	66.701519
3978.000000	66.732646
3977.000000	66.769128
3976.000000	66.810965
3975.000000	66.853879
3974.000000	66.893450
3973.000000	66.928785
3972.000000	66.961758
3971.000000	66.995565
3970.000000	67.032107
3969.000000	67.070334
3968.000000	67.107581
3967.000000	67.142043
3966.000000	67.173986
3965.000000	67.206248
3964.000000	67.243221
3963.000000	67.287773
3962.000000	67.340146
3961.000000	67.396566
3960.000000	67.451450
3959.000000	67.504926
3958.000000	67.561521
3957.000000	67.622853
3956.000000	67.684752
3955.000000	67.741743
3954.000000	67.791320
3953.000000	67.832096
3952.000000	67.862681
3951.000000	67.884141
3950.000000	67.900670
3949.000000	67.918244
3948.000000	67.942875
3947.000000	67.975133
3946.000000	68.009467
3945.000000	68.044979
3944.000000	68.090856
3943.000000	68.149779
3942.000000	68.207692
3941.000000	68.248404
3940.000000	68.273012
3939.000000	68.302480
3938.000000	68.351045
3937.000000	68.405633
3936.000000	68.440067
3935.000000	68.446488
3934.000000	68.448464
3933.000000	68.472081
3932.000000	68.517838
3931.000000	68.565651
3930.000000	68.598558
3929.000000	68.620161
3928.000000	68.639543
3927.000000	68.660703
3926.000000	68.689364
3925.000000	68.725641
3924.000000	68.751077
3923.000000	68.743080
3922.000000	68.704313
3921.000000	68.664534
3920.000000	68.646976
3919.000000	68.648310
3918.000000	68.659723
3917.000000	68.686792
3916.000000	68.733751
3915.000000	68.783964
3914.000000	68.823289
3913.000000	68.861460
3912.000000	68.910400
3911.000000	68.967081
3910.000000	69.015567
3909.000000	69.047266
3908.000000	69.064722
3907.000000	69.062900
3906.000000	69.028326
3905.000000	68.955416
3904.000000	68.854967
3903.000000	68.751539
3902.000000	68.672817
3901.000000	68.648843
3900.000000	68.703095
3899.000000	68.818344
3898.000000	68.943698
3897.000000	69.047259
3896.000000	69.135215
3895.000000	69.229514
3894.000000	69.330711
3893.000000	69.419388
3892.000000	69.481362
3891.000000	69.525446
3890.000000	69.549369
3889.000000	69.526661
3888.000000	69.463174
3887.000000	69.430741
3886.000000	69.492498
3885.000000	69.609506
3884.000000	69.676850
3883.000000	69.660333
3882.000000	69.629390
3881.000000	69.659392
3880.000000	69.744388
3879.000000	69.817876
3878.000000	69.832338
3877.000000	69.802831
3876.000000	69.790063
3875.000000	69.843379
3874.000000	69.933056
3873.000000	69.960294
3872.000000	69.874959
3871.000000	69.759513
3870.000000	69.737534
3869.000000	69.809941
3868.000000	69.858805
3867.000000	69.826705
3866.000000	69.800418
3865.000000	69.866585
3864.000000	69.978249
3863.000000	70.040875
3862.000000	70.045303
3861.000000	70.055180
3860.000000	70.118712
3859.000000	70.249388
3858.000000	70.439659
3857.000000	70.647615
3856.000000	70.786707
3855.000000	70.777751
3854.000000	70.637311
3853.000000	70.469910
3852.000000	70.349803
3851.000000	70.278606
3850.000000	70.256224
3849.000000	70.304602
3848.000000	70.407904
3847.000000	70.520857
3846.000000	70.614980
3845.000000	70.683305
3844.000000	70.728222
3843.000000	70.757127
3842.000000	70.765899
3841.000000	70.756139
3840.000000	70.740543
3839.000000	70.727453
3838.000000	70.719698
3837.000000	70.722713
3836.000000	70.740599
3835.000000	70.768375
3834.000000	70.799925
3833.000000	70.846877
3832.000000	70.923226
3831.000000	71.015614
3830.000000	71.095075
3829.000000	71.146577
3828.000000	71.184071
3827.000000	71.244835
3826.000000	71.331902
3825.000000	71.389506
3824.000000	71.363137
3823.000000	71.286388
3822.000000	71.264796
3821.000000	71.342567
3820.000000	71.432053
3819.000000	71.432497
3818.000000	71.360233
3817.000000	71.331869
3816.000000	71.428651
3815.000000	71.585798
3814.000000	71.685684
3813.000000	71.713450
3812.000000	71.744460
3811.000000	71.824264
3810.000000	71.916383
3809.000000	71.958518
3808.000000	71.956934
3807.000000	71.974116
3806.000000	72.017666
3805.000000	72.026922
3804.000000	71.969651
3803.000000	71.917698
3802.000000	71.958491
3801.000000	72.060033
3800.000000	72.105244
3799.000000	72.056282
3798.000000	71.997579
3797.000000	72.024062
3796.000000	72.138277
3795.000000	72.263228
3794.000000	72.346047
3793.000000	72.404567
3792.000000	72.475891
3791.000000	72.562771
3790.000000	72.640644
3789.000000	72.692319
3788.000000	72.722916
3787.000000	72.744451
3786.000000	72.765668
3785.000000	72.790908
3784.000000	72.812783
3783.000000	72.812244
3782.000000	72.786202
3781.000000	72.764768
3780.000000	72.780389
3779.000000	72.827963
3778.000000	72.870858
3777.000000	72.887390
3776.000000	72.895655
3775.000000	72.930824
3774.000000	72.993493
3773.000000	73.039120
3772.000000	73.039129
3771.000000	73.028083
3770.000000	73.044402
3769.000000	73.067605
3768.000000	73.059837
3767.000000	73.036346
3766.000000	73.058070
3765.000000	73.146151
3764.000000	73.243325
3763.000000	73.283058
3762.000000	73.274424
3761.000000	73.288851
3760.000000	73.348826
3759.000000	73.403810
3758.000000	73.426168
3757.000000	73.443768
3756.000000	73.472636
3755.000000	73.491309
3754.000000	73.492291
3753.000000	73.501800
3752.000000	73.516092
3751.000000	73.490177
3750.000000	73.440153
3749.000000	73.442542
3748.000000	73.490344
3747.000000	73.504952
3746.000000	73.484079
3745.000000	73.527666
3744.000000	73.672321
3743.000000	73.804432
3742.000000	73.825447
3741.000000	73.788212
3740.000000	73.785345
3739.000000	73.817612
3738.000000	73.839303
3737.000000	73.865350
3736.000000	73.951330
3735.000000	74.063321
3734.000000	74.119994
3733.000000	74.144425
3732.000000	74.220603
3731.000000	74.355802
3730.000000	74.476580
3729.000000	74.534137
3728.000000	74.567308
3727.000000	74.639041
3726.000000	74.741996
3725.000000	74.810640
3724.000000	74.827517
3723.000000	74.838791
3722.000000	74.874457
3721.000000	74.928417
3720.000000	74.980265
3719.000000	75.024151
3718.000000	75.075636
3717.000000	75.139954
3716.000000	75.190930
3715.000000	75.201058
3714.000000	75.186891
3713.000000	75.195180
3712.000000	75.238755
3711.000000	75.284805
3710.000000	75.319783
3709.000000	75.368198
3708.000000	75.451990
3707.000000	75.567794
3706.000000	75.692065
3705.000000	75.802173
3704.000000	75.894311
3703.000000	75.981370
3702.000000	76.069340
3701.000000	76.148689
3700.000000	76.202193
3699.000000	76.222236
3698.000000	76.236302
3697.000000	76.285865
3696.000000	76.363613
3695.000000	76.416812
3694.000000	76.422558
3693.000000	76.418792
3692.000000	76.438876
3691.000000	76.456976
3690.000000	76.429723
3689.000000	76.377607
3688.000000	76.369015
3687.000000	76.414571
3686.000000	76.467154
3685.000000	76.512658
3684.000000	76.572655
3683.000000	76.648012
3682.000000	76.714084
3681.000000	76.762910
3680.000000	76.814511
3679.000000	76.842836
3678.000000	76.783496
3677.000000	76.662388
3676.000000	76.606550
3675.000000	76.658024
3674.000000	76.697139
3673.000000	76.622696
3672.000000	76.498426
3671.000000	76.493321
3670.000000	76.658939
3669.000000	76.858453
3668.000000	76.978637
3667.000000	77.040961
3666.000000	77.105528
3665.000000	77.202842
3664.000000	77.317993
3663.000000	77.421064
3662.000000	77.499276
3661.000000	77.551115
3660.000000	77.573467
3659.000000	77.557257
3658.000000	77.514965
3657.000000	77.490141
3656.000000	77.506734
3655.000000	77.522555
3654.000000	77.463663
3653.000000	77.318037
3652.000000	77.168639
3651.000000	77.104837
3650.000000	77.111951
3649.000000	77.115308
3648.000000	77.133401
3647.000000	77.228933
3646.000000	77.380333
3645.000000	77.528438
3644.000000	77.661705
3643.000000	77.808371
3642.000000	77.972855
3641.000000	78.116730
3640.000000	78.208786
3639.000000	78.261834
3638.000000	78.299494
3637.000000	78.315495
3636.000000	78.300363
3635.000000	78.283352
3634.000000	78.296091
3633.000000	78.306355
3632.000000	78.241423
3631.000000	78.097295
3630.000000	77.981859
3629.000000	77.984509
3628.000000	78.045539
3627.000000	78.069371
3626.000000	78.046894
3625.000000	78.029044
3624.000000	78.046957
3623.000000	78.073014
3622.000000	78.061272
3621.000000	78.011047
3620.000000	77.950334
3619.000000	77.878491
3618.000000	77.774598
3617.000000	77.634482
3616.000000	77.477614
3615.000000	77.343610
3614.000000	77.259729
3613.000000	77.202586
3612.000000	77.118403
3611.000000	76.986396
3610.000000	76.853588
3609.000000	76.791307
3608.000000	76.803156
3607.000000	76.821047
3606.000000	76.791098
3605.000000	76.717023
3604.000000	76.633459
3603.000000	76.561562
3602.000000	76.499158
3601.000000	76.441099
3600.000000	76.377391
3599.000000	76.290420
3598.000000	76.181800
3597.000000	76.072714
3596.000000	75.981597
3595.000000	75.907731
3594.000000	75.831411
3593.000000	75.730827
3592.000000	75.593354
3591.000000	75.420971
3590.000000	75.250007
3589.000000	75.147872
3588.000000	75.148388
3587.000000	75.205732
3586.000000	75.251548
3585.000000	75.266600
3584.000000	75.270469
3583.000000	75.280855
3582.000000	75.297308
3581.000000	75.308960
3580.000000	75.305173
3579.000000	75.279106
3578.000000	75.231910
3577.000000	75.172391
3576.000000	75.107564
3575.000000	75.038412
3574.000000	74.960313
3573.000000	74.863637
3572.000000	74.735097
3571.000000	74.560401
3570.000000	74.343683
3569.000000	74.131535
3568.000000	73.983300
3567.000000	73.904432
3566.000000	73.844319
3565.000000	73.763706
3564.000000	73.663982
3563.000000	73.566996
3562.000000	73.484890
3561.000000	73.409172
3560.000000	73.321269
3559.000000	73.206949
3558.000000	73.063611
3557.000000	72.897626
3556.000000	72.716275
3555.000000	72.524279
3554.000000	72.327287
3553.000000	72.129471
3552.000000	71.925310
3551.000000	71.698563
3550.000000	71.436373
3549.000000	71.149652
3548.000000	70.868200
3547.000000	70.612940
3546.000000	70.377593
3545.000000	70.142556
3544.000000	69.896103
3543.000000	69.637869
3542.000000	69.369702
3541.000000	69.091180
3540.000000	68.799230
3539.000000	68.488093
3538.000000	68.154921
3537.000000	67.802158
3536.000000	67.432500
3535.000000	67.042978
3534.000000	66.629105
3533.000000	66.194122
3532.000000	65.745356
3531.000000	65.282838
3530.000000	64.796613
3529.000000	64.280009
3528.000000	63.737227
3527.000000	63.175101
3526.000000	62.597141
3525.000000	62.009436
3524.000000	61.420395
3523.000000	60.828782
3522.000000	60.221471
3521.000000	59.587816
3520.000000	58.930027
3519.000000	58.254312
3518.000000	57.560050
3517.000000	56.842127
3516.000000	56.099954
3515.000000	55.338953
3514.000000	54.563372
3513.000000	53.772566
3512.000000	52.964236
3511.000000	52.137211
3510.000000	51.292565
3509.000000	50.436466
3508.000000	49.576768
3507.000000	48.714280
3506.000000	47.841920
3505.000000	46.954692
3504.000000	46.055955
3503.000000	45.153899
3502.000000	44.256754
3501.000000	43.371327
3500.000000	42.500387
3499.000000	41.638930
3498.000000	40.778555
3497.000000	39.916280
3496.000000	39.056369
3495.000000	38.204078
3494.000000	37.362597
3493.000000	36.536064
3492.000000	35.728821
3491.000000	34.939645
3490.000000	34.162847
3489.000000	33.398418
3488.000000	32.655857
3487.000000	31.945081
3486.000000	31.268632
3485.000000	30.623495
3484.000000	30.003608
3483.000000	29.400540
3482.000000	28.809043
3481.000000	28.235177
3480.000000	27.692404
3479.000000	27.186263
3478.000000	26.708618
3477.000000	26.247432
3476.000000	25.795098
3475.000000	25.347340
3474.000000	24.901791
3473.000000	24.460694
3472.000000	24.030438
3471.000000	23.617136
3470.000000	23.227774
3469.000000	22.874678
3468.000000	22.572421
3467.000000	22.328422
3466.000000	22.140977
3465.000000	22.006708
3464.000000	21.923566
3463.000000	21.888353
3462.000000	21.899587
3461.000000	21.962348
3460.000000	22.083734
3459.000000	22.261659
3458.000000	22.483274
3457.000000	22.734297
3456.000000	23.003260
3455.000000	23.277538
3454.000000	23.542999
3453.000000	23.788407
3452.000000	24.004574
3451.000000	24.179255
3450.000000	24.297300
3449.000000	24.348033
3448.000000	24.328189
3447.000000	24.237691
3446.000000	24.079738
3445.000000	23.862377
3444.000000	23.595258
3443.000000	23.285442
3442.000000	22.938856
3441.000000	22.566665
3440.000000	22.184786
3439.000000	21.808414
3438.000000	21.452295
3437.000000	21.133884
3436.000000	20.869797
3435.000000	20.667742
3434.000000	20.525732
3433.000000	20.439326
3432.000000	20.407979
3431.000000	20.434632
3430.000000	20.525165
3429.000000	20.688217
3428.000000	20.928592
3427.000000	21.244380
3426.000000	21.630835
3425.000000	22.086089
3424.000000	22.611205
3423.000000	23.204184
3422.000000	23.862038
3421.000000	24.583188
3420.000000	25.363421
3419.000000	26.192850
3418.000000	27.058393
3417.000000	27.950572
3416.000000	28.862899
3415.000000	29.787819
3414.000000	30.718717
3413.000000	31.651932
3412.000000	32.583251
3411.000000	33.504436
3410.000000	34.407113
3409.000000	35.288164
3408.000000	36.146917
3407.000000	36.978708
3406.000000	37.776692
3405.000000	38.538048
3404.000000	39.264424
3403.000000	39.959378
3402.000000	40.628833
3401.000000	41.281659
3400.000000	41.924343
3399.000000	42.554623
3398.000000	43.164237
3397.000000	43.746874
3396.000000	44.300940
3395.000000	44.828605
3394.000000	45.335657
3393.000000	45.831291
3392.000000	46.323236
3391.000000	46.812465
3390.000000	47.296038
3389.000000	47.772093
3388.000000	48.239745
3387.000000	48.696791
3386.000000	49.141630
3385.000000	49.576278
3384.000000	50.003661
3383.000000	50.424304
3382.000000	50.838730
3381.000000	51.250628
3380.000000	51.663660
3379.000000	52.077187
3378.000000	52.488638
3377.000000	52.898211
3376.000000	53.307015
3375.000000	53.712553
3374.000000	54.110264
3373.000000	54.498724
3372.000000	54.880176
3371.000000	55.256959
3370.000000	55.631098
3369.000000	56.005680
3368.000000	56.383124
3367.000000	56.762332
3366.000000	57.139975
3365.000000	57.513894
3364.000000	57.883176
3363.000000	58.246832
3362.000000	58.605273
3361.000000	58.961362
3360.000000	59.317241
3359.000000	59.671269
3358.000000	60.020407
3357.000000	60.363944
3356.000000	60.701863
3355.000000	61.032232
3354.000000	61.353726
3353.000000	61.669391
3352.000000	61.984777
3351.000000	62.302844
3350.000000	62.622623
3349.000000	62.941163
3348.000000	63.254412
3347.000000	63.557692
3346.000000	63.848971
3345.000000	64.131304
3344.000000	64.409364
3343.000000	64.684451
3342.000000	64.954938
3341.000000	65.220056
3340.000000	65.480871
3339.000000	65.738514
3338.000000	65.993365
3337.000000	66.245212
3336.000000	66.491710
3335.000000	66.727938
3334.000000	66.949942
3333.000000	67.157547
3332.000000	67.352310
3331.000000	67.533393
3330.000000	67.697512
3329.000000	67.842235
3328.000000	67.966370
3327.000000	68.068707
3326.000000	68.147980
3325.000000	68.203133
3324.000000	68.231982
3323.000000	68.229483
3322.000000	68.190372
3321.000000	68.111977
3320.000000	67.992047
3319.000000	67.826645
3318.000000	67.609123
3317.000000	67.333126
3316.000000	66.992311
3315.000000	66.578021
3314.000000	66.081512
3313.000000	65.494272
3312.000000	64.807365
3311.000000	64.011967
3310.000000	63.100070
3309.000000	62.069749
3308.000000	60.920542
3307.000000	59.649478
3306.000000	58.253728
3305.000000	56.729725
3304.000000	55.074689
3303.000000	53.281781
3302.000000	51.344703
3301.000000	49.265617
3300.000000	47.053445
3299.000000	44.724993
3298.000000	42.309909
3297.000000	39.855251
3296.000000	37.419707
3295.000000	35.060735
3294.000000	32.830165
3293.000000	30.775449
3292.000000	28.932863
3291.000000	27.313578
3290.000000	25.906666
3289.000000	24.685531
3288.000000	23.614630
3287.000000	22.655147
3286.000000	21.770675
3285.000000	20.939427
3284.000000	20.150402
3283.000000	19.398766
3282.000000	18.689616
3281.000000	18.038692
3280.000000	17.467933
3279.000000	16.996727
3278.000000	16.643188
3277.000000	16.429116
3276.000000	16.371306
3275.000000	16.474024
3274.000000	16.729101
3273.000000	17.118023
3272.000000	17.610875
3271.000000	18.161313
3270.000000	18.713725
3269.000000	19.213076
3268.000000	19.607458
3267.000000	19.851047
3266.000000	19.915525
3265.000000	19.797862
3264.000000	19.516092
3263.000000	19.103134
3262.000000	18.602698
3261.000000	18.069157
3260.000000	17.556807
3259.000000	17.109230
3258.000000	16.760858
3257.000000	16.540624
3256.000000	16.465933
3255.000000	16.536871
3254.000000	16.741353
3253.000000	17.060440
3252.000000	17.470591
3251.000000	17.940439
3250.000000	18.437069
3249.000000	18.934396
3248.000000	19.410267
3247.000000	19.843762
3246.000000	20.217920
3245.000000	20.523787
3244.000000	20.757753
3243.000000	20.919720
3242.000000	21.015087
3241.000000	21.056145
3240.000000	21.055914
3239.000000	21.021365
3238.000000	20.958555
3237.000000	20.876094
3236.000000	20.782236
3235.000000	20.682342
3234.000000	20.581486
3233.000000	20.485907
3232.000000	20.394970
3231.000000	20.297244
3230.000000	20.179600
3229.000000	20.035672
3228.000000	19.863223
3227.000000	19.658078
3226.000000	19.416852
3225.000000	19.141876
3224.000000	18.836913
3223.000000	18.503427
3222.000000	18.144852
3221.000000	17.770994
3220.000000	17.393523
3219.000000	17.019399
3218.000000	16.653180
3217.000000	16.300233
3216.000000	15.962949
3215.000000	15.637825
3214.000000	15.320779
3213.000000	15.011213
3212.000000	14.707204
3211.000000	14.402246
3210.000000	14.091709
3209.000000	13.778664
3208.000000	13.468762
3207.000000	13.164542
3206.000000	12.869430
3205.000000	12.591383
3204.000000	12.338062
3203.000000	12.112271
3202.000000	11.916526
3201.000000	11.757393
3200.000000	11.639307
3199.000000	11.560804
3198.000000	11.520148
3197.000000	11.519857
3196.000000	11.562080
3195.000000	11.642719
3194.000000	11.757458
3193.000000	11.906221
3192.000000	12.087464
3191.000000	12.295282
3190.000000	12.524442
3189.000000	12.775275
3188.000000	13.047877
3187.000000	13.336543
3186.000000	13.635689
3185.000000	13.944664
3184.000000	14.263485
3183.000000	14.588451
3182.000000	14.916392
3181.000000	15.248773
3180.000000	15.586351
3179.000000	15.925189
3178.000000	16.261714
3177.000000	16.596744
3176.000000	16.930635
3175.000000	17.259336
3174.000000	17.579411
3173.000000	17.891864
3172.000000	18.197424
3171.000000	18.492814
3170.000000	18.775949
3169.000000	19.049657
3168.000000	19.316040
3167.000000	19.572570
3166.000000	19.816737
3165.000000	20.049976
3164.000000	20.273066
3163.000000	20.482295
3162.000000	20.674741
3161.000000	20.851617
3160.000000	21.013596
3159.000000	21.157855
3158.000000	21.283100
3157.000000	21.393519
3156.000000	21.493306
3155.000000	21.583074
3154.000000	21.665450
3153.000000	21.748413
3152.000000	21.838980
3151.000000	21.937556
3150.000000	22.042494
3149.000000	22.155296
3148.000000	22.277415
3147.000000	22.406775
3146.000000	22.541825
3145.000000	22.684544
3144.000000	22.835605
3143.000000	22.991319
3142.000000	23.148607
3141.000000	23.308565
3140.000000	23.471365
3139.000000	23.632512
3138.000000	23.787653
3137.000000	23.936160
3136.000000	24.076323
3135.000000	24.201503
3134.000000	24.305160
3133.000000	24.384080
3132.000000	24.433902
3131.000000	24.445892
3130.000000	24.411375
3129.000000	24.326774
3128.000000	24.189608
3127.000000	23.997126
3126.000000	23.752259
3125.000000	23.466051
3124.000000	23.152324
3123.000000	22.821934
3122.000000	22.486358
3121.000000	22.159784
3120.000000	21.852332
3119.000000	21.565923
3118.000000	21.299756
3117.000000	21.055219
3116.000000	20.831782
3115.000000	20.624031
3114.000000	20.426518
3113.000000	20.237549
3112.000000	20.054988
3111.000000	19.874223
3110.000000	19.694802
3109.000000	19.523215
3108.000000	19.365924
3107.000000	19.224653
3106.000000	19.101103
3105.000000	19.001487
3104.000000	18.931232
3103.000000	18.891583
3102.000000	18.885730
3101.000000	18.921439
3100.000000	19.005424
3099.000000	19.137868
3098.000000	19.317266
3097.000000	19.545208
3096.000000	19.820935
3095.000000	20.139264
3094.000000	20.495463
3093.000000	20.888461
3092.000000	21.316344
3091.000000	21.772353
3090.000000	22.250343
3089.000000	22.747101
3088.000000	23.257252
3087.000000	23.772126
3086.000000	24.286046
3085.000000	24.799484
3084.000000	25.312162
3083.000000	25.818902
3082.000000	26.315545
3081.000000	26.803157
3080.000000	27.283218
3079.000000	27.753698
3078.000000	28.213262
3077.000000	28.663461
3076.000000	29.104017
3075.000000	29.530503
3074.000000	29.939968
3073.000000	30.334556
3072.000000	30.716031
3071.000000	31.082622
3070.000000	31.433756
3069.000000	31.773196
3068.000000	32.104456
3067.000000	32.426717
3066.000000	32.738893
3065.000000	33.042856
3064.000000	33.339785
3063.000000	33.627952
3062.000000	33.906497
3061.000000	34.177731
3060.000000	34.442922
3059.000000	34.700117
3058.000000	34.948966
3057.000000	35.192942
3056.000000	35.434540
3055.000000	35.672203
3054.000000	35.904372
3053.000000	36.132897
3052.000000	36.359458
3051.000000	36.582993
3050.000000	36.802909
3049.000000	37.020717
3048.000000	37.236535
3047.000000	37.447857
3046.000000	37.654131
3045.000000	37.858446
3044.000000	38.062548
3043.000000	38.264772
3042.000000	38.464790
3041.000000	38.665505
3040.000000	38.867725
3039.000000	39.067110
3038.000000	39.259748
3037.000000	39.446818
3036.000000	39.631494
3035.000000	39.815422
3034.000000	40.000404
3033.000000	40.189191
3032.000000	40.381616
3031.000000	40.573926
3030.000000	40.764172
3029.000000	40.954206
3028.000000	41.144476
3027.000000	41.331637
3026.000000	41.513754
3025.000000	41.693252
3024.000000	41.871714
3023.000000	42.046005
3022.000000	42.212187
3021.000000	42.368807
3020.000000	42.513668
3019.000000	42.640387
3018.000000	42.741794
3017.000000	42.813375
3016.000000	42.851888
3015.000000	42.856047
3014.000000	42.832244
3013.000000	42.797984
3012.000000	42.776360
3011.000000	42.789071
3010.000000	42.853464
3009.000000	42.979103
3008.000000	43.162064
3007.000000	43.384790
3006.000000	43.624164
3005.000000	43.857644
3004.000000	44.061683
3003.000000	44.209303
3002.000000	44.273536
3001.000000	44.231329
3000.000000	44.067623
2999.000000	43.784740
2998.000000	43.416376
2997.000000	43.030359
2996.000000	42.711364
2995.000000	42.535331
2994.000000	42.547940
2993.000000	42.753764
2992.000000	43.114680
2991.000000	43.566260
2990.000000	44.044044
2989.000000	44.502091
2988.000000	44.915036
2987.000000	45.272078
2986.000000	45.573963
2985.000000	45.827855
2984.000000	46.039947
2983.000000	46.211425
2982.000000	46.342835
2981.000000	46.436474
2980.000000	46.492392
2979.000000	46.505237
2978.000000	46.467988
2977.000000	46.378673
2976.000000	46.242107
2975.000000	46.071679
2974.000000	45.891166
2973.000000	45.730460
2972.000000	45.614433
2971.000000	45.553261
2970.000000	45.540459
2969.000000	45.551912
2968.000000	45.544775
2967.000000	45.467175
2966.000000	45.281035
2965.000000	44.981228
2964.000000	44.596636
2963.000000	44.177388
2962.000000	43.780672
2961.000000	43.456760
2960.000000	43.238661
2959.000000	43.140298
2958.000000	43.164481
2957.000000	43.306196
2956.000000	43.548448
2955.000000	43.862360
2954.000000	44.214892
2953.000000	44.574362
2952.000000	44.906875
2951.000000	45.178711
2950.000000	45.368118
2949.000000	45.475763
2948.000000	45.520454
2947.000000	45.523789
2946.000000	45.492369
2945.000000	45.399111
2944.000000	45.179385
2943.000000	44.760275
2942.000000	44.121875
2941.000000	43.346255
2940.000000	42.611649
2939.000000	42.126817
2938.000000	42.040987
2937.000000	42.382953
2936.000000	43.057824
2935.000000	43.904126
2934.000000	44.769120
2933.000000	45.555619
2932.000000	46.224206
2931.000000	46.774788
2930.000000	47.229251
2929.000000	47.615383
2928.000000	47.955023
2927.000000	48.259635
2926.000000	48.536752
2925.000000	48.793747
2924.000000	49.034661
2923.000000	49.258788
2922.000000	49.465870
2921.000000	49.658566
2920.000000	49.837903
2919.000000	50.001763
2918.000000	50.149272
2917.000000	50.282883
2916.000000	50.404297
2915.000000	50.512466
2914.000000	50.607475
2913.000000	50.691799
2912.000000	50.766203
2911.000000	50.828271
2910.000000	50.876305
2909.000000	50.910350
2908.000000	50.927347
2907.000000	50.918493
2906.000000	50.872946
2905.000000	50.779091
2904.000000	50.621733
2903.000000	50.382529
2902.000000	50.051879
2901.000000	49.635459
2900.000000	49.155617
2899.000000	48.652052
2898.000000	48.179297
2897.000000	47.798196
2896.000000	47.556464
2895.000000	47.474460
2894.000000	47.545881
2893.000000	47.744561
2892.000000	48.031743
2891.000000	48.365159
2890.000000	48.711259
2889.000000	49.049671
2888.000000	49.368470
2887.000000	49.659707
2886.000000	49.920144
2885.000000	50.151583
2884.000000	50.355786
2883.000000	50.532794
2882.000000	50.684736
2881.000000	50.817312
2880.000000	50.935645
2879.000000	51.042036
2878.000000	51.139185
2877.000000	51.231433
2876.000000	51.320941
2875.000000	51.406099
2874.000000	51.485895
2873.000000	51.562311
2872.000000	51.637424
2871.000000	51.712672
2870.000000	51.792665
2869.000000	51.885410
2868.000000	51.995838
2867.000000	52.121966
2866.000000	52.258743
2865.000000	52.401545
2864.000000	52.544385
2863.000000	52.679785
2862.000000	52.803563
2861.000000	52.916784
2860.000000	53.021406
2859.000000	53.117442
2858.000000	53.206028
2857.000000	53.291106
2856.000000	53.375796
2855.000000	53.460571
2854.000000	53.546392
2853.000000	53.635339
2852.000000	53.726047
2851.000000	53.812682
2850.000000	53.890860
2849.000000	53.961436
2848.000000	54.027139
2847.000000	54.089413
2846.000000	54.150483
2845.000000	54.214349
2844.000000	54.283093
2843.000000	54.355101
2842.000000	54.428790
2841.000000	54.505263
2840.000000	54.585736
2839.000000	54.669570
2838.000000	54.756442
2837.000000	54.847450
2836.000000	54.942614
2835.000000	55.040328
2834.000000	55.140455
2833.000000	55.244875
2832.000000	55.353608
2831.000000	55.463504
2830.000000	55.572039
2829.000000	55.679212
2828.000000	55.784557
2827.000000	55.885831
2826.000000	55.982193
2825.000000	56.075519
2824.000000	56.167126
2823.000000	56.256099
2822.000000	56.342186
2821.000000	56.427073
2820.000000	56.511270
2819.000000	56.592817
2818.000000	56.670434
2817.000000	56.745023
2816.000000	56.816792
2815.000000	56.883944
2814.000000	56.945693
2813.000000	57.003680
2812.000000	57.059193
2811.000000	57.111961
2810.000000	57.162753
2809.000000	57.213983
2808.000000	57.266427
2807.000000	57.318318
2806.000000	57.368868
2805.000000	57.419560
2804.000000	57.470713
2803.000000	57.520069
2802.000000	57.566197
2801.000000	57.610331
2800.000000	57.653677
2799.000000	57.695923
2798.000000	57.737575
2797.000000	57.780518
2796.000000	57.824918
2795.000000	57.868662
2794.000000	57.911025
2793.000000	57.953755
2792.000000	57.997406
2791.000000	58.039870
2790.000000	58.079777
2789.000000	58.117962
2788.000000	58.154254
2787.000000	58.186331
2786.000000	58.213525
2785.000000	58.238861
2784.000000	58.265866
2783.000000	58.296458
2782.000000	58.333071
2781.000000	58.379051
2780.000000	58.434857
2779.000000	58.496597
2778.000000	58.559976
2777.000000	58.623269
2776.000000	58.685529
2775.000000	58.745336
2774.000000	58.803023
2773.000000	58.861077
2772.000000	58.920581
2771.000000	58.979856
2770.000000	59.037706
2769.000000	59.095029
2768.000000	59.151882
2767.000000	59.205863
2766.000000	59.255016
2765.000000	59.299667
2764.000000	59.340142
2763.000000	59.375612
2762.000000	59.406490
2761.000000	59.435279
2760.000000	59.463649
2759.000000	59.491038
2758.000000	59.517159
2757.000000	59.542863
2756.000000	59.567482
2755.000000	59.588384
2754.000000	59.604621
2753.000000	59.618718
2752.000000	59.634032
2751.000000	59.652982
2750.000000	59.678314
2749.000000	59.712291
2748.000000	59.752927
2747.000000	59.793973
2746.000000	59.830217
2745.000000	59.860638
2744.000000	59.886118
2743.000000	59.907560
2742.000000	59.927072
2741.000000	59.947193
2740.000000	59.966961
2739.000000	59.981614
2738.000000	59.988168
2737.000000	59.989509
2736.000000	59.992505
2735.000000	60.005111
2734.000000	60.035593
2733.000000	60.089623
2732.000000	60.165520
2731.000000	60.254502
2730.000000	60.346975
2729.000000	60.436996
2728.000000	60.520652
2727.000000	60.594432
2726.000000	60.657343
2725.000000	60.711604
2724.000000	60.759325
2723.000000	60.800781
2722.000000	60.836597
2721.000000	60.868539
2720.000000	60.897164
2719.000000	60.921190
2718.000000	60.940557
2717.000000	60.957588
2716.000000	60.974094
2715.000000	60.990343
2714.000000	61.007738
2713.000000	61.029392
2712.000000	61.056917
2711.000000	61.089454
2710.000000	61.126674
2709.000000	61.169669
2708.000000	61.217657
2707.000000	61.266748
2706.000000	61.313252
2705.000000	61.355403
2704.000000	61.390955
2703.000000	61.416503
2702.000000	61.430730
2701.000000	61.435471
2700.000000	61.432654
2699.000000	61.422746
2698.000000	61.407106
2697.000000	61.389059
2696.000000	61.371068
2695.000000	61.353690
2694.000000	61.338031
2693.000000	61.326013
2692.000000	61.317333
2691.000000	61.309298
2690.000000	61.300914
2689.000000	61.294342
2688.000000	61.291389
2687.000000	61.291592
2686.000000	61.294816
2685.000000	61.302342
2684.000000	61.314205
2683.000000	61.328878
2682.000000	61.346752
2681.000000	61.370987
2680.000000	61.403349
2679.000000	61.441849
2678.000000	61.483624
2677.000000	61.526767
2676.000000	61.568329
2675.000000	61.603931
2674.000000	61.631066
2673.000000	61.650397
2672.000000	61.662974
2671.000000	61.669069
2670.000000	61.670889
2669.000000	61.673534
2668.000000	61.681762
2667.000000	61.698146
2666.000000	61.724721
2665.000000	61.762869
2664.000000	61.810169
2663.000000	61.860427
2662.000000	61.907977
2661.000000	61.949579
2660.000000	61.982153
2659.000000	62.002493
2658.000000	62.010549
2657.000000	62.010087
2656.000000	62.004925
2655.000000	61.997386
2654.000000	61.991223
2653.000000	61.992245
2652.000000	62.004504
2651.000000	62.028680
2650.000000	62.064852
2649.000000	62.113095
2648.000000	62.170329
2647.000000	62.229919
2646.000000	62.286172
2645.000000	62.337068
2644.000000	62.381965
2643.000000	62.420536
2642.000000	62.455245
2641.000000	62.491431
2640.000000	62.533090
2639.000000	62.580621
2638.000000	62.633023
2637.000000	62.688832
2636.000000	62.744027
2635.000000	62.792697
2634.000000	62.831724
2633.000000	62.862292
2632.000000	62.886157
2631.000000	62.903813
2630.000000	62.916981
2629.000000	62.929312
2628.000000	62.942636
2627.000000	62.955300
2626.000000	62.965687
2625.000000	62.974059
2624.000000	62.980113
2623.000000	62.982067
2622.000000	62.979764
2621.000000	62.975970
2620.000000	62.972883
2619.000000	62.970116
2618.000000	62.966997
2617.000000	62.963518
2616.000000	62.957784
2615.000000	62.945347
2614.000000	62.923040
2613.000000	62.891243
2612.000000	62.851704
2611.000000	62.806610
2610.000000	62.760828
2609.000000	62.721711
2608.000000	62.694737
2607.000000	62.681553
2606.000000	62.682553
2605.000000	62.698344
2604.000000	62.727352
2603.000000	62.765242
2602.000000	62.808761
2601.000000	62.856790
2600.000000	62.907234
2599.000000	62.956062
2598.000000	63.000572
2597.000000	63.041083
2596.000000	63.078165
2595.000000	63.111399
2594.000000	63.141931
2593.000000	63.173029
2592.000000	63.206609
2591.000000	63.241912
2590.000000	63.278271
2589.000000	63.315879
2588.000000	63.352772
2587.000000	63.384272
2586.000000	63.407182
2585.000000	63.422150
2584.000000	63.431326
2583.000000	63.437131
2582.000000	63.444464
2581.000000	63.460556
2580.000000	63.490732
2579.000000	63.536253
2578.000000	63.596373
2577.000000	63.669441
2576.000000	63.750796
2575.000000	63.833279
2574.000000	63.911793
2573.000000	63.984816
2572.000000	64.051467
2571.000000	64.110401
2570.000000	64.162701
2569.000000	64.212521
2568.000000	64.263296
2567.000000	64.315656
2566.000000	64.369657
2565.000000	64.425759
2564.000000	64.482204
2563.000000	64.534844
2562.000000	64.580989
2561.000000	64.621093
2560.000000	64.656116
2559.000000	64.686240
2558.000000	64.713432
2557.000000	64.741919
2556.000000	64.774534
2555.000000	64.811048
2554.000000	64.850832
2553.000000	64.894224
2552.000000	64.940241
2551.000000	64.986003
2550.000000	65.029780
2549.000000	65.072142
2548.000000	65.113252
2547.000000	65.151987
2546.000000	65.188580
2545.000000	65.225129
2544.000000	65.262118
2543.000000	65.297188
2542.000000	65.328268
2541.000000	65.355033
2540.000000	65.376681
2539.000000	65.390929
2538.000000	65.396728
2537.000000	65.395212
2536.000000	65.386725
2535.000000	65.370147
2534.000000	65.345519
2533.000000	65.314887
2532.000000	65.279621
2531.000000	65.239507
2530.000000	65.195888
2529.000000	65.152421
2528.000000	65.111887
2527.000000	65.074997
2526.000000	65.042871
2525.000000	65.017400
2524.000000	64.997843
2523.000000	64.980033
2522.000000	64.960066
2521.000000	64.936006
2520.000000	64.905560
2519.000000	64.865688
2518.000000	64.816064
2517.000000	64.759995
2516.000000	64.700425
2515.000000	64.638142
2514.000000	64.574665
2513.000000	64.513586
2512.000000	64.457730
2511.000000	64.407961
2510.000000	64.365894
2509.000000	64.334809
2508.000000	64.316767
2507.000000	64.311289
2506.000000	64.318554
2505.000000	64.340038
2504.000000	64.375111
2503.000000	64.420210
2502.000000	64.471614
2501.000000	64.526820
2500.000000	64.582075
2499.000000	64.632141
2498.000000	64.674078
2497.000000	64.708302
2496.000000	64.735446
2495.000000	64.755339
2494.000000	64.769580
2493.000000	64.781325
2492.000000	64.791688
2491.000000	64.799290
2490.000000	64.804383
2489.000000	64.810125
2488.000000	64.818626
2487.000000	64.829331
2486.000000	64.842198
2485.000000	64.858893
2484.000000	64.879413
2483.000000	64.900897
2482.000000	64.921154
2481.000000	64.940411
2480.000000	64.958687
2479.000000	64.974771
2478.000000	64.989439
2477.000000	65.006489
2476.000000	65.029422
2475.000000	65.059735
2474.000000	65.098876
2473.000000	65.148671
2472.000000	65.208090
2471.000000	65.272777
2470.000000	65.338977
2469.000000	65.405034
2468.000000	65.468852
2467.000000	65.527303
2466.000000	65.579539
2465.000000	65.627895
2464.000000	65.674387
2463.000000	65.718982
2462.000000	65.761969
2461.000000	65.804625
2460.000000	65.846132
2459.000000	65.883088
2458.000000	65.912856
2457.000000	65.935092
2456.000000	65.949540
2455.000000	65.955536
2454.000000	65.955139
2453.000000	65.953469
2452.000000	65.954903
2451.000000	65.961296
2450.000000	65.974147
2449.000000	65.995011
2448.000000	66.022935
2447.000000	66.054790
2446.000000	66.089150
2445.000000	66.127241
2444.000000	66.169250
2443.000000	66.213172
2442.000000	66.257913
2441.000000	66.304005
2440.000000	66.350625
2439.000000	66.395150
2438.000000	66.436741
2437.000000	66.477019
2436.000000	66.516267
2435.000000	66.551933
2434.000000	66.581926
2433.000000	66.606118
2432.000000	66.623622
2431.000000	66.632318
2430.000000	66.631736
2429.000000	66.623734
2428.000000	66.609139
2427.000000	66.586645
2426.000000	66.556467
2425.000000	66.521349
2424.000000	66.483438
2423.000000	66.443240
2422.000000	66.402659
2421.000000	66.365937
2420.000000	66.336139
2419.000000	66.313659
2418.000000	66.298875
2417.000000	66.293001
2416.000000	66.294991
2415.000000	66.301056
2414.000000	66.308200
2413.000000	66.315033
2412.000000	66.318288
2411.000000	66.312205
2410.000000	66.292772
2409.000000	66.259819
2408.000000	66.214353
2407.000000	66.156945
2406.000000	66.090417
2405.000000	66.020571
2404.000000	65.952913
2403.000000	65.891325
2402.000000	65.840239
2401.000000	65.804333
2400.000000	65.784513
2399.000000	65.777182
2398.000000	65.778044
2397.000000	65.783624
2396.000000	65.788551
2395.000000	65.785757
2394.000000	65.771165
2393.000000	65.745604
2392.000000	65.711323
2391.000000	65.670734
2390.000000	65.629537
2389.000000	65.596801
2388.000000	65.581115
2387.000000	65.588254
2386.000000	65.623752
2385.000000	65.693586
2384.000000	65.799580
2383.000000	65.937902
2382.000000	66.101191
2381.000000	66.278870
2380.000000	66.454080
2379.000000	66.604794
2378.000000	66.711305
2377.000000	66.764637
2376.000000	66.766396
2375.000000	66.727438
2374.000000	66.668636
2373.000000	66.614645
2372.000000	66.585719
2371.000000	66.593199
2370.000000	66.638065
2369.000000	66.716483
2368.000000	66.823962
2367.000000	66.954005
2366.000000	67.094202
2365.000000	67.237703
2364.000000	67.392682
2363.000000	67.550266
2362.000000	67.699192
2361.000000	67.842085
2360.000000	67.957415
2359.000000	68.029118
2358.000000	68.035854
2357.000000	67.969145
2356.000000	67.849983
2355.000000	67.696564
2354.000000	67.559352
2353.000000	67.494442
2352.000000	67.560231
2351.000000	67.734592
2350.000000	67.866556
2349.000000	67.839569
2348.000000	67.652112
2347.000000	67.464597
2346.000000	67.427370
2345.000000	67.537570
2344.000000	67.698492
2343.000000	67.801086
2342.000000	67.855743
2341.000000	67.890542
2340.000000	67.918879
2339.000000	67.940308
2338.000000	67.953618
2337.000000	67.961229
2336.000000	67.970213
2335.000000	67.983121
2334.000000	68.009468
2333.000000	68.034376
2332.000000	68.036981
2331.000000	67.998761
2330.000000	67.896328
2329.000000	67.767299
2328.000000	67.625769
2327.000000	67.504668
2326.000000	67.416962
2325.000000	67.366577
2324.000000	67.360661
2323.000000	67.359285
2322.000000	67.345204
2321.000000	67.293335
2320.000000	67.214373
2319.000000	67.120814
2318.000000	67.033551
2317.000000	66.973115
2316.000000	66.944801
2315.000000	66.944140
2314.000000	66.947885
2313.000000	66.935279
2312.000000	66.883000
2311.000000	66.787254
2310.000000	66.654816
2309.000000	66.502019
2308.000000	66.337106
2307.000000	66.161588
2306.000000	65.978835
2305.000000	65.793704
2304.000000	65.612553
2303.000000	65.434594
2302.000000	65.259153
2301.000000	65.087513
2300.000000	64.920057
2299.000000	64.759587
2298.000000	64.609308
2297.000000	64.477342
2296.000000	64.364916
2295.000000	64.271895
2294.000000	64.196471
2293.000000	64.139554
2292.000000	64.099630
2291.000000	64.073458
2290.000000	64.061431
2289.000000	64.065914
2288.000000	64.089049
2287.000000	64.130067
2286.000000	64.190814
2285.000000	64.272657
2284.000000	64.372421
2283.000000	64.480633
2282.000000	64.589141
2281.000000	64.691997
2280.000000	64.783570
2279.000000	64.858103
2278.000000	64.915817
2277.000000	64.963150
2276.000000	65.006772
2275.000000	65.052291
2274.000000	65.105457
2273.000000	65.172586
2272.000000	65.254915
2271.000000	65.349073
2270.000000	65.452531
2269.000000	65.564671
2268.000000	65.683310
2267.000000	65.804373
2266.000000	65.926129
2265.000000	66.051038
2264.000000	66.180050
2263.000000	66.312211
2262.000000	66.447429
2261.000000	66.586052
2260.000000	66.725843
2259.000000	66.860252
2258.000000	66.984980
2257.000000	67.098333
2256.000000	67.199108
2255.000000	67.285893
2254.000000	67.360812
2253.000000	67.429896
2252.000000	67.497745
2251.000000	67.566497
2250.000000	67.639062
2249.000000	67.718437
2248.000000	67.803688
2247.000000	67.890326
2246.000000	67.973689
2245.000000	68.051613
2244.000000	68.121485
2243.000000	68.180233
2242.000000	68.227810
2241.000000	68.267201
2240.000000	68.299883
2239.000000	68.324694
2238.000000	68.341939
2237.000000	68.354463
2236.000000	68.364270
2235.000000	68.371415
2234.000000	68.377569
2233.000000	68.386493
2232.000000	68.400012
2231.000000	68.416795
2230.000000	68.435753
2229.000000	68.457002
2228.000000	68.478777
2227.000000	68.497542
2226.000000	68.512292
2225.000000	68.525491
2224.000000	68.538880
2223.000000	68.552014
2222.000000	68.565325
2221.000000	68.580823
2220.000000	68.598658
2219.000000	68.616611
2218.000000	68.633749
2217.000000	68.651260
2216.000000	68.669311
2215.000000	68.686957
2214.000000	68.705964
2213.000000	68.730714
2212.000000	68.763470
2211.000000	68.802973
2210.000000	68.848106
2209.000000	68.898738
2208.000000	68.952121
2207.000000	69.002352
2206.000000	69.044607
2205.000000	69.076973
2204.000000	69.097798
2203.000000	69.105385
2202.000000	69.101202
2201.000000	69.089943
2200.000000	69.075488
2199.000000	69.059875
2198.000000	69.046300
2197.000000	69.038923
2196.000000	69.038985
2195.000000	69.044717
2194.000000	69.055832
2193.000000	69.074274
2192.000000	69.100084
2191.000000	69.130727
2190.000000	69.165204
2189.000000	69.205006
2188.000000	69.250185
2187.000000	69.298464
2186.000000	69.348904
2185.000000	69.402426
2184.000000	69.457903
2183.000000	69.511520
2182.000000	69.561059
2181.000000	69.607114
2180.000000	69.649626
2179.000000	69.686945
2178.000000	69.719005
2177.000000	69.747578
2176.000000	69.772492
2175.000000	69.791399
2174.000000	69.803914
2173.000000	69.812326
2172.000000	69.817586
2171.000000	69.818541
2170.000000	69.815952
2169.000000	69.813214
2168.000000	69.812023
2167.000000	69.810930
2166.000000	69.809107
2165.000000	69.807668
2164.000000	69.806283
2163.000000	69.802483
2162.000000	69.795625
2161.000000	69.788431
2160.000000	69.783876
2159.000000	69.783925
2158.000000	69.791674
2157.000000	69.810464
2156.000000	69.839738
2155.000000	69.874913
2154.000000	69.911780
2153.000000	69.947600
2152.000000	69.978333
2151.000000	69.999596
2150.000000	70.011590
2149.000000	70.019351
2148.000000	70.027235
2147.000000	70.036801
2146.000000	70.049877
2145.000000	70.068891
2144.000000	70.093106
2143.000000	70.118392
2142.000000	70.141494
2141.000000	70.161188
2140.000000	70.175381
2139.000000	70.181410
2138.000000	70.179978
2137.000000	70.174981
2136.000000	70.168821
2135.000000	70.161381
2134.000000	70.153739
2133.000000	70.148328
2132.000000	70.144559
2131.000000	70.138344
2130.000000	70.126962
2129.000000	70.110871
2128.000000	70.090448
2127.000000	70.065220
2126.000000	70.037235
2125.000000	70.011194
2124.000000	69.990271
2123.000000	69.975656
2122.000000	69.970321
2121.000000	69.978828
2120.000000	70.002645
2119.000000	70.039273
2118.000000	70.085938
2117.000000	70.139907
2116.000000	70.194982
2115.000000	70.242613
2114.000000	70.278230
2113.000000	70.303077
2112.000000	70.319610
2111.000000	70.329182
2110.000000	70.334559
2109.000000	70.340233
2108.000000	70.348858
2107.000000	70.360337
2106.000000	70.374965
2105.000000	70.393684
2104.000000	70.414509
2103.000000	70.432587
2102.000000	70.444270
2101.000000	70.448109
2100.000000	70.441745
2099.000000	70.422081
2098.000000	70.389816
2097.000000	70.349986
2096.000000	70.307468
2095.000000	70.265779
2094.000000	70.230425
2093.000000	70.208145
2092.000000	70.201502
2091.000000	70.207855
2090.000000	70.224495
2089.000000	70.251203
2088.000000	70.287285
2087.000000	70.330459
2086.000000	70.378850
2085.000000	70.430214
2084.000000	70.479536
2083.000000	70.521423
2082.000000	70.554362
2081.000000	70.579253
2080.000000	70.594501
2079.000000	70.596756
2078.000000	70.586587
2077.000000	70.567907
2076.000000	70.542437
2075.000000	70.509260
2074.000000	70.468936
2073.000000	70.423612
2072.000000	70.372837
2071.000000	70.314106
2070.000000	70.248285
2069.000000	70.180372
2068.000000	70.113760
2067.000000	70.046765
2066.000000	69.975219
2065.000000	69.895752
2064.000000	69.806842
2063.000000	69.711005
2062.000000	69.614803
2061.000000	69.522212
2060.000000	69.429585
2059.000000	69.331124
2058.000000	69.228200
2057.000000	69.127864
2056.000000	69.033987
2055.000000	68.946096
2054.000000	68.865458
2053.000000	68.795643
2052.000000	68.736726
2051.000000	68.684420
2050.000000	68.635909
2049.000000	68.592293
2048.000000	68.553795
2047.000000	68.517897
2046.000000	68.485018
2045.000000	68.460597
2044.000000	68.448351
2043.000000	68.445616
2042.000000	68.447779
2041.000000	68.453382
2040.000000	68.462769
2039.000000	68.477054
2038.000000	68.499809
2037.000000	68.534440
2036.000000	68.579244
2035.000000	68.629557
2034.000000	68.685404
2033.000000	68.750935
2032.000000	68.826169
2031.000000	68.905814
2030.000000	68.986864
2029.000000	69.070115
2028.000000	69.153799
2027.000000	69.232754
2026.000000	69.305111
2025.000000	69.374538
2024.000000	69.442993
2023.000000	69.507920
2022.000000	69.569642
2021.000000	69.635151
2020.000000	69.709403
2019.000000	69.787114
2018.000000	69.858045
2017.000000	69.916921
2016.000000	69.966624
2015.000000	70.016328
2014.000000	70.077601
2013.000000	70.156920
2012.000000	70.249024
2011.000000	70.341490
2010.000000	70.427946
2009.000000	70.510539
2008.000000	70.589811
2007.000000	70.662179
2006.000000	70.728414
2005.000000	70.796452
2004.000000	70.871108
2003.000000	70.949939
2002.000000	71.030578
2001.000000	71.113225
2000.000000	71.195203
1999.000000	71.269065
1998.000000	71.329350
1997.000000	71.378323
1996.000000	71.425397
1995.000000	71.479977
1994.000000	71.543910
1993.000000	71.609844
1992.000000	71.667462
1991.000000	71.716529
1990.000000	71.770484
1989.000000	71.841477
1988.000000	71.926317
1987.000000	72.010017
1986.000000	72.081798
1985.000000	72.144355
1984.000000	72.204957
1983.000000	72.265902
1982.000000	72.326513
1981.000000	72.389160
1980.000000	72.459554
1979.000000	72.540430
1978.000000	72.627877
1977.000000	72.714785
1976.000000	72.797534
1975.000000	72.875357
1974.000000	72.945719
1973.000000	73.006230
1972.000000	73.061045
1971.000000	73.120087
1970.000000	73.189649
1969.000000	73.266652
1968.000000	73.339504
1967.000000	73.392861
1966.000000	73.418790
1965.000000	73.425898
1964.000000	73.431589
1963.000000	73.443126
1962.000000	73.450037
1961.000000	73.439069
1960.000000	73.411946
1959.000000	73.381941
1958.000000	73.358157
1957.000000	73.341434
1956.000000	73.332875
1955.000000	73.334370
1954.000000	73.343438
1953.000000	73.356810
1952.000000	73.375064
1951.000000	73.400288
1950.000000	73.431149
1949.000000	73.464070
1948.000000	73.497406
1947.000000	73.532187
1946.000000	73.570437
1945.000000	73.612109
1944.000000	73.650655
1943.000000	73.670474
1942.000000	73.657933
1941.000000	73.621006
1940.000000	73.587890
1939.000000	73.580682
1938.000000	73.596318
1937.000000	73.614929
1936.000000	73.623853
1935.000000	73.625468
1934.000000	73.624363
1933.000000	73.619220
1932.000000	73.605587
1931.000000	73.586187
1930.000000	73.569506
1929.000000	73.560165
1928.000000	73.555824
1927.000000	73.557943
1926.000000	73.580347
1925.000000	73.629256
1924.000000	73.684547
1923.000000	73.712574
1922.000000	73.704181
1921.000000	73.682833
1920.000000	73.670970
1919.000000	73.671196
1918.000000	73.673256
1917.000000	73.667665
1916.000000	73.654629
1915.000000	73.643451
1914.000000	73.646011
1913.000000	73.664525
1912.000000	73.686255
1911.000000	73.698810
1910.000000	73.700636
1909.000000	73.692448
1908.000000	73.670215
1907.000000	73.638434
1906.000000	73.619312
1905.000000	73.627198
1904.000000	73.649750
1903.000000	73.671381
1902.000000	73.698401
1901.000000	73.742281
1900.000000	73.796758
1899.000000	73.852446
1898.000000	73.917976
1897.000000	74.001583
1896.000000	74.084248
1895.000000	74.138276
1894.000000	74.168480
1893.000000	74.205785
1892.000000	74.264369
1891.000000	74.331187
1890.000000	74.384511
1889.000000	74.410314
1888.000000	74.412048
1887.000000	74.411814
1886.000000	74.435939
1885.000000	74.487181
1884.000000	74.538732
1883.000000	74.571492
1882.000000	74.600076
1881.000000	74.643654
1880.000000	74.694995
1879.000000	74.736111
1878.000000	74.769034
1877.000000	74.807771
1876.000000	74.850010
1875.000000	74.885677
1874.000000	74.923193
1873.000000	74.981401
1872.000000	75.060493
1871.000000	75.144035
1870.000000	75.222417
1869.000000	75.286340
1868.000000	75.310116
1867.000000	75.287528
1866.000000	75.260537
1865.000000	75.270808
1864.000000	75.317580
1863.000000	75.376136
1862.000000	75.435844
1861.000000	75.502789
1860.000000	75.570965
1859.000000	75.624022
1858.000000	75.663613
1857.000000	75.705076
1856.000000	75.746049
1855.000000	75.776763
1854.000000	75.801894
1853.000000	75.830791
1852.000000	75.865667
1851.000000	75.906524
1850.000000	75.965008
1849.000000	76.047723
1848.000000	76.136212
1847.000000	76.204274
1846.000000	76.244637
1845.000000	76.264749
1844.000000	76.264267
1843.000000	76.246297
1842.000000	76.233782
1841.000000	76.250305
1840.000000	76.301676
1839.000000	76.376041
1838.000000	76.450847
1837.000000	76.506366
1836.000000	76.539253
1835.000000	76.565791
1834.000000	76.604622
1833.000000	76.662213
1832.000000	76.738090
1831.000000	76.817985
1830.000000	76.866966
1829.000000	76.867214
1828.000000	76.857183
1827.000000	76.880175
1826.000000	76.937940
1825.000000	77.005957
1824.000000	77.053901
1823.000000	77.076188
1822.000000	77.093554
1821.000000	77.130931
1820.000000	77.191625
1819.000000	77.249484
1818.000000	77.286885
1817.000000	77.317054
1816.000000	77.355960
1815.000000	77.396199
1814.000000	77.430314
1813.000000	77.470446
1812.000000	77.515576
1811.000000	77.531027
1810.000000	77.502524
1809.000000	77.469360
1808.000000	77.458859
1807.000000	77.452140
1806.000000	77.442041
1805.000000	77.453192
1804.000000	77.494827
1803.000000	77.534374
1802.000000	77.538305
1801.000000	77.518614
1800.000000	77.500863
1799.000000	77.491976
1798.000000	77.504310
1797.000000	77.552809
1796.000000	77.617972
1795.000000	77.658159
1794.000000	77.660502
1793.000000	77.659188
1792.000000	77.672169
1791.000000	77.666070
1790.000000	77.637305
1789.000000	77.629722
1788.000000	77.661560
1787.000000	77.708244
1786.000000	77.745378
1785.000000	77.771617
1784.000000	77.795664
1783.000000	77.819019
1782.000000	77.838622
1781.000000	77.857069
1780.000000	77.865372
1779.000000	77.859954
1778.000000	77.862672
1777.000000	77.900413
1776.000000	77.974492
1775.000000	78.054343
1774.000000	78.104407
1773.000000	78.122443
1772.000000	78.134815
1771.000000	78.149353
1770.000000	78.164704
1769.000000	78.194579
1768.000000	78.258831
1767.000000	78.344823
1766.000000	78.419967
1765.000000	78.487599
1764.000000	78.572790
1763.000000	78.668728
1762.000000	78.719314
1761.000000	78.703820
1760.000000	78.675902
1759.000000	78.679067
1758.000000	78.700649
1757.000000	78.712199
1756.000000	78.718280
1755.000000	78.738760
1754.000000	78.761204
1753.000000	78.771349
1752.000000	78.795591
1751.000000	78.867515
1750.000000	78.964029
1749.000000	79.030422
1748.000000	79.072359
1747.000000	79.131740
1746.000000	79.213008
1745.000000	79.295959
1744.000000	79.373187
1743.000000	79.433064
1742.000000	79.448935
1741.000000	79.423162
1740.000000	79.409594
1739.000000	79.447611
1738.000000	79.506844
1737.000000	79.549140
1736.000000	79.562789
1735.000000	79.560340
1734.000000	79.556312
1733.000000	79.545411
1732.000000	79.541009
1731.000000	79.556863
1730.000000	79.584182
1729.000000	79.596044
1728.000000	79.590230
1727.000000	79.596845
1726.000000	79.627231
1725.000000	79.665988
1724.000000	79.686539
1723.000000	79.686273
1722.000000	79.687036
1721.000000	79.709291
1720.000000	79.755075
1719.000000	79.800019
1718.000000	79.806483
1717.000000	79.788105
1716.000000	79.772865
1715.000000	79.746592
1714.000000	79.733494
1713.000000	79.768135
1712.000000	79.827389
1711.000000	79.875266
1710.000000	79.911045
1709.000000	79.955230
1708.000000	80.016338
1707.000000	80.082639
1706.000000	80.158260
1705.000000	80.259377
1704.000000	80.365798
1703.000000	80.432723
1702.000000	80.433164
1701.000000	80.433606
1700.000000	80.496431
1699.000000	80.537718
1698.000000	80.523462
1697.000000	80.539207
1696.000000	80.619863
1695.000000	80.698441
1694.000000	80.732843
1693.000000	80.759832
1692.000000	80.815897
1691.000000	80.907879
1690.000000	81.003863
1689.000000	81.071836
1688.000000	81.114759
1687.000000	81.143661
1686.000000	81.160356
1685.000000	81.177695
1684.000000	81.186303
1683.000000	81.174364
1682.000000	81.171038
1681.000000	81.164483
1680.000000	81.144519
1679.000000	81.127227
1678.000000	81.104190
1677.000000	81.057109
1676.000000	80.995001
1675.000000	80.965721
1674.000000	80.964667
1673.000000	80.947660
1672.000000	80.914821
1671.000000	80.905719
1670.000000	80.919934
1669.000000	80.894967
1668.000000	80.821374
1667.000000	80.761705
1666.000000	80.740609
1665.000000	80.731078
1664.000000	80.713961
1663.000000	80.696905
1662.000000	80.668434
1661.000000	80.594459
1660.000000	80.470404
1659.000000	80.353109
1658.000000	80.288164
1657.000000	80.269554
1656.000000	80.243247
1655.000000	80.149729
1654.000000	79.904891
1653.000000	79.414398
1652.000000	78.818124
1651.000000	78.295703
1650.000000	77.777590
1649.000000	77.127122
1648.000000	76.149489
1647.000000	74.623016
1646.000000	72.637535
1645.000000	70.464394
1644.000000	68.151450
1643.000000	65.542055
1642.000000	62.528578
1641.000000	59.179345
1640.000000	55.769207
1639.000000	52.605761
1638.000000	49.812754
1637.000000	47.364923
1636.000000	45.404396
1635.000000	44.332553
1634.000000	44.280530
1633.000000	44.943605
1632.000000	46.007005
1631.000000	47.314338
1630.000000	48.820037
1629.000000	50.513615
1628.000000	52.347393
1627.000000	54.203893
1626.000000	56.007426
1625.000000	57.826316
1624.000000	59.763204
1623.000000	61.742772
1622.000000	63.528039
1621.000000	65.000050
1620.000000	66.244838
1619.000000	67.397668
1618.000000	68.548124
1617.000000	69.706877
1616.000000	70.770190
1615.000000	71.626071
1614.000000	72.290077
1613.000000	72.854712
1612.000000	73.389169
1611.000000	73.888030
1610.000000	74.293614
1609.000000	74.565465
1608.000000	74.696299
1607.000000	74.678004
1606.000000	74.478927
1605.000000	74.067692
1604.000000	73.429283
1603.000000	72.541036
1602.000000	71.388341
1601.000000	70.027748
1600.000000	68.598207
1599.000000	67.253581
1598.000000	66.088268
1597.000000	65.133963
1596.000000	64.386996
1595.000000	63.807881
1594.000000	63.316948
1593.000000	62.833223
1592.000000	62.319414
1591.000000	61.769654
1590.000000	61.173766
1589.000000	60.518622
1588.000000	59.806991
1587.000000	59.040919
1586.000000	58.192414
1585.000000	57.227944
1584.000000	56.162280
1583.000000	55.037783
1582.000000	53.873959
1581.000000	52.686002
1580.000000	51.518227
1579.000000	50.356772
1578.000000	49.010066
1577.000000	47.164796
1576.000000	44.829835
1575.000000	42.569293
1574.000000	40.801566
1573.000000	39.400200
1572.000000	38.103937
1571.000000	36.777550
1570.000000	35.441559
1569.000000	34.247127
1568.000000	33.376994
1567.000000	32.902390
1566.000000	32.742752
1565.000000	32.764766
1564.000000	32.931157
1563.000000	33.286395
1562.000000	33.851084
1561.000000	34.572385
1560.000000	35.518936
1559.000000	36.853727
1558.000000	38.304312
1557.000000	39.498471
1556.000000	40.473719
1555.000000	41.405050
1554.000000	42.334854
1553.000000	43.167754
1552.000000	43.872149
1551.000000	44.529226
1550.000000	45.212806
1549.000000	45.912493
1548.000000	46.626792
1547.000000	47.429921
1546.000000	48.392688
1545.000000	49.479333
1544.000000	50.565094
1543.000000	51.580022
1542.000000	52.569460
1541.000000	53.596766
1540.000000	54.618816
1539.000000	55.552774
1538.000000	56.381759
1537.000000	57.107511
1536.000000	57.778588
1535.000000	58.495377
1534.000000	59.302995
1533.000000	60.119377
1532.000000	60.842371
1531.000000	61.491603
1530.000000	62.141918
1529.000000	62.819160
1528.000000	63.493140
1527.000000	64.123069
1526.000000	64.683457
1525.000000	65.174719
1524.000000	65.626270
1523.000000	66.080210
1522.000000	66.541689
1521.000000	66.950035
1520.000000	67.278644
1519.000000	67.582529
1518.000000	67.909442
1517.000000	68.236217
1516.000000	68.512103
1515.000000	68.746782
1514.000000	68.985230
1513.000000	69.259251
1512.000000	69.594680
1511.000000	69.981541
1510.000000	70.377311
1509.000000	70.738888
1508.000000	71.048249
1507.000000	71.234656
1506.000000	71.302900
1505.000000	71.431513
1504.000000	71.655866
1503.000000	71.924223
1502.000000	72.217704
1501.000000	72.507926
1500.000000	72.790063
1499.000000	73.067778
1498.000000	73.310335
1497.000000	73.494827
1496.000000	73.656150
1495.000000	73.826569
1494.000000	73.988063
1493.000000	74.135151
1492.000000	74.308700
1491.000000	74.550402
1490.000000	74.816029
1489.000000	75.026305
1488.000000	75.173917
1487.000000	75.291195
1486.000000	75.387423
1485.000000	75.432906
1484.000000	75.406743
1483.000000	75.306990
1482.000000	75.100887
1481.000000	74.745216
1480.000000	74.244303
1479.000000	73.593514
1478.000000	72.690165
1477.000000	71.407427
1476.000000	69.737378
1475.000000	67.743376
1474.000000	65.397032
1473.000000	62.719505
1472.000000	60.114461
1471.000000	58.092636
1470.000000	56.745224
1469.000000	55.897765
1468.000000	55.448141
1467.000000	55.410247
1466.000000	55.848145
1465.000000	56.776313
1464.000000	58.027389
1463.000000	59.294317
1462.000000	60.344670
1461.000000	61.103667
1460.000000	61.543936
1459.000000	61.562693
1458.000000	60.939497
1457.000000	59.685043
1456.000000	58.391910
1455.000000	57.561919
1454.000000	57.125838
1453.000000	56.890494
1452.000000	56.771012
1451.000000	56.732789
1450.000000	56.758135
1449.000000	56.858812
1448.000000	57.062422
1447.000000	57.344840
1446.000000	57.648450
1445.000000	57.975023
1444.000000	58.382102
1443.000000	58.914524
1442.000000	59.587234
1441.000000	60.413649
1440.000000	61.417823
1439.000000	62.617307
1438.000000	64.021474
1437.000000	65.576927
1436.000000	67.065423
1435.000000	68.248098
1434.000000	69.116923
1433.000000	69.819918
1432.000000	70.455281
1431.000000	71.026062
1430.000000	71.503769
1429.000000	71.896768
1428.000000	72.244849
1427.000000	72.579550
1426.000000	72.906142
1425.000000	73.210998
1424.000000	73.486206
1423.000000	73.738250
1422.000000	73.980945
1421.000000	74.219155
1420.000000	74.453279
1419.000000	74.661998
1418.000000	74.797795
1417.000000	74.890615
1416.000000	75.021290
1415.000000	75.212597
1414.000000	75.434733
1413.000000	75.655572
1412.000000	75.868160
1411.000000	76.072000
1410.000000	76.254620
1409.000000	76.418685
1408.000000	76.588345
1407.000000	76.776617
1406.000000	76.964094
1405.000000	77.117884
1404.000000	77.230487
1403.000000	77.314704
1402.000000	77.356958
1401.000000	77.301668
1400.000000	77.084400
1399.000000	76.703860
1398.000000	76.273175
1397.000000	75.959909
1396.000000	75.878579
1395.000000	76.030874
1394.000000	76.286380
1393.000000	76.500694
1392.000000	76.662718
1391.000000	76.855091
1390.000000	77.144778
1389.000000	77.537613
1388.000000	77.986778
1387.000000	78.425202
1386.000000	78.806774
1385.000000	79.132632
1384.000000	79.431482
1383.000000	79.719990
1382.000000	79.994340
1381.000000	80.241360
1380.000000	80.446101
1379.000000	80.595190
1378.000000	80.677236
1377.000000	80.656612
1376.000000	80.414953
1375.000000	79.699498
1374.000000	78.153225
1373.000000	75.510411
1372.000000	71.796148
1371.000000	67.383198
1370.000000	62.997563
1369.000000	59.618693
1368.000000	58.065038
1367.000000	58.440735
1366.000000	60.093792
1365.000000	62.095105
1364.000000	63.609832
1363.000000	64.062342
1362.000000	63.366691
1361.000000	62.071016
1360.000000	61.067465
1359.000000	61.097075
1358.000000	62.424399
1357.000000	64.755003
1356.000000	67.458182
1355.000000	69.953820
1354.000000	71.962471
1353.000000	73.490807
1352.000000	74.657862
1351.000000	75.576970
1350.000000	76.335679
1349.000000	76.983022
1348.000000	77.535925
1347.000000	78.012177
1346.000000	78.438889
1345.000000	78.827415
1344.000000	79.172324
1343.000000	79.479055
1342.000000	79.773080
1341.000000	80.064392
1340.000000	80.325177
1339.000000	80.530519
1338.000000	80.696954
1337.000000	80.860624
1336.000000	81.036115
1335.000000	81.209919
1334.000000	81.350853
1333.000000	81.396434
1332.000000	81.243234
1331.000000	80.775069
1330.000000	79.910375
1329.000000	78.629821
1328.000000	76.949915
1327.000000	74.880611
1326.000000	72.425810
1325.000000	69.678121
1324.000000	66.972399
1323.000000	64.852845
1322.000000	63.750842
1321.000000	63.677168
1320.000000	64.262655
1319.000000	65.073448
1318.000000	65.873582
1317.000000	66.627376
1316.000000	67.358149
1315.000000	68.078383
1314.000000	68.807548
1313.000000	69.599871
1312.000000	70.528950
1311.000000	71.634705
1310.000000	72.873127
1309.000000	74.113221
1308.000000	75.190377
1307.000000	75.982514
1306.000000	76.447161
1305.000000	76.582910
1304.000000	76.390018
1303.000000	75.863272
1302.000000	75.000842
1301.000000	73.832636
1300.000000	72.467677
1299.000000	71.123792
1298.000000	70.063089
1297.000000	69.453828
1296.000000	69.278694
1295.000000	69.354332
1294.000000	69.420386
1293.000000	69.229527
1292.000000	68.612524
1291.000000	67.503742
1290.000000	65.907894
1289.000000	63.867599
1288.000000	61.513146
1287.000000	59.149245
1286.000000	57.216694
1285.000000	56.094857
1284.000000	55.916195
1283.000000	56.552940
1282.000000	57.772345
1281.000000	59.386365
1280.000000	61.260924
1279.000000	63.210200
1278.000000	64.944141
1277.000000	66.172693
1276.000000	66.756630
1275.000000	66.757033
1274.000000	66.374819
1273.000000	65.876287
1272.000000	65.550943
1271.000000	65.657774
1270.000000	66.328720
1269.000000	67.503592
1268.000000	68.975273
1267.000000	70.509734
1266.000000	71.938712
1265.000000	73.185906
1264.000000	74.248303
1263.000000	75.159299
1262.000000	75.953273
1261.000000	76.646120
1260.000000	77.239301
1259.000000	77.736663
1258.000000	78.153689
1257.000000	78.507221
1256.000000	78.810341
1255.000000	79.078024
1254.000000	79.326095
1253.000000	79.564656
1252.000000	79.795353
1251.000000	80.019040
1250.000000	80.238533
1249.000000	80.451922
1248.000000	80.654187
1247.000000	80.846349
1246.000000	81.034397
1245.000000	81.219324
1244.000000	81.395147
1243.000000	81.557538
1242.000000	81.705759
1241.000000	81.835329
1240.000000	81.937659
1239.000000	82.009034
1238.000000	82.054668
1237.000000	82.081093
1236.000000	82.091790
1235.000000	82.092027
1234.000000	82.087377
1233.000000	82.075482
1232.000000	82.045212
1231.000000	81.985242
1230.000000	81.888753
1229.000000	81.746875
1228.000000	81.547979
1227.000000	81.282839
1226.000000	80.941406
1225.000000	80.506092
1224.000000	79.945199
1223.000000	79.220059
1222.000000	78.288062
1221.000000	77.098040
1220.000000	75.610797
1219.000000	73.821641
1218.000000	71.769590
1217.000000	69.529582
1216.000000	67.206340
1215.000000	64.935916
1214.000000	62.873282
1213.000000	61.169647
1212.000000	59.952602
1211.000000	59.300073
1210.000000	59.188432
1209.000000	59.487458
1208.000000	60.010593
1207.000000	60.567310
1206.000000	60.997136
1205.000000	61.180103
1204.000000	61.046416
1203.000000	60.580825
1202.000000	59.821522
1201.000000	58.867498
1200.000000	57.889777
1199.000000	57.108327
1198.000000	56.719162
1197.000000	56.821333
1196.000000	57.408355
1195.000000	58.396356
1194.000000	59.663670
1193.000000	61.092655
1192.000000	62.592398
1191.000000	64.107227
1190.000000	65.599203
1189.000000	67.036810
1188.000000	68.398451
1187.000000	69.672255
1186.000000	70.849468
1185.000000	71.924486
1184.000000	72.899902
1183.000000	73.780386
1182.000000	74.565584
1181.000000	75.245002
1180.000000	75.809886
1179.000000	76.267310
1178.000000	76.632499
1177.000000	76.918768
1176.000000	77.130788
1175.000000	77.269320
1174.000000	77.334371
1173.000000	77.312383
1172.000000	77.174959
1171.000000	76.877643
1170.000000	76.360285
1169.000000	75.556491
1168.000000	74.410649
1167.000000	72.919686
1166.000000	71.163848
1165.000000	69.313153
1164.000000	67.607083
1163.000000	66.301549
1162.000000	65.582646
1161.000000	65.507749
1160.000000	66.011195
1159.000000	66.939246
1158.000000	68.106108
1157.000000	69.334759
1156.000000	70.489282
1155.000000	71.488291
1154.000000	72.291600
1153.000000	72.884667
1152.000000	73.269888
1151.000000	73.461637
1150.000000	73.472483
1149.000000	73.309743
1148.000000	72.964720
1147.000000	72.412851
1146.000000	71.611795
1145.000000	70.487050
1144.000000	68.951076
1143.000000	66.920061
1142.000000	64.349632
1141.000000	61.286716
1140.000000	57.902977
1139.000000	54.479860
1138.000000	51.300554
1137.000000	48.526197
1136.000000	46.149827
1135.000000	44.054048
1134.000000	42.117933
1133.000000	40.357403
1132.000000	39.009567
1131.000000	38.453114
1130.000000	39.029897
1129.000000	40.839634
1128.000000	43.677801
1127.000000	47.098672
1126.000000	50.535367
1125.000000	53.447316
1124.000000	55.424164
1123.000000	56.223234
1122.000000	55.766402
1121.000000	54.136024
1120.000000	51.515956
1119.000000	48.163460
1118.000000	44.433431
1117.000000	40.838353
1116.000000	38.039494
1115.000000	36.660609
1114.000000	37.001370
1113.000000	38.889398
1112.000000	41.770997
1111.000000	44.888615
1110.000000	47.522959
1109.000000	49.255385
1108.000000	50.142360
1107.000000	50.641155
1106.000000	51.279870
1105.000000	52.328207
1104.000000	53.695134
1103.000000	55.036961
1102.000000	55.898259
1101.000000	55.874814
1100.000000	54.791888
1099.000000	52.866814
1098.000000	50.735448
1097.000000	49.233417
1096.000000	49.023384
1095.000000	50.286578
1094.000000	52.671707
1093.000000	55.538390
1092.000000	58.319669
1091.000000	60.712675
1090.000000	62.657947
1089.000000	64.220883
1088.000000	65.497798
1087.000000	66.579110
1086.000000	67.536133
1085.000000	68.412228
1084.000000	69.225204
1083.000000	69.986519
1082.000000	70.700276
1081.000000	71.361677
1080.000000	71.961981
1079.000000	72.491878
1078.000000	72.942561
1077.000000	73.292200
1076.000000	73.506541
1075.000000	73.547827
1074.000000	73.363650
1073.000000	72.885277
1072.000000	72.004095
1071.000000	70.566797
1070.000000	68.378694
1069.000000	65.194729
1068.000000	60.812835
1067.000000	55.218509
1066.000000	48.754530
1065.000000	42.184356
1064.000000	36.522844
1063.000000	32.613486
1062.000000	30.649697
1061.000000	30.008910
1060.000000	29.602719
1059.000000	28.569842
1058.000000	26.786501
1057.000000	24.925906
1056.000000	24.017847
1055.000000	24.776207
1054.000000	27.227394
1053.000000	30.803845
1052.000000	34.765047
1051.000000	38.559772
1050.000000	41.912820
1049.000000	44.773718
1048.000000	47.221961
1047.000000	49.378890
1046.000000	51.328629
1045.000000	53.100873
1044.000000	54.694992
1043.000000	56.114148
1042.000000	57.368103
1041.000000	58.460525
1040.000000	59.403396
1039.000000	60.217047
1038.000000	60.920168
1037.000000	61.523807
1036.000000	62.037085
1035.000000	62.478576
1034.000000	62.864926
1033.000000	63.204069
1032.000000	63.505397
1031.000000	63.784261
1030.000000	64.053565
1029.000000	64.312988
1028.000000	64.554676
1027.000000	64.771559
1026.000000	64.949985
1025.000000	65.067848
1024.000000	65.105168
1023.000000	65.054266
1022.000000	64.916906
1021.000000	64.690314
1020.000000	64.369145
1019.000000	63.942027
1018.000000	63.375354
1017.000000	62.610743
1016.000000	61.576198
1015.000000	60.224321
1014.000000	58.567535
1013.000000	56.708698
1012.000000	54.851953
1011.000000	53.244048
1010.000000	52.048152
1009.000000	51.234794
1008.000000	50.602227
1007.000000	49.931471
1006.000000	49.193197
1005.000000	48.635766
1004.000000	48.664954
1003.000000	49.573383
1002.000000	51.308724
1001.000000	53.501221
1000.000000	55.677997
999.000000	57.469876
998.000000	58.687052
997.000000	59.292907
996.000000	59.367613
995.000000	59.086803
994.000000	58.697573
993.000000	58.470346
992.000000	58.633557
991.000000	59.292062
990.000000	60.376594
989.000000	61.685920
988.000000	63.006423
987.000000	64.200647
986.000000	65.220382
985.000000	66.074019
984.000000	66.796723
983.000000	67.431565
982.000000	68.012052
981.000000	68.552039
980.000000	69.053768
979.000000	69.521693
978.000000	69.955810
977.000000	70.347052
976.000000	70.685791
975.000000	70.972381
974.000000	71.216192
973.000000	71.427330
972.000000	71.620115
971.000000	71.816602
970.000000	72.036312
969.000000	72.284864
968.000000	72.556114
967.000000	72.840205
966.000000	73.122587
965.000000	73.381273
964.000000	73.596755
963.000000	73.763810
962.000000	73.890770
961.000000	73.991538
960.000000	74.084060
959.000000	74.191563
958.000000	74.333585
957.000000	74.514963
956.000000	74.727103
955.000000	74.955903
954.000000	75.183245
953.000000	75.387052
952.000000	75.550934
951.000000	75.675256
950.000000	75.773940
949.000000	75.863387
948.000000	75.958831
947.000000	76.075501
946.000000	76.222757
945.000000	76.396195
944.000000	76.581578
943.000000	76.765175
942.000000	76.936714
941.000000	77.086998
940.000000	77.211638
939.000000	77.317070
938.000000	77.416436
937.000000	77.519035
936.000000	77.628293
935.000000	77.745887
934.000000	77.870622
933.000000	77.994537
932.000000	78.107913
931.000000	78.208978
930.000000	78.303753
929.000000	78.398599
928.000000	78.498737
927.000000	78.611473
926.000000	78.741853
925.000000	78.883872
924.000000	79.021916
923.000000	79.141676
922.000000	79.235376
921.000000	79.299771
920.000000	79.338122
919.000000	79.365887
918.000000	79.406724
917.000000	79.478950
916.000000	79.588616
915.000000	79.732538
914.000000	79.899290
913.000000	80.066708
912.000000	80.205809
911.000000	80.293563
910.000000	80.317312
909.000000	80.265118
908.000000	80.119162
907.000000	79.853769
906.000000	79.438372
905.000000	78.833251
904.000000	78.001120
903.000000	76.955631
902.000000	75.818066
901.000000	74.824642
900.000000	74.246145
899.000000	74.247914
898.000000	74.787697
897.000000	75.653745
896.000000	76.599690
895.000000	77.463967
894.000000	78.197443
893.000000	78.811520
892.000000	79.332777
891.000000	79.782940
890.000000	80.173056
889.000000	80.498516
888.000000	80.748556
887.000000	80.910852
886.000000	80.961826
885.000000	80.855520
884.000000	80.543007
883.000000	80.032006
882.000000	79.415157
881.000000	78.822785
880.000000	78.327459
879.000000	77.892422
878.000000	77.429709
877.000000	76.923002
876.000000	76.500245
875.000000	76.361293
874.000000	76.623628
873.000000	77.228270
872.000000	77.991829
871.000000	78.731848
870.000000	79.347411
869.000000	79.821676
868.000000	80.184087
867.000000	80.479736
866.000000	80.746589
865.000000	81.002972
864.000000	81.248526
863.000000	81.476368
862.000000	81.677999
861.000000	81.840843
860.000000	81.953945
859.000000	82.017017
858.000000	82.042148
857.000000	82.046812
856.000000	82.050964
855.000000	82.078426
854.000000	82.149538
853.000000	82.269111
852.000000	82.424496
851.000000	82.594071
850.000000	82.752983
849.000000	82.875034
848.000000	82.940940
847.000000	82.949669
846.000000	82.917865
845.000000	82.869726
844.000000	82.832012
843.000000	82.833493
842.000000	82.895340
841.000000	83.017435
840.000000	83.178838
839.000000	83.351341
838.000000	83.507916
837.000000	83.622930
836.000000	83.677544
835.000000	83.671856
834.000000	83.627335
833.000000	83.574793
832.000000	83.543133
831.000000	83.556470
830.000000	83.629859
829.000000	83.761110
828.000000	83.930689
827.000000	84.112146
826.000000	84.280841
825.000000	84.415755
824.000000	84.503954
823.000000	84.548084
822.000000	84.564911
821.000000	84.574296
820.000000	84.593039
819.000000	84.635403
818.000000	84.708916
817.000000	84.807193
816.000000	84.912368
815.000000	85.006638
814.000000	85.077439
813.000000	85.112297
812.000000	85.098232
811.000000	85.027985
810.000000	84.901188
809.000000	84.716853
808.000000	84.466318
807.000000	84.136814
806.000000	83.710726
805.000000	83.160287
804.000000	82.450457
803.000000	81.543053
802.000000	80.401002
801.000000	78.982904
800.000000	77.250265
799.000000	75.190301
798.000000	72.822300
797.000000	70.199252
796.000000	67.405833
795.000000	64.558126
794.000000	61.788130
793.000000	59.226385
792.000000	56.998470
791.000000	55.219753
790.000000	53.976085
789.000000	53.297387
788.000000	53.161796
787.000000	53.498315
786.000000	54.194422
785.000000	55.118787
784.000000	56.146609
783.000000	57.179168
782.000000	58.135748
781.000000	58.949607
780.000000	59.574279
779.000000	59.992126
778.000000	60.210481
777.000000	60.250374
776.000000	60.135828
775.000000	59.883659
774.000000	59.507718
773.000000	59.043083
772.000000	58.580925
771.000000	58.266696
770.000000	58.250633
769.000000	58.624051
768.000000	59.392471
767.000000	60.488230
766.000000	61.802676
765.000000	63.225934
764.000000	64.673497
763.000000	66.094740
762.000000	67.460312
761.000000	68.748346
760.000000	69.941085
759.000000	71.029029
758.000000	72.012077
757.000000	72.895605
756.000000	73.690400
755.000000	74.413734
754.000000	75.086971
753.000000	75.727633
752.000000	76.346514
751.000000	76.949541
750.000000	77.534968
749.000000	78.089550
748.000000	78.591996
747.000000	79.023283
746.000000	79.373980
745.000000	79.644952
744.000000	79.849017
743.000000	80.011753
742.000000	80.164371
741.000000	80.332120
740.000000	80.528850
739.000000	80.757807
738.000000	81.007940
737.000000	81.247730
736.000000	81.431763
735.000000	81.520441
734.000000	81.495839
733.000000	81.363997
732.000000	81.153186
731.000000	80.911611
730.000000	80.694538
729.000000	80.541774
728.000000	80.463837
727.000000	80.440823
726.000000	80.424743
725.000000	80.351171
724.000000	80.160446
723.000000	79.806179
722.000000	79.234372
721.000000	78.368626
720.000000	77.145707
719.000000	75.581350
718.000000	73.792444
717.000000	71.959185
716.000000	70.277945
715.000000	68.927395
714.000000	68.038504
713.000000	67.664469
712.000000	67.771448
711.000000	68.261206
710.000000	69.014309
709.000000	69.925152
708.000000	70.916010
707.000000	71.939041
706.000000	72.969261
705.000000	73.993082
704.000000	74.994902
703.000000	75.955120
702.000000	76.859091
701.000000	77.701927
700.000000	78.482704
699.000000	79.202043
698.000000	79.863212
697.000000	80.468866
696.000000	81.015268
695.000000	81.493714
694.000000	81.901150
693.000000	82.244925
692.000000	82.539066
691.000000	82.800371
690.000000	83.047360
689.000000	83.298527
688.000000	83.565609
687.000000	83.848706
686.000000	84.137080
685.000000	84.408703
684.000000	84.630911
683.000000	84.775625
682.000000	84.840051
681.000000	84.849019
680.000000	84.835429
679.000000	84.832649
678.000000	84.869338
677.000000	84.954368
676.000000	85.100712
675.000000	85.276300
674.000000	85.449736
673.000000	85.675011
672.000000	86.054697
671.000000	86.604900
670.000000	87.203445
669.000000	87.545891
668.000000	87.146953
667.000000	86.246397
666.000000	85.727876
665.000000	85.635454
664.000000	85.682670
663.000000	85.769651
662.000000	85.871164
661.000000	85.939482
660.000000	85.932648
659.000000	85.881552
658.000000	85.851180
657.000000	85.861059
656.000000	85.919791
655.000000	86.022279
654.000000	86.137623
653.000000	86.222788
652.000000	86.250200
651.000000	86.220949
650.000000	86.146824
649.000000	86.035664
648.000000	85.906558
647.000000	85.803866
646.000000	85.767232
645.000000	85.794021
644.000000	85.841572
643.000000	85.857423
642.000000	85.800442
641.000000	85.646239
640.000000	85.403241
639.000000	85.122613
638.000000	84.873434
637.000000	84.702638
636.000000	84.624937
635.000000	84.631335
634.000000	84.684192
633.000000	84.718149
632.000000	84.669857
631.000000	84.507496
630.000000	84.234094
629.000000	83.877410
628.000000	83.488503
627.000000	83.135524
626.000000	82.869142
625.000000	82.696128
624.000000	82.587407
623.000000	82.501458
622.000000	82.390851
621.000000	82.208324
620.000000	81.929478
619.000000	81.552815
618.000000	81.075272
617.000000	80.494251
616.000000	79.847879
615.000000	79.213062
614.000000	78.634428
613.000000	78.079435
612.000000	77.482559
611.000000	76.802906
610.000000	76.020378
609.000000	75.110192
608.000000	74.061172
607.000000	72.898928
606.000000	71.648084
605.000000	70.299231
604.000000	68.839557
603.000000	67.288661
602.000000	65.662757
601.000000	63.944265
600.000000	62.129318
599.000000	60.277552
598.000000	58.451554
597.000000	56.651535
596.000000	54.869105
595.000000	53.146877
594.000000	51.522578
593.000000	49.964082
592.000000	48.443470
591.000000	47.013924
590.000000	45.739131
589.000000	44.605543
588.000000	43.572770
587.000000	42.637935
586.000000	41.769083
585.000000	40.855416
584.000000	39.807541
583.000000	38.653178
582.000000	37.467690
581.000000	36.300191
580.000000	35.236560
579.000000	34.452100
578.000000	34.084526
577.000000	34.135311
576.000000	34.546138
575.000000	35.259225
574.000000	36.155540
573.000000	37.038718
572.000000	37.782687
571.000000	38.435589
570.000000	39.133755
569.000000	39.969417
568.000000	40.976616
567.000000	42.148788
566.000000	43.397808
565.000000	44.577675
564.000000	45.608323
563.000000	46.522302
562.000000	47.360026
561.000000	48.100251
560.000000	48.731495
559.000000	49.303905
558.000000	49.856993
557.000000	50.372889
556.000000	50.846028
555.000000	51.334086
554.000000	51.883673
553.000000	52.473324
552.000000	53.077636
551.000000	53.719868
550.000000	54.410761
549.000000	55.098692
548.000000	55.737014
547.000000	56.340951
546.000000	56.933791
545.000000	57.493857
544.000000	58.007417
543.000000	58.512504
542.000000	59.041392
541.000000	59.569554
540.000000	60.066504
539.000000	60.545565
538.000000	61.020829
537.000000	61.471037
536.000000	61.884093
535.000000	62.294274
534.000000	62.720722
533.000000	63.134852
532.000000	63.498613
531.000000	63.803478
530.000000	64.045651
529.000000	64.196422
528.000000	64.222130
527.000000	64.127011
526.000000	63.928890
525.000000	63.620734
524.000000	63.209371
523.000000	62.740447
522.000000	62.267502
521.000000	61.818048
520.000000	61.395265
519.000000	60.957819
518.000000	60.350856
517.000000	59.330808
516.000000	57.734839
515.000000	55.619404
514.000000	53.219661
513.000000	50.844993
512.000000	48.823764
511.000000	47.457448
510.000000	46.905201
509.000000	47.131647
508.000000	48.004048
507.000000	49.364890
506.000000	51.007834
505.000000	52.713375
504.000000	54.365753
503.000000	55.971880
502.000000	57.529879
501.000000	58.973649
500.000000	60.259143
499.000000	61.424032
498.000000	62.511496
497.000000	63.511431
496.000000	64.399823
495.000000	65.183100
494.000000	65.890166
493.000000	66.529877
492.000000	67.094586
491.000000	67.605235
490.000000	68.091153
489.000000	68.568433
488.000000	69.041115
487.000000	69.523558
486.000000	70.031417
485.000000	70.550307
484.000000	71.044849
483.000000	71.498503
482.000000	71.910288
481.000000	72.252440
480.000000	72.493247
479.000000	72.653733
478.000000	72.768060
477.000000	72.841599
476.000000	72.880573
475.000000	72.906823
474.000000	72.878612
473.000000	72.640200
472.000000	72.042761
471.000000	71.141226
470.000000	70.112671
469.000000	69.103046
468.000000	68.257359
467.000000	67.715606
466.000000	67.426667
465.000000	67.106459
464.000000	66.460513
463.000000	65.419289
462.000000	64.208463
461.000000	63.210770
460.000000	62.825477
459.000000	63.352981
458.000000	64.768784
457.000000	66.596053
456.000000	68.293865
455.000000	69.703208
454.000000	70.895117
453.000000	71.893083
452.000000	72.683965
451.000000	73.331997
450.000000	73.865506
449.000000	74.175648
448.000000	74.109083
447.000000	73.606593
446.000000	72.714047
445.000000	71.549798
444.000000	70.339265
443.000000	69.409795
442.000000	69.011800
441.000000	69.145976
440.000000	69.683305
439.000000	70.502977
438.000000	71.461887
437.000000	72.376514
436.000000	73.120912
435.000000	73.688615
434.000000	74.099932
433.000000	74.333058
432.000000	74.383428
431.000000	74.304946
430.000000	74.164969
429.000000	73.987196
428.000000	73.798795
427.000000	73.682435
426.000000	73.684454
425.000000	73.720230
424.000000	73.673391
423.000000	73.565071
422.000000	73.464420
421.000000	73.309939
420.000000	72.965865
419.000000	72.495023
418.000000	72.164817
417.000000	72.011048
416.000000	71.927804
415.000000	71.948858
414.000000	72.126031
413.000000	72.385694
412.000000	72.625532
411.000000	72.829699
410.000000	73.020420
409.000000	73.122885
408.000000	73.076750
407.000000	72.993552
406.000000	73.007150
405.000000	73.074503
404.000000	73.142528
403.000000	73.332355
402.000000	73.763834
401.000000	74.311187
400.000000	74.714588
