PE IR       SUBTECH     SPECTRUM    ASCII       PEDS        4.00        
   -1
23ms039-cis.asc
24/10/21
14:59:52.00
24/10/21
14:59:52.00
Administrator
Sample 1311 By Administrator Date Monday, October 21 2024
400.000000
#HDR
-1
-1
#GR
cm-1
%T
1.0
0.0
4000.000000
-1.000000
3601
8
75.814785
5.124722
#DATA
4000.000000	43.446130
3999.000000	43.408570
3998.000000	43.373216
3997.000000	43.340935
3996.000000	43.313137
3995.000000	43.290377
3994.000000	43.271570
3993.000000	43.254363
3992.000000	43.235923
3991.000000	43.213488
3990.000000	43.184972
3989.000000	43.149598
3988.000000	43.108312
3987.000000	43.063869
3986.000000	43.020506
3985.000000	42.983304
3984.000000	42.957030
3983.000000	42.945061
3982.000000	42.948922
3981.000000	42.968733
3980.000000	43.003891
3979.000000	43.053005
3978.000000	43.113947
3977.000000	43.183995
3976.000000	43.260374
3975.000000	43.340912
3974.000000	43.423755
3973.000000	43.507071
3972.000000	43.589148
3971.000000	43.668841
3970.000000	43.745797
3969.000000	43.820214
3968.000000	43.892533
3967.000000	43.963155
3966.000000	44.032173
3965.000000	44.099355
3964.000000	44.164462
3963.000000	44.227551
3962.000000	44.288879
3961.000000	44.348605
3960.000000	44.406978
3959.000000	44.464583
3958.000000	44.521776
3957.000000	44.578269
3956.000000	44.633410
3955.000000	44.686954
3954.000000	44.739056
3953.000000	44.789772
3952.000000	44.838740
3951.000000	44.885390
3950.000000	44.929604
3949.000000	44.971839
3948.000000	45.012334
3947.000000	45.050326
3946.000000	45.085144
3945.000000	45.117676
3944.000000	45.149883
3943.000000	45.183074
3942.000000	45.217052
3941.000000	45.251221
3940.000000	45.286401
3939.000000	45.324336
3938.000000	45.365185
3937.000000	45.407064
3936.000000	45.447477
3935.000000	45.485371
3934.000000	45.520928
3933.000000	45.554369
3932.000000	45.585578
3931.000000	45.614369
3930.000000	45.640940
3929.000000	45.665055
3928.000000	45.685864
3927.000000	45.703916
3926.000000	45.721761
3925.000000	45.741142
3924.000000	45.760814
3923.000000	45.779221
3922.000000	45.797229
3921.000000	45.815419
3920.000000	45.831578
3919.000000	45.843733
3918.000000	45.853598
3917.000000	45.864632
3916.000000	45.877700
3915.000000	45.891904
3914.000000	45.907928
3913.000000	45.927179
3912.000000	45.949300
3911.000000	45.973068
3910.000000	45.997532
3909.000000	46.022568
3908.000000	46.047104
3907.000000	46.069936
3906.000000	46.090439
3905.000000	46.108807
3904.000000	46.124505
3903.000000	46.136475
3902.000000	46.146995
3901.000000	46.162478
3900.000000	46.187459
3899.000000	46.220164
3898.000000	46.256261
3897.000000	46.294768
3896.000000	46.337325
3895.000000	46.383173
3894.000000	46.428840
3893.000000	46.473191
3892.000000	46.518603
3891.000000	46.565589
3890.000000	46.607584
3889.000000	46.640958
3888.000000	46.669794
3887.000000	46.699502
3886.000000	46.732325
3885.000000	46.764344
3884.000000	46.788871
3883.000000	46.807810
3882.000000	46.827549
3881.000000	46.850504
3880.000000	46.874501
3879.000000	46.894325
3878.000000	46.907941
3877.000000	46.919866
3876.000000	46.935114
3875.000000	46.955843
3874.000000	46.978379
3873.000000	46.995225
3872.000000	47.005461
3871.000000	47.017525
3870.000000	47.038405
3869.000000	47.062297
3868.000000	47.080809
3867.000000	47.099514
3866.000000	47.125785
3865.000000	47.155780
3864.000000	47.182643
3863.000000	47.205811
3862.000000	47.229402
3861.000000	47.256016
3860.000000	47.286044
3859.000000	47.322405
3858.000000	47.366113
3857.000000	47.411528
3856.000000	47.445415
3855.000000	47.457929
3854.000000	47.456380
3853.000000	47.453061
3852.000000	47.445723
3851.000000	47.440731
3850.000000	47.454525
3849.000000	47.486177
3848.000000	47.524076
3847.000000	47.561228
3846.000000	47.596456
3845.000000	47.629929
3844.000000	47.662000
3843.000000	47.692467
3842.000000	47.719792
3841.000000	47.744267
3840.000000	47.767497
3839.000000	47.790361
3838.000000	47.812485
3837.000000	47.834830
3836.000000	47.858701
3835.000000	47.885274
3834.000000	47.914882
3833.000000	47.947658
3832.000000	47.983142
3831.000000	48.018681
3830.000000	48.051201
3829.000000	48.081338
3828.000000	48.113636
3827.000000	48.151732
3826.000000	48.192406
3825.000000	48.228327
3824.000000	48.256540
3823.000000	48.281238
3822.000000	48.310255
3821.000000	48.346969
3820.000000	48.379502
3819.000000	48.399956
3818.000000	48.418149
3817.000000	48.442966
3816.000000	48.473695
3815.000000	48.501144
3814.000000	48.521063
3813.000000	48.543794
3812.000000	48.577074
3811.000000	48.615015
3810.000000	48.649775
3809.000000	48.681267
3808.000000	48.715620
3807.000000	48.754717
3806.000000	48.789780
3805.000000	48.813169
3804.000000	48.830172
3803.000000	48.848071
3802.000000	48.869900
3801.000000	48.892799
3800.000000	48.907179
3799.000000	48.916629
3798.000000	48.934073
3797.000000	48.961762
3796.000000	48.992818
3795.000000	49.021046
3794.000000	49.047497
3793.000000	49.076992
3792.000000	49.110474
3791.000000	49.144736
3790.000000	49.177707
3789.000000	49.208954
3788.000000	49.238053
3787.000000	49.264989
3786.000000	49.291985
3785.000000	49.320948
3784.000000	49.349785
3783.000000	49.374369
3782.000000	49.394554
3781.000000	49.414368
3780.000000	49.437035
3779.000000	49.461384
3778.000000	49.483662
3777.000000	49.504370
3776.000000	49.528163
3775.000000	49.556654
3774.000000	49.585427
3773.000000	49.610478
3772.000000	49.633345
3771.000000	49.658444
3770.000000	49.686011
3769.000000	49.711510
3768.000000	49.732839
3767.000000	49.755391
3766.000000	49.785356
3765.000000	49.821941
3764.000000	49.858526
3763.000000	49.891786
3762.000000	49.925835
3761.000000	49.964295
3760.000000	50.005398
3759.000000	50.046854
3758.000000	50.089229
3757.000000	50.133334
3756.000000	50.176920
3755.000000	50.218329
3754.000000	50.257245
3753.000000	50.292017
3752.000000	50.321208
3751.000000	50.349220
3750.000000	50.382609
3749.000000	50.418556
3748.000000	50.449277
3747.000000	50.475023
3746.000000	50.502360
3745.000000	50.539823
3744.000000	50.585901
3743.000000	50.620522
3742.000000	50.644802
3741.000000	50.679884
3740.000000	50.724379
3739.000000	50.763802
3738.000000	50.793998
3737.000000	50.823290
3736.000000	50.856774
3735.000000	50.889580
3734.000000	50.917367
3733.000000	50.943841
3732.000000	50.972092
3731.000000	50.998134
3730.000000	51.019291
3729.000000	51.039615
3728.000000	51.064292
3727.000000	51.093927
3726.000000	51.124576
3725.000000	51.152254
3724.000000	51.178413
3723.000000	51.205976
3722.000000	51.235274
3721.000000	51.265166
3720.000000	51.296028
3719.000000	51.330695
3718.000000	51.370651
3717.000000	51.413302
3716.000000	51.454468
3715.000000	51.493639
3714.000000	51.532362
3713.000000	51.570917
3712.000000	51.609393
3711.000000	51.647868
3710.000000	51.685270
3709.000000	51.721640
3708.000000	51.758482
3707.000000	51.796767
3706.000000	51.835581
3705.000000	51.873732
3704.000000	51.911626
3703.000000	51.951088
3702.000000	51.993046
3701.000000	52.034336
3700.000000	52.070057
3699.000000	52.100929
3698.000000	52.133397
3697.000000	52.170747
3696.000000	52.209591
3695.000000	52.246029
3694.000000	52.280859
3693.000000	52.315819
3692.000000	52.349920
3691.000000	52.382584
3690.000000	52.416452
3689.000000	52.454069
3688.000000	52.490662
3687.000000	52.519630
3686.000000	52.544396
3685.000000	52.573669
3684.000000	52.608437
3683.000000	52.643107
3682.000000	52.674950
3681.000000	52.706976
3680.000000	52.739852
3679.000000	52.766540
3678.000000	52.783030
3677.000000	52.798259
3676.000000	52.828130
3675.000000	52.868546
3674.000000	52.893805
3673.000000	52.898912
3672.000000	52.902297
3671.000000	52.917628
3670.000000	52.948817
3669.000000	52.987218
3668.000000	53.021357
3667.000000	53.052061
3666.000000	53.083634
3665.000000	53.115907
3664.000000	53.147309
3663.000000	53.178563
3662.000000	53.211190
3661.000000	53.243585
3660.000000	53.270627
3659.000000	53.289660
3658.000000	53.305698
3657.000000	53.327039
3656.000000	53.354124
3655.000000	53.375870
3654.000000	53.386453
3653.000000	53.391813
3652.000000	53.397701
3651.000000	53.405361
3650.000000	53.417336
3649.000000	53.436367
3648.000000	53.461605
3647.000000	53.488247
3646.000000	53.511246
3645.000000	53.529876
3644.000000	53.547618
3643.000000	53.568509
3642.000000	53.593017
3641.000000	53.618537
3640.000000	53.642857
3639.000000	53.666567
3638.000000	53.689311
3637.000000	53.708595
3636.000000	53.724749
3635.000000	53.741743
3634.000000	53.759561
3633.000000	53.769576
3632.000000	53.764460
3631.000000	53.748329
3630.000000	53.737168
3629.000000	53.744452
3628.000000	53.757803
3627.000000	53.755355
3626.000000	53.738725
3625.000000	53.718097
3624.000000	53.693217
3623.000000	53.660045
3622.000000	53.618898
3621.000000	53.574408
3620.000000	53.531067
3619.000000	53.489331
3618.000000	53.443402
3617.000000	53.386921
3616.000000	53.320153
3615.000000	53.248874
3614.000000	53.178770
3613.000000	53.110204
3612.000000	53.038399
3611.000000	52.959618
3610.000000	52.875756
3609.000000	52.791868
3608.000000	52.710635
3607.000000	52.629821
3606.000000	52.545448
3605.000000	52.455934
3604.000000	52.362511
3603.000000	52.269289
3602.000000	52.182428
3601.000000	52.105967
3600.000000	52.038256
3599.000000	51.973729
3598.000000	51.907923
3597.000000	51.838931
3596.000000	51.767686
3595.000000	51.695519
3594.000000	51.621144
3593.000000	51.539999
3592.000000	51.449450
3591.000000	51.353035
3590.000000	51.262435
3589.000000	51.195064
3588.000000	51.164058
3587.000000	51.164271
3586.000000	51.173444
3585.000000	51.171471
3584.000000	51.151675
3583.000000	51.116591
3582.000000	51.071518
3581.000000	51.021368
3580.000000	50.969589
3579.000000	50.917554
3578.000000	50.865353
3577.000000	50.812449
3576.000000	50.758905
3575.000000	50.705108
3574.000000	50.650428
3573.000000	50.592480
3572.000000	50.527784
3571.000000	50.453612
3570.000000	50.370407
3569.000000	50.284114
3568.000000	50.203785
3567.000000	50.133572
3566.000000	50.066796
3565.000000	49.992855
3564.000000	49.907001
3563.000000	49.810869
3562.000000	49.707855
3561.000000	49.600439
3560.000000	49.489588
3559.000000	49.374959
3558.000000	49.255385
3557.000000	49.129428
3556.000000	48.995890
3555.000000	48.854874
3554.000000	48.708231
3553.000000	48.558478
3552.000000	48.406124
3551.000000	48.248342
3550.000000	48.081246
3549.000000	47.903607
3548.000000	47.717882
3547.000000	47.528381
3546.000000	47.338015
3545.000000	47.146263
3544.000000	46.950199
3543.000000	46.747034
3542.000000	46.535445
3541.000000	46.315202
3540.000000	46.086052
3539.000000	45.847277
3538.000000	45.598267
3537.000000	45.339546
3536.000000	45.072107
3535.000000	44.795600
3534.000000	44.508173
3533.000000	44.208297
3532.000000	43.896163
3531.000000	43.572564
3530.000000	43.237900
3529.000000	42.892585
3528.000000	42.537145
3527.000000	42.170744
3526.000000	41.791009
3525.000000	41.396618
3524.000000	40.989186
3523.000000	40.570965
3522.000000	40.141710
3521.000000	39.699025
3520.000000	39.241263
3519.000000	38.768599
3518.000000	38.281681
3517.000000	37.781013
3516.000000	37.267427
3515.000000	36.741822
3514.000000	36.204660
3513.000000	35.655967
3512.000000	35.095689
3511.000000	34.523900
3510.000000	33.942039
3509.000000	33.354004
3508.000000	32.763287
3507.000000	32.168398
3506.000000	31.563740
3505.000000	30.946281
3504.000000	30.320245
3503.000000	29.693884
3502.000000	29.073201
3501.000000	28.459663
3500.000000	27.851498
3499.000000	27.245345
3498.000000	26.638864
3497.000000	26.033428
3496.000000	25.433328
3495.000000	24.841687
3494.000000	24.258976
3493.000000	23.685796
3492.000000	23.123792
3491.000000	22.573206
3490.000000	22.033022
3489.000000	21.504740
3488.000000	20.993389
3487.000000	20.503187
3486.000000	20.034336
3485.000000	19.584733
3484.000000	19.151406
3483.000000	18.730615
3482.000000	18.320384
3481.000000	17.923738
3480.000000	17.546275
3479.000000	17.188994
3478.000000	16.846830
3477.000000	16.514367
3476.000000	16.189381
3475.000000	15.871058
3474.000000	15.558312
3473.000000	15.251484
3472.000000	14.953180
3471.000000	14.666960
3470.000000	14.398566
3469.000000	14.157376
3468.000000	13.952764
3467.000000	13.788268
3466.000000	13.661615
3465.000000	13.570409
3464.000000	13.513923
3463.000000	13.491037
3462.000000	13.501616
3461.000000	13.548857
3460.000000	13.636328
3459.000000	13.761581
3458.000000	13.915972
3457.000000	14.090666
3456.000000	14.278377
3455.000000	14.470724
3454.000000	14.658603
3453.000000	14.834773
3452.000000	14.992731
3451.000000	15.123565
3450.000000	15.217404
3449.000000	15.268773
3448.000000	15.277179
3447.000000	15.242480
3446.000000	15.164403
3445.000000	15.045138
3444.000000	14.889720
3443.000000	14.704136
3442.000000	14.494634
3441.000000	14.269544
3440.000000	14.038316
3439.000000	13.809454
3438.000000	13.592311
3437.000000	13.398912
3436.000000	13.240251
3435.000000	13.121108
3434.000000	13.040688
3433.000000	12.997107
3432.000000	12.990303
3431.000000	13.021435
3430.000000	13.093765
3429.000000	13.213196
3428.000000	13.383220
3427.000000	13.602527
3426.000000	13.868106
3425.000000	14.179617
3424.000000	14.539031
3423.000000	14.945980
3422.000000	15.399010
3421.000000	15.897302
3420.000000	16.437896
3419.000000	17.013811
3418.000000	17.616111
3417.000000	18.238579
3416.000000	18.877049
3415.000000	19.526650
3414.000000	20.183412
3413.000000	20.845339
3412.000000	21.509577
3411.000000	22.170163
3410.000000	22.821236
3409.000000	23.460840
3408.000000	24.088622
3407.000000	24.701310
3406.000000	25.293743
3405.000000	25.862899
3404.000000	26.408407
3403.000000	26.931586
3402.000000	27.436294
3401.000000	27.929053
3400.000000	28.415041
3399.000000	28.893483
3398.000000	29.359300
3397.000000	29.808202
3396.000000	30.238515
3395.000000	30.650767
3394.000000	31.047888
3393.000000	31.435429
3392.000000	31.818711
3391.000000	32.199142
3390.000000	32.575176
3389.000000	32.945299
3388.000000	33.309032
3387.000000	33.666412
3386.000000	34.018238
3385.000000	34.366374
3384.000000	34.711913
3383.000000	35.054179
3382.000000	35.392736
3381.000000	35.729078
3380.000000	36.065035
3379.000000	36.400618
3378.000000	36.735080
3377.000000	37.068927
3376.000000	37.402974
3375.000000	37.736198
3374.000000	38.066126
3373.000000	38.391046
3372.000000	38.710857
3371.000000	39.026487
3370.000000	39.339887
3369.000000	39.653794
3368.000000	39.970059
3367.000000	40.288312
3366.000000	40.606728
3365.000000	40.923430
3364.000000	41.236572
3363.000000	41.544454
3362.000000	41.846924
3361.000000	42.145909
3360.000000	42.443604
3359.000000	42.740692
3358.000000	43.036978
3357.000000	43.332722
3356.000000	43.627921
3355.000000	43.921183
3354.000000	44.210544
3353.000000	44.495154
3352.000000	44.775531
3351.000000	45.052488
3350.000000	45.326489
3349.000000	45.597544
3348.000000	45.864942
3347.000000	46.127660
3346.000000	46.385443
3345.000000	46.639192
3344.000000	46.889791
3343.000000	47.136847
3342.000000	47.379208
3341.000000	47.616090
3340.000000	47.847522
3339.000000	48.074160
3338.000000	48.296794
3337.000000	48.515808
3336.000000	48.730413
3335.000000	48.938748
3334.000000	49.138880
3333.000000	49.328829
3332.000000	49.506228
3331.000000	49.668462
3330.000000	49.813757
3329.000000	49.941827
3328.000000	50.052279
3327.000000	50.143730
3326.000000	50.213795
3325.000000	50.259204
3324.000000	50.276113
3323.000000	50.259614
3322.000000	50.204936
3321.000000	50.108273
3320.000000	49.965768
3319.000000	49.774361
3318.000000	49.530961
3317.000000	49.233036
3316.000000	48.877391
3315.000000	48.458508
3314.000000	47.970676
3313.000000	47.408268
3312.000000	46.765894
3311.000000	46.039180
3310.000000	45.224189
3309.000000	44.320592
3308.000000	43.328841
3307.000000	42.248117
3306.000000	41.077970
3305.000000	39.816827
3304.000000	38.463328
3303.000000	37.013319
3302.000000	35.462970
3301.000000	33.814651
3300.000000	32.076810
3299.000000	30.265040
3298.000000	28.404197
3297.000000	26.529773
3296.000000	24.683243
3295.000000	22.903547
3294.000000	21.224169
3293.000000	19.674388
3292.000000	18.275304
3291.000000	17.030430
3290.000000	15.928042
3289.000000	14.946313
3288.000000	14.059242
3287.000000	13.241081
3286.000000	12.469134
3285.000000	11.730562
3284.000000	11.019252
3283.000000	10.332851
3282.000000	9.675480
3281.000000	9.058479
3280.000000	8.497751
3279.000000	8.008108
3278.000000	7.604112
3277.000000	7.303220
3276.000000	7.119331
3275.000000	7.057345
3274.000000	7.113171
3273.000000	7.275718
3272.000000	7.527537
3271.000000	7.841346
3270.000000	8.184289
3269.000000	8.523298
3268.000000	8.825597
3267.000000	9.061447
3266.000000	9.210782
3265.000000	9.267101
3264.000000	9.233663
3263.000000	9.119632
3262.000000	8.939737
3261.000000	8.716064
3260.000000	8.471471
3259.000000	8.222209
3258.000000	7.979242
3257.000000	7.749105
3256.000000	7.531178
3255.000000	7.314231
3254.000000	7.080804
3253.000000	6.816395
3252.000000	6.515037
3251.000000	6.184037
3250.000000	5.849740
3249.000000	5.556272
3248.000000	5.349938
3247.000000	5.263183
3246.000000	5.306926
3245.000000	5.472003
3244.000000	5.735073
3243.000000	6.065091
3242.000000	6.435317
3241.000000	6.826431
3240.000000	7.220661
3239.000000	7.598960
3238.000000	7.944468
3237.000000	8.247992
3236.000000	8.507129
3235.000000	8.724328
3234.000000	8.906769
3233.000000	9.063883
3232.000000	9.199094
3231.000000	9.306839
3230.000000	9.380661
3229.000000	9.419114
3228.000000	9.424014
3227.000000	9.395448
3226.000000	9.332967
3225.000000	9.239167
3224.000000	9.116897
3223.000000	8.967608
3222.000000	8.794331
3221.000000	8.604259
3220.000000	8.405726
3219.000000	8.203777
3218.000000	8.001910
3217.000000	7.804051
3216.000000	7.612085
3215.000000	7.424435
3214.000000	7.239661
3213.000000	7.058881
3212.000000	6.882240
3211.000000	6.706719
3210.000000	6.530308
3209.000000	6.355322
3208.000000	6.184754
3207.000000	6.019001
3206.000000	5.859222
3205.000000	5.709872
3204.000000	5.575184
3203.000000	5.455910
3202.000000	5.352422
3201.000000	5.267724
3200.000000	5.203706
3199.000000	5.158840
3198.000000	5.131907
3197.000000	5.124722
3196.000000	5.138717
3195.000000	5.171228
3194.000000	5.219393
3193.000000	5.283149
3192.000000	5.361821
3191.000000	5.452273
3190.000000	5.552243
3189.000000	5.662990
3188.000000	5.785254
3187.000000	5.915947
3186.000000	6.052104
3185.000000	6.193780
3184.000000	6.340850
3183.000000	6.490383
3182.000000	6.640008
3181.000000	6.790675
3180.000000	6.943060
3179.000000	7.095160
3178.000000	7.246035
3177.000000	7.398212
3176.000000	7.553673
3175.000000	7.710736
3174.000000	7.867717
3173.000000	8.026363
3172.000000	8.189209
3171.000000	8.357378
3170.000000	8.533217
3169.000000	8.721478
3168.000000	8.924985
3167.000000	9.141705
3166.000000	9.368556
3165.000000	9.604134
3164.000000	9.845598
3163.000000	10.086855
3162.000000	10.322555
3161.000000	10.550911
3160.000000	10.770240
3159.000000	10.976451
3158.000000	11.166058
3157.000000	11.338823
3156.000000	11.494829
3155.000000	11.632797
3154.000000	11.753813
3153.000000	11.862561
3152.000000	11.962864
3151.000000	12.053999
3150.000000	12.133948
3149.000000	12.203140
3148.000000	12.261820
3147.000000	12.308045
3146.000000	12.340177
3145.000000	12.358678
3144.000000	12.363430
3143.000000	12.351642
3142.000000	12.321862
3141.000000	12.276462
3140.000000	12.218078
3139.000000	12.147146
3138.000000	12.064328
3137.000000	11.972911
3136.000000	11.875683
3135.000000	11.772478
3134.000000	11.663487
3133.000000	11.551052
3132.000000	11.436314
3131.000000	11.316929
3130.000000	11.190538
3129.000000	11.057764
3128.000000	10.919309
3127.000000	10.774078
3126.000000	10.622688
3125.000000	10.469649
3124.000000	10.319591
3123.000000	10.174420
3122.000000	10.036373
3121.000000	9.909975
3120.000000	9.798155
3119.000000	9.699191
3118.000000	9.610324
3117.000000	9.530870
3116.000000	9.459406
3115.000000	9.391508
3114.000000	9.322689
3113.000000	9.250840
3112.000000	9.173617
3111.000000	9.087337
3110.000000	8.990910
3109.000000	8.887668
3108.000000	8.780798
3107.000000	8.670330
3106.000000	8.556721
3105.000000	8.443592
3104.000000	8.334543
3103.000000	8.230993
3102.000000	8.135925
3101.000000	8.055713
3100.000000	7.996025
3099.000000	7.958498
3098.000000	7.943894
3097.000000	7.954928
3096.000000	7.992704
3095.000000	8.055123
3094.000000	8.140088
3093.000000	8.247356
3092.000000	8.375409
3091.000000	8.519362
3090.000000	8.675009
3089.000000	8.840209
3088.000000	9.011038
3087.000000	9.181348
3086.000000	9.348245
3085.000000	9.514879
3084.000000	9.685093
3083.000000	9.859255
3082.000000	10.037712
3081.000000	10.223837
3080.000000	10.421229
3079.000000	10.631017
3078.000000	10.853947
3077.000000	11.091644
3076.000000	11.343072
3075.000000	11.603681
3074.000000	11.870084
3073.000000	12.142230
3072.000000	12.419602
3071.000000	12.698622
3070.000000	12.976522
3069.000000	13.254095
3068.000000	13.532479
3067.000000	13.810295
3066.000000	14.085619
3065.000000	14.357686
3064.000000	14.624812
3063.000000	14.884099
3062.000000	15.134715
3061.000000	15.378673
3060.000000	15.616989
3059.000000	15.848339
3058.000000	16.072970
3057.000000	16.294008
3056.000000	16.513464
3055.000000	16.730000
3054.000000	16.942296
3053.000000	17.151626
3052.000000	17.359315
3051.000000	17.564797
3050.000000	17.767371
3049.000000	17.966783
3048.000000	18.161217
3047.000000	18.347913
3046.000000	18.527314
3045.000000	18.703473
3044.000000	18.879295
3043.000000	19.054757
3042.000000	19.230387
3041.000000	19.408622
3040.000000	19.589976
3039.000000	19.771500
3038.000000	19.950960
3037.000000	20.129455
3036.000000	20.308611
3035.000000	20.488334
3034.000000	20.668760
3033.000000	20.851152
3032.000000	21.035279
3031.000000	21.218910
3030.000000	21.401207
3029.000000	21.583551
3028.000000	21.765935
3027.000000	21.946005
3026.000000	22.123011
3025.000000	22.299217
3024.000000	22.475472
3023.000000	22.648614
3022.000000	22.815050
3021.000000	22.973674
3020.000000	23.123613
3019.000000	23.261596
3018.000000	23.383899
3017.000000	23.488533
3016.000000	23.574360
3015.000000	23.641547
3014.000000	23.694801
3013.000000	23.744602
3012.000000	23.803237
3011.000000	23.881033
3010.000000	23.985882
3009.000000	24.121774
3008.000000	24.284967
3007.000000	24.463232
3006.000000	24.638716
3005.000000	24.788475
3004.000000	24.879963
3003.000000	24.872165
3002.000000	24.730824
3001.000000	24.449883
3000.000000	24.064718
2999.000000	23.644969
2998.000000	23.271100
2997.000000	23.006684
2996.000000	22.883852
2995.000000	22.908144
2994.000000	23.069986
2993.000000	23.348585
2992.000000	23.707953
2991.000000	24.102111
2990.000000	24.489109
2989.000000	24.841345
2988.000000	25.144138
2987.000000	25.389787
2986.000000	25.573632
2985.000000	25.690117
2984.000000	25.731455
2983.000000	25.694560
2982.000000	25.594687
2981.000000	25.468762
2980.000000	25.361414
2979.000000	25.303428
2978.000000	25.300266
2977.000000	25.336285
2976.000000	25.388037
2975.000000	25.439330
2974.000000	25.488838
2973.000000	25.545943
2972.000000	25.619634
2971.000000	25.711476
2970.000000	25.814428
2969.000000	25.912371
2968.000000	25.978333
2967.000000	25.979610
2966.000000	25.889772
2965.000000	25.695681
2964.000000	25.393724
2963.000000	24.981253
2962.000000	24.459419
2961.000000	23.848565
2960.000000	23.207244
2959.000000	22.632262
2958.000000	22.227890
2957.000000	22.056402
2956.000000	22.106840
2955.000000	22.312502
2954.000000	22.596801
2953.000000	22.906966
2952.000000	23.213644
2951.000000	23.499047
2950.000000	23.752746
2949.000000	23.973199
2948.000000	24.166125
2947.000000	24.338191
2946.000000	24.490066
2945.000000	24.605757
2944.000000	24.648648
2943.000000	24.578002
2942.000000	24.384206
2941.000000	24.115097
2940.000000	23.870180
2939.000000	23.763977
2938.000000	23.877964
2937.000000	24.227241
2936.000000	24.757429
2935.000000	25.376210
2934.000000	25.996711
2933.000000	26.563996
2932.000000	27.055465
2931.000000	27.470874
2930.000000	27.823666
2929.000000	28.131525
2928.000000	28.407945
2927.000000	28.659515
2926.000000	28.890776
2925.000000	29.106430
2924.000000	29.308663
2923.000000	29.496495
2922.000000	29.669726
2921.000000	29.830097
2920.000000	29.977701
2919.000000	30.110637
2918.000000	30.228726
2917.000000	30.334339
2916.000000	30.428781
2915.000000	30.511310
2914.000000	30.582554
2913.000000	30.644991
2912.000000	30.699069
2911.000000	30.742316
2910.000000	30.772896
2909.000000	30.790866
2908.000000	30.794908
2907.000000	30.780450
2906.000000	30.741872
2905.000000	30.672752
2904.000000	30.563187
2903.000000	30.401086
2902.000000	30.178996
2901.000000	29.899822
2900.000000	29.577746
2899.000000	29.238578
2898.000000	28.918772
2897.000000	28.658766
2896.000000	28.490161
2895.000000	28.427452
2894.000000	28.469320
2893.000000	28.601810
2892.000000	28.801161
2891.000000	29.039403
2890.000000	29.293208
2889.000000	29.547109
2888.000000	29.790312
2887.000000	30.014434
2886.000000	30.214990
2885.000000	30.391573
2884.000000	30.543614
2883.000000	30.669204
2882.000000	30.768195
2881.000000	30.843513
2880.000000	30.898368
2879.000000	30.934717
2878.000000	30.955299
2877.000000	30.964276
2876.000000	30.965305
2875.000000	30.961702
2874.000000	30.959553
2873.000000	30.966857
2872.000000	30.988452
2871.000000	31.025025
2870.000000	31.078107
2869.000000	31.153126
2868.000000	31.255801
2867.000000	31.387788
2866.000000	31.546210
2865.000000	31.723828
2864.000000	31.908361
2863.000000	32.085735
2862.000000	32.246526
2861.000000	32.388108
2860.000000	32.511209
2859.000000	32.617519
2858.000000	32.711422
2857.000000	32.800291
2856.000000	32.890922
2855.000000	32.987516
2854.000000	33.093039
2853.000000	33.208847
2852.000000	33.331599
2851.000000	33.453718
2850.000000	33.568554
2849.000000	33.673494
2848.000000	33.768374
2847.000000	33.854226
2846.000000	33.934414
2845.000000	34.013707
2844.000000	34.094547
2843.000000	34.175937
2842.000000	34.256573
2841.000000	34.336788
2840.000000	34.417029
2839.000000	34.497179
2838.000000	34.578160
2837.000000	34.661775
2836.000000	34.748284
2835.000000	34.836305
2834.000000	34.925524
2833.000000	35.017206
2832.000000	35.111535
2831.000000	35.206804
2830.000000	35.301745
2829.000000	35.396339
2828.000000	35.489963
2827.000000	35.581214
2826.000000	35.670070
2825.000000	35.757878
2824.000000	35.844754
2823.000000	35.929192
2822.000000	36.010590
2821.000000	36.089647
2820.000000	36.165830
2819.000000	36.237048
2818.000000	36.302416
2817.000000	36.363097
2816.000000	36.419982
2815.000000	36.472958
2814.000000	36.523010
2813.000000	36.572478
2812.000000	36.622410
2811.000000	36.671789
2810.000000	36.719870
2809.000000	36.767014
2808.000000	36.812865
2807.000000	36.856220
2806.000000	36.897583
2805.000000	36.939630
2804.000000	36.984320
2803.000000	37.031483
2802.000000	37.080557
2801.000000	37.131395
2800.000000	37.182876
2799.000000	37.233030
2798.000000	37.281309
2797.000000	37.328836
2796.000000	37.376034
2795.000000	37.422149
2794.000000	37.467376
2793.000000	37.513096
2792.000000	37.559536
2791.000000	37.605357
2790.000000	37.649898
2789.000000	37.693544
2788.000000	37.735497
2787.000000	37.773681
2786.000000	37.807525
2785.000000	37.838772
2784.000000	37.869154
2783.000000	37.899593
2782.000000	37.931973
2781.000000	37.968969
2780.000000	38.011012
2779.000000	38.055368
2778.000000	38.098919
2777.000000	38.140130
2776.000000	38.178262
2775.000000	38.213147
2774.000000	38.246414
2773.000000	38.280740
2772.000000	38.317000
2771.000000	38.353831
2770.000000	38.390109
2769.000000	38.425702
2768.000000	38.459626
2767.000000	38.489846
2766.000000	38.515609
2765.000000	38.538023
2764.000000	38.558027
2763.000000	38.576003
2762.000000	38.593697
2761.000000	38.614184
2760.000000	38.639228
2759.000000	38.668477
2758.000000	38.701367
2757.000000	38.737625
2756.000000	38.775617
2755.000000	38.812638
2754.000000	38.847562
2753.000000	38.881393
2752.000000	38.915086
2751.000000	38.948943
2750.000000	38.984065
2749.000000	39.021652
2748.000000	39.060139
2747.000000	39.095072
2746.000000	39.122498
2745.000000	39.140873
2744.000000	39.149932
2743.000000	39.150537
2742.000000	39.146024
2741.000000	39.141094
2740.000000	39.138645
2739.000000	39.139475
2738.000000	39.145210
2737.000000	39.159417
2736.000000	39.185378
2735.000000	39.225044
2734.000000	39.280314
2733.000000	39.351982
2732.000000	39.436701
2731.000000	39.527416
2730.000000	39.617531
2729.000000	39.703212
2728.000000	39.781786
2727.000000	39.850741
2726.000000	39.909259
2725.000000	39.958373
2724.000000	39.998641
2723.000000	40.029888
2722.000000	40.053618
2721.000000	40.073272
2720.000000	40.091668
2719.000000	40.109936
2718.000000	40.129367
2717.000000	40.151983
2716.000000	40.178357
2715.000000	40.207073
2714.000000	40.237003
2713.000000	40.268143
2712.000000	40.299846
2711.000000	40.330449
2710.000000	40.359310
2709.000000	40.387132
2708.000000	40.413660
2707.000000	40.436986
2706.000000	40.455621
2705.000000	40.469589
2704.000000	40.479141
2703.000000	40.484513
2702.000000	40.487458
2701.000000	40.490799
2700.000000	40.495942
2699.000000	40.502478
2698.000000	40.510239
2697.000000	40.519704
2696.000000	40.530197
2695.000000	40.540057
2694.000000	40.548967
2693.000000	40.557950
2692.000000	40.566821
2691.000000	40.574043
2690.000000	40.579570
2689.000000	40.585580
2688.000000	40.593860
2687.000000	40.604504
2686.000000	40.617437
2685.000000	40.632795
2684.000000	40.649333
2683.000000	40.665019
2682.000000	40.679942
2681.000000	40.696791
2680.000000	40.717894
2679.000000	40.743745
2678.000000	40.774628
2677.000000	40.810905
2676.000000	40.851082
2675.000000	40.891787
2674.000000	40.930265
2673.000000	40.965106
2672.000000	40.994436
2671.000000	41.016169
2670.000000	41.031015
2669.000000	41.043237
2668.000000	41.057580
2667.000000	41.077075
2666.000000	41.103717
2665.000000	41.138512
2664.000000	41.179778
2663.000000	41.223449
2662.000000	41.265894
2661.000000	41.304946
2660.000000	41.338357
2659.000000	41.363745
2658.000000	41.380772
2657.000000	41.391503
2656.000000	41.397965
2655.000000	41.401165
2654.000000	41.402902
2653.000000	41.406181
2652.000000	41.413330
2651.000000	41.425632
2650.000000	41.445032
2649.000000	41.473832
2648.000000	41.512143
2647.000000	41.557350
2646.000000	41.606499
2645.000000	41.657533
2644.000000	41.708082
2643.000000	41.755848
2642.000000	41.800829
2641.000000	41.845060
2640.000000	41.889672
2639.000000	41.933887
2638.000000	41.976932
2637.000000	42.018580
2636.000000	42.057389
2635.000000	42.090682
2634.000000	42.117254
2633.000000	42.138282
2632.000000	42.155230
2631.000000	42.168918
2630.000000	42.180700
2629.000000	42.192551
2628.000000	42.205352
2627.000000	42.218873
2626.000000	42.233788
2625.000000	42.251363
2624.000000	42.270879
2623.000000	42.289467
2622.000000	42.304974
2621.000000	42.317099
2620.000000	42.325336
2619.000000	42.328263
2618.000000	42.325344
2617.000000	42.317210
2616.000000	42.303738
2615.000000	42.283543
2614.000000	42.256195
2613.000000	42.223045
2612.000000	42.185462
2611.000000	42.144726
2610.000000	42.104099
2609.000000	42.068839
2608.000000	42.043299
2607.000000	42.029548
2606.000000	42.028621
2605.000000	42.041149
2604.000000	42.066035
2603.000000	42.100526
2602.000000	42.142643
2601.000000	42.191083
2600.000000	42.243107
2599.000000	42.294703
2598.000000	42.343173
2597.000000	42.388075
2596.000000	42.429324
2595.000000	42.466799
2594.000000	42.502103
2593.000000	42.538181
2592.000000	42.576295
2591.000000	42.615125
2590.000000	42.652907
2589.000000	42.688413
2588.000000	42.719824
2587.000000	42.745073
2586.000000	42.764291
2585.000000	42.780188
2584.000000	42.795669
2583.000000	42.812900
2582.000000	42.834566
2581.000000	42.863447
2580.000000	42.900132
2579.000000	42.943057
2578.000000	42.990920
2577.000000	43.043315
2576.000000	43.098843
2575.000000	43.155170
2574.000000	43.211472
2573.000000	43.268402
2572.000000	43.325432
2571.000000	43.380306
2570.000000	43.431497
2569.000000	43.479116
2568.000000	43.523116
2567.000000	43.562948
2566.000000	43.599653
2565.000000	43.636193
2564.000000	43.674865
2563.000000	43.716096
2562.000000	43.759865
2561.000000	43.806153
2560.000000	43.853557
2559.000000	43.899498
2558.000000	43.942532
2557.000000	43.982822
2556.000000	44.020311
2555.000000	44.054531
2554.000000	44.086504
2553.000000	44.118796
2552.000000	44.153004
2551.000000	44.188763
2550.000000	44.225276
2549.000000	44.261620
2548.000000	44.295489
2547.000000	44.323888
2546.000000	44.345799
2545.000000	44.362715
2544.000000	44.376332
2543.000000	44.387771
2542.000000	44.399011
2541.000000	44.412531
2540.000000	44.428930
2539.000000	44.446491
2538.000000	44.463451
2537.000000	44.478773
2536.000000	44.490543
2535.000000	44.496290
2534.000000	44.495462
2533.000000	44.489903
2532.000000	44.481439
2531.000000	44.470663
2530.000000	44.458431
2529.000000	44.445994
2528.000000	44.433244
2527.000000	44.418908
2526.000000	44.402851
2525.000000	44.386431
2524.000000	44.370004
2523.000000	44.352087
2522.000000	44.331335
2521.000000	44.306931
2520.000000	44.276945
2519.000000	44.238498
2518.000000	44.190555
2517.000000	44.134977
2516.000000	44.074179
2515.000000	44.010170
2514.000000	43.946080
2513.000000	43.886319
2512.000000	43.834326
2511.000000	43.792032
2510.000000	43.761623
2509.000000	43.745629
2508.000000	43.744662
2507.000000	43.756548
2506.000000	43.778938
2505.000000	43.810128
2504.000000	43.847421
2503.000000	43.887409
2502.000000	43.928050
2501.000000	43.969142
2500.000000	44.009928
2499.000000	44.048292
2498.000000	44.082708
2497.000000	44.112738
2496.000000	44.137388
2495.000000	44.155341
2494.000000	44.167533
2493.000000	44.177370
2492.000000	44.187995
2491.000000	44.200932
2490.000000	44.217500
2489.000000	44.239084
2488.000000	44.265173
2487.000000	44.293145
2486.000000	44.320628
2485.000000	44.346517
2484.000000	44.369691
2483.000000	44.389089
2482.000000	44.405549
2481.000000	44.421672
2480.000000	44.439432
2479.000000	44.459500
2478.000000	44.482789
2477.000000	44.510214
2476.000000	44.540775
2475.000000	44.572225
2474.000000	44.604081
2473.000000	44.638110
2472.000000	44.675541
2471.000000	44.715938
2470.000000	44.758917
2469.000000	44.804371
2468.000000	44.850742
2467.000000	44.895364
2466.000000	44.937254
2465.000000	44.977660
2464.000000	45.017501
2463.000000	45.056397
2462.000000	45.094474
2461.000000	45.132920
2460.000000	45.172140
2459.000000	45.211356
2458.000000	45.250175
2457.000000	45.288526
2456.000000	45.324770
2455.000000	45.355976
2454.000000	45.380780
2453.000000	45.400169
2452.000000	45.415591
2451.000000	45.428610
2450.000000	45.442541
2449.000000	45.461802
2448.000000	45.488642
2447.000000	45.522091
2446.000000	45.560346
2445.000000	45.602188
2444.000000	45.645695
2443.000000	45.688173
2442.000000	45.728205
2441.000000	45.766077
2440.000000	45.801788
2439.000000	45.834391
2438.000000	45.863391
2437.000000	45.888682
2436.000000	45.908925
2435.000000	45.921873
2434.000000	45.927197
2433.000000	45.927190
2432.000000	45.924306
2431.000000	45.920001
2430.000000	45.915496
2429.000000	45.911489
2428.000000	45.906324
2427.000000	45.896350
2426.000000	45.879156
2425.000000	45.854824
2424.000000	45.824543
2423.000000	45.790240
2422.000000	45.755859
2421.000000	45.726576
2420.000000	45.705736
2419.000000	45.694012
2418.000000	45.691428
2417.000000	45.697970
2416.000000	45.711568
2415.000000	45.727927
2414.000000	45.742895
2413.000000	45.753278
2412.000000	45.755324
2411.000000	45.745180
2410.000000	45.721695
2409.000000	45.687028
2408.000000	45.644209
2407.000000	45.595381
2406.000000	45.542856
2405.000000	45.488963
2404.000000	45.434112
2403.000000	45.377289
2402.000000	45.318967
2401.000000	45.262113
2400.000000	45.209762
2399.000000	45.163266
2398.000000	45.122790
2397.000000	45.086664
2396.000000	45.049593
2395.000000	45.003820
2394.000000	44.943213
2393.000000	44.865623
2392.000000	44.771693
2391.000000	44.664516
2390.000000	44.550666
2389.000000	44.438377
2388.000000	44.333501
2387.000000	44.237941
2386.000000	44.152293
2385.000000	44.077632
2384.000000	44.014629
2383.000000	43.963838
2382.000000	43.927900
2381.000000	43.911152
2380.000000	43.915672
2379.000000	43.939566
2378.000000	43.978520
2377.000000	44.026754
2376.000000	44.075559
2375.000000	44.114401
2374.000000	44.136128
2373.000000	44.138451
2372.000000	44.120536
2371.000000	44.081575
2370.000000	44.024020
2369.000000	43.954931
2368.000000	43.881361
2367.000000	43.808801
2366.000000	43.744812
2365.000000	43.698373
2364.000000	43.674553
2363.000000	43.673587
2362.000000	43.696145
2361.000000	43.743405
2360.000000	43.812902
2359.000000	43.896977
2358.000000	43.985611
2357.000000	44.071331
2356.000000	44.147006
2355.000000	44.206201
2354.000000	44.244049
2353.000000	44.257411
2352.000000	44.251266
2351.000000	44.240381
2350.000000	44.241731
2349.000000	44.258435
2348.000000	44.279837
2347.000000	44.297721
2346.000000	44.312697
2345.000000	44.333323
2344.000000	44.362263
2343.000000	44.392435
2342.000000	44.417123
2341.000000	44.437240
2340.000000	44.459993
2339.000000	44.485229
2338.000000	44.509494
2337.000000	44.531586
2336.000000	44.552541
2335.000000	44.572558
2334.000000	44.593926
2333.000000	44.620795
2332.000000	44.654551
2331.000000	44.689389
2330.000000	44.718361
2329.000000	44.736882
2328.000000	44.741854
2327.000000	44.736745
2326.000000	44.730761
2325.000000	44.739004
2324.000000	44.767016
2323.000000	44.808120
2322.000000	44.849200
2321.000000	44.878387
2320.000000	44.889108
2319.000000	44.876846
2318.000000	44.842659
2317.000000	44.790410
2316.000000	44.725497
2315.000000	44.652804
2314.000000	44.577316
2313.000000	44.501778
2312.000000	44.423109
2311.000000	44.336755
2310.000000	44.242727
2309.000000	44.148184
2308.000000	44.060150
2307.000000	43.982912
2306.000000	43.917474
2305.000000	43.862366
2304.000000	43.811117
2303.000000	43.754997
2302.000000	43.687863
2301.000000	43.607529
2300.000000	43.512810
2299.000000	43.403902
2298.000000	43.284817
2297.000000	43.162776
2296.000000	43.043040
2295.000000	42.929487
2294.000000	42.827861
2293.000000	42.747009
2292.000000	42.693515
2291.000000	42.670694
2290.000000	42.680338
2289.000000	42.722096
2288.000000	42.789772
2287.000000	42.872698
2286.000000	42.961937
2285.000000	43.053321
2284.000000	43.144916
2283.000000	43.236605
2282.000000	43.331978
2281.000000	43.436087
2280.000000	43.549788
2279.000000	43.668257
2278.000000	43.786191
2277.000000	43.900795
2276.000000	44.010473
2275.000000	44.114222
2274.000000	44.213764
2273.000000	44.312948
2272.000000	44.413848
2271.000000	44.516047
2270.000000	44.619764
2269.000000	44.726865
2268.000000	44.838278
2267.000000	44.953808
2266.000000	45.074925
2265.000000	45.204594
2264.000000	45.343219
2263.000000	45.487416
2262.000000	45.632929
2261.000000	45.776352
2260.000000	45.913868
2259.000000	46.042032
2258.000000	46.161019
2257.000000	46.274530
2256.000000	46.385946
2255.000000	46.496224
2254.000000	46.605769
2253.000000	46.715005
2252.000000	46.822673
2251.000000	46.926385
2250.000000	47.025710
2249.000000	47.122679
2248.000000	47.218540
2247.000000	47.312376
2246.000000	47.403051
2245.000000	47.489750
2244.000000	47.570165
2243.000000	47.640955
2242.000000	47.700886
2241.000000	47.751770
2240.000000	47.795469
2239.000000	47.832264
2238.000000	47.862246
2237.000000	47.885582
2236.000000	47.901090
2235.000000	47.906986
2234.000000	47.904441
2233.000000	47.898295
2232.000000	47.893715
2231.000000	47.894090
2230.000000	47.901840
2229.000000	47.918061
2228.000000	47.940300
2227.000000	47.963390
2226.000000	47.983739
2225.000000	48.001022
2224.000000	48.015526
2223.000000	48.026587
2222.000000	48.034184
2221.000000	48.039317
2220.000000	48.041773
2219.000000	48.040033
2218.000000	48.034404
2217.000000	48.028216
2216.000000	48.025235
2215.000000	48.028100
2214.000000	48.039668
2213.000000	48.062694
2212.000000	48.096805
2211.000000	48.137763
2210.000000	48.180753
2209.000000	48.222591
2208.000000	48.260677
2207.000000	48.292559
2206.000000	48.317353
2205.000000	48.335429
2204.000000	48.345855
2203.000000	48.346486
2202.000000	48.337529
2201.000000	48.323308
2200.000000	48.310024
2199.000000	48.303766
2198.000000	48.310237
2197.000000	48.332862
2196.000000	48.369731
2195.000000	48.414503
2194.000000	48.461385
2193.000000	48.507597
2192.000000	48.551546
2191.000000	48.591856
2190.000000	48.629139
2189.000000	48.665973
2188.000000	48.703781
2187.000000	48.741660
2186.000000	48.778699
2185.000000	48.815168
2184.000000	48.850916
2183.000000	48.885034
2182.000000	48.917873
2181.000000	48.951072
2180.000000	48.984867
2179.000000	49.017382
2178.000000	49.047075
2177.000000	49.073694
2176.000000	49.096563
2175.000000	49.114666
2174.000000	49.129208
2173.000000	49.143699
2172.000000	49.160570
2171.000000	49.179751
2170.000000	49.200889
2169.000000	49.224389
2168.000000	49.249633
2167.000000	49.274789
2166.000000	49.299435
2165.000000	49.325157
2164.000000	49.352837
2163.000000	49.381537
2162.000000	49.410610
2161.000000	49.440400
2160.000000	49.470165
2159.000000	49.497875
2158.000000	49.523146
2157.000000	49.548207
2156.000000	49.574985
2155.000000	49.603133
2154.000000	49.631394
2153.000000	49.658485
2152.000000	49.681963
2151.000000	49.698630
2150.000000	49.707317
2149.000000	49.709663
2148.000000	49.707636
2147.000000	49.702252
2146.000000	49.694884
2145.000000	49.687111
2144.000000	49.678291
2143.000000	49.665680
2142.000000	49.647962
2141.000000	49.626988
2140.000000	49.605742
2139.000000	49.586863
2138.000000	49.573660
2137.000000	49.569674
2136.000000	49.575934
2135.000000	49.590475
2134.000000	49.610937
2133.000000	49.635426
2132.000000	49.660796
2131.000000	49.682976
2130.000000	49.699876
2129.000000	49.711824
2128.000000	49.718760
2127.000000	49.719705
2126.000000	49.715671
2125.000000	49.710421
2124.000000	49.707396
2123.000000	49.708192
2122.000000	49.714308
2121.000000	49.727416
2120.000000	49.746894
2119.000000	49.769517
2118.000000	49.792498
2117.000000	49.814711
2116.000000	49.834773
2115.000000	49.850841
2114.000000	49.863158
2113.000000	49.874010
2112.000000	49.884135
2111.000000	49.891636
2110.000000	49.895123
2109.000000	49.895408
2108.000000	49.893658
2107.000000	49.890752
2106.000000	49.889374
2105.000000	49.893846
2104.000000	49.906413
2103.000000	49.925607
2102.000000	49.948743
2101.000000	49.973412
2100.000000	49.995985
2099.000000	50.011884
2098.000000	50.018700
2097.000000	50.016899
2096.000000	50.006840
2095.000000	49.987759
2094.000000	49.960602
2093.000000	49.929348
2092.000000	49.898681
2091.000000	49.872939
2090.000000	49.858118
2089.000000	49.861392
2088.000000	49.886520
2087.000000	49.931741
2086.000000	49.992513
2085.000000	50.063489
2084.000000	50.137726
2083.000000	50.207491
2082.000000	50.267842
2081.000000	50.317934
2080.000000	50.358102
2079.000000	50.388058
2078.000000	50.408502
2077.000000	50.421324
2076.000000	50.426940
2075.000000	50.423806
2074.000000	50.411535
2073.000000	50.392208
2072.000000	50.367708
2071.000000	50.338162
2070.000000	50.304044
2069.000000	50.266901
2068.000000	50.226772
2067.000000	50.181543
2066.000000	50.130213
2065.000000	50.074793
2064.000000	50.017630
2063.000000	49.959213
2062.000000	49.899653
2061.000000	49.839621
2060.000000	49.778862
2059.000000	49.716374
2058.000000	49.653208
2057.000000	49.592691
2056.000000	49.536960
2055.000000	49.485788
2054.000000	49.439432
2053.000000	49.399240
2052.000000	49.364704
2051.000000	49.333410
2050.000000	49.304879
2049.000000	49.281587
2048.000000	49.265172
2047.000000	49.254467
2046.000000	49.248298
2045.000000	49.246753
2044.000000	49.248618
2043.000000	49.250976
2042.000000	49.252898
2041.000000	49.257218
2040.000000	49.267409
2039.000000	49.285601
2038.000000	49.314240
2037.000000	49.355780
2036.000000	49.409562
2035.000000	49.471553
2034.000000	49.538310
2033.000000	49.608655
2032.000000	49.680834
2031.000000	49.751745
2030.000000	49.819895
2029.000000	49.885832
2028.000000	49.948940
2027.000000	50.006701
2026.000000	50.058282
2025.000000	50.105945
2024.000000	50.152075
2023.000000	50.197636
2022.000000	50.244244
2021.000000	50.294754
2020.000000	50.350225
2019.000000	50.408917
2018.000000	50.469423
2017.000000	50.532408
2016.000000	50.598441
2015.000000	50.666751
2014.000000	50.737027
2013.000000	50.809876
2012.000000	50.884530
2011.000000	50.958645
2010.000000	51.031339
2009.000000	51.104063
2008.000000	51.177842
2007.000000	51.252008
2006.000000	51.326417
2005.000000	51.401951
2004.000000	51.477873
2003.000000	51.551110
2002.000000	51.619170
2001.000000	51.681866
2000.000000	51.739087
1999.000000	51.790088
1998.000000	51.835449
1997.000000	51.877175
1996.000000	51.916038
1995.000000	51.950361
1994.000000	51.978207
1993.000000	51.998890
1992.000000	52.012694
1991.000000	52.021447
1990.000000	52.029770
1989.000000	52.043388
1988.000000	52.065583
1987.000000	52.096713
1986.000000	52.136885
1985.000000	52.186943
1984.000000	52.246396
1983.000000	52.313158
1982.000000	52.385636
1981.000000	52.462956
1980.000000	52.542776
1979.000000	52.621507
1978.000000	52.697315
1977.000000	52.770749
1976.000000	52.842626
1975.000000	52.913322
1974.000000	52.983906
1973.000000	53.054835
1972.000000	53.123259
1971.000000	53.183923
1970.000000	53.232633
1969.000000	53.267455
1968.000000	53.286913
1967.000000	53.290024
1966.000000	53.278793
1965.000000	53.257199
1964.000000	53.227779
1963.000000	53.191339
1962.000000	53.149959
1961.000000	53.107981
1960.000000	53.069566
1959.000000	53.037866
1958.000000	53.016266
1957.000000	53.007571
1956.000000	53.011513
1955.000000	53.025666
1954.000000	53.048593
1953.000000	53.079997
1952.000000	53.118962
1951.000000	53.163739
1950.000000	53.214127
1949.000000	53.271255
1948.000000	53.333772
1947.000000	53.397558
1946.000000	53.459378
1945.000000	53.518201
1944.000000	53.572600
1943.000000	53.620140
1942.000000	53.660604
1941.000000	53.696941
1940.000000	53.731166
1939.000000	53.761657
1938.000000	53.785769
1937.000000	53.802088
1936.000000	53.809544
1935.000000	53.806983
1934.000000	53.795019
1933.000000	53.776158
1932.000000	53.752087
1931.000000	53.722981
1930.000000	53.690660
1929.000000	53.659429
1928.000000	53.632059
1927.000000	53.609329
1926.000000	53.592738
1925.000000	53.584874
1924.000000	53.585755
1923.000000	53.591913
1922.000000	53.601462
1921.000000	53.614913
1920.000000	53.629537
1919.000000	53.638365
1918.000000	53.637589
1917.000000	53.630966
1916.000000	53.623874
1915.000000	53.616995
1914.000000	53.608770
1913.000000	53.599507
1912.000000	53.589881
1911.000000	53.578663
1910.000000	53.566083
1909.000000	53.556046
1908.000000	53.551720
1907.000000	53.553589
1906.000000	53.562027
1905.000000	53.579184
1904.000000	53.606540
1903.000000	53.643351
1902.000000	53.691053
1901.000000	53.753204
1900.000000	53.829126
1899.000000	53.913368
1898.000000	54.000811
1897.000000	54.089085
1896.000000	54.175197
1895.000000	54.253970
1894.000000	54.323489
1893.000000	54.387531
1892.000000	54.449729
1891.000000	54.509056
1890.000000	54.563377
1889.000000	54.613085
1888.000000	54.659465
1887.000000	54.702580
1886.000000	54.742640
1885.000000	54.781578
1884.000000	54.821055
1883.000000	54.860930
1882.000000	54.902101
1881.000000	54.947127
1880.000000	54.995642
1879.000000	55.042995
1878.000000	55.084447
1877.000000	55.117832
1876.000000	55.141255
1875.000000	55.151481
1874.000000	55.147880
1873.000000	55.135964
1872.000000	55.122861
1871.000000	55.112304
1870.000000	55.108241
1869.000000	55.118966
1868.000000	55.150622
1867.000000	55.201202
1866.000000	55.265731
1865.000000	55.339705
1864.000000	55.417102
1863.000000	55.490395
1862.000000	55.554613
1861.000000	55.610393
1860.000000	55.660624
1859.000000	55.706533
1858.000000	55.749163
1857.000000	55.791517
1856.000000	55.835872
1855.000000	55.881341
1854.000000	55.926591
1853.000000	55.972840
1852.000000	56.020884
1851.000000	56.070139
1850.000000	56.121097
1849.000000	56.175920
1848.000000	56.235543
1847.000000	56.296395
1846.000000	56.351870
1845.000000	56.396040
1844.000000	56.427388
1843.000000	56.451485
1842.000000	56.480066
1841.000000	56.520867
1840.000000	56.571027
1839.000000	56.623688
1838.000000	56.673814
1837.000000	56.719233
1836.000000	56.758926
1835.000000	56.792996
1834.000000	56.825673
1833.000000	56.863743
1832.000000	56.911149
1831.000000	56.967327
1830.000000	57.027463
1829.000000	57.085028
1828.000000	57.139335
1827.000000	57.194616
1826.000000	57.252442
1825.000000	57.311754
1824.000000	57.372008
1823.000000	57.434247
1822.000000	57.499528
1821.000000	57.566498
1820.000000	57.632110
1819.000000	57.693266
1818.000000	57.747494
1817.000000	57.795393
1816.000000	57.839698
1815.000000	57.880941
1814.000000	57.917650
1813.000000	57.948253
1812.000000	57.972493
1811.000000	57.989073
1810.000000	57.995969
1809.000000	57.996925
1808.000000	57.999258
1807.000000	58.005803
1806.000000	58.014213
1805.000000	58.022004
1804.000000	58.028132
1803.000000	58.030786
1802.000000	58.029703
1801.000000	58.028384
1800.000000	58.031834
1799.000000	58.041436
1798.000000	58.056436
1797.000000	58.079010
1796.000000	58.110248
1795.000000	58.144363
1794.000000	58.171665
1793.000000	58.187468
1792.000000	58.196898
1791.000000	58.208850
1790.000000	58.231107
1789.000000	58.267683
1788.000000	58.314757
1787.000000	58.363117
1786.000000	58.404702
1785.000000	58.438143
1784.000000	58.467194
1783.000000	58.494449
1782.000000	58.520575
1781.000000	58.544967
1780.000000	58.568740
1779.000000	58.595451
1778.000000	58.629588
1777.000000	58.675761
1776.000000	58.735018
1775.000000	58.805351
1774.000000	58.883416
1773.000000	58.964244
1772.000000	59.038639
1771.000000	59.097612
1770.000000	59.142839
1769.000000	59.182578
1768.000000	59.224469
1767.000000	59.273882
1766.000000	59.330893
1765.000000	59.389887
1764.000000	59.443067
1763.000000	59.483478
1762.000000	59.506140
1761.000000	59.510207
1760.000000	59.504793
1759.000000	59.501142
1758.000000	59.503156
1757.000000	59.511128
1756.000000	59.526473
1755.000000	59.552077
1754.000000	59.584846
1753.000000	59.614685
1752.000000	59.636001
1751.000000	59.655248
1750.000000	59.679896
1749.000000	59.708964
1748.000000	59.737049
1747.000000	59.762254
1746.000000	59.787297
1745.000000	59.813064
1744.000000	59.840443
1743.000000	59.872021
1742.000000	59.908363
1741.000000	59.947110
1740.000000	59.987144
1739.000000	60.029252
1738.000000	60.074165
1737.000000	60.120837
1736.000000	60.163935
1735.000000	60.200738
1734.000000	60.234586
1733.000000	60.264360
1732.000000	60.295406
1731.000000	60.332619
1730.000000	60.366771
1729.000000	60.390278
1728.000000	60.405167
1727.000000	60.420028
1726.000000	60.442440
1725.000000	60.474711
1724.000000	60.516674
1723.000000	60.564655
1722.000000	60.612439
1721.000000	60.655570
1720.000000	60.691456
1719.000000	60.719529
1718.000000	60.742142
1717.000000	60.765986
1716.000000	60.801769
1715.000000	60.853725
1714.000000	60.913841
1713.000000	60.972628
1712.000000	61.025618
1711.000000	61.070253
1710.000000	61.106236
1709.000000	61.138752
1708.000000	61.177435
1707.000000	61.230696
1706.000000	61.299161
1705.000000	61.374902
1704.000000	61.447766
1703.000000	61.515088
1702.000000	61.579277
1701.000000	61.650869
1700.000000	61.732471
1699.000000	61.803306
1698.000000	61.861417
1697.000000	61.920033
1696.000000	61.984284
1695.000000	62.050680
1694.000000	62.115310
1693.000000	62.181975
1692.000000	62.250031
1691.000000	62.317104
1690.000000	62.381839
1689.000000	62.437926
1688.000000	62.478607
1687.000000	62.507676
1686.000000	62.534092
1685.000000	62.569720
1684.000000	62.614791
1683.000000	62.649225
1682.000000	62.675994
1681.000000	62.703154
1680.000000	62.721211
1679.000000	62.728790
1678.000000	62.729205
1677.000000	62.718702
1676.000000	62.696879
1675.000000	62.678741
1674.000000	62.675944
1673.000000	62.681199
1672.000000	62.685467
1671.000000	62.691243
1670.000000	62.703588
1669.000000	62.709609
1668.000000	62.695571
1667.000000	62.675652
1666.000000	62.665216
1665.000000	62.658079
1664.000000	62.644924
1663.000000	62.628773
1662.000000	62.611078
1661.000000	62.576914
1660.000000	62.515044
1659.000000	62.436290
1658.000000	62.355538
1657.000000	62.267807
1656.000000	62.151180
1655.000000	61.986914
1654.000000	61.757809
1653.000000	61.438036
1652.000000	61.044422
1651.000000	60.657078
1650.000000	60.269575
1649.000000	59.753181
1648.000000	58.940589
1647.000000	57.723117
1646.000000	56.144283
1645.000000	54.329969
1644.000000	52.324900
1643.000000	50.062228
1642.000000	47.480570
1641.000000	44.639122
1640.000000	41.763449
1639.000000	39.109191
1638.000000	36.800485
1637.000000	34.874704
1636.000000	33.481198
1635.000000	32.848090
1634.000000	32.961382
1633.000000	33.597133
1632.000000	34.570005
1631.000000	35.780501
1630.000000	37.181519
1629.000000	38.744013
1628.000000	40.412544
1627.000000	42.072466
1626.000000	43.644911
1625.000000	45.182489
1624.000000	46.781493
1623.000000	48.401870
1622.000000	49.868045
1621.000000	51.087650
1620.000000	52.122386
1619.000000	53.071214
1618.000000	53.997881
1617.000000	54.912099
1616.000000	55.730684
1615.000000	56.333478
1614.000000	56.699980
1613.000000	56.898125
1612.000000	56.985977
1611.000000	56.959272
1610.000000	56.767416
1609.000000	56.380601
1608.000000	55.786009
1607.000000	54.936469
1606.000000	53.747162
1605.000000	52.113454
1604.000000	49.925640
1603.000000	47.076012
1602.000000	43.545516
1601.000000	39.543578
1600.000000	35.553250
1599.000000	32.180646
1598.000000	29.835794
1597.000000	28.517723
1596.000000	27.926068
1595.000000	27.754587
1594.000000	27.829706
1593.000000	28.071448
1592.000000	28.433873
1591.000000	28.892537
1590.000000	29.464582
1589.000000	30.171770
1588.000000	30.968872
1587.000000	31.706091
1586.000000	32.200489
1585.000000	32.381043
1584.000000	32.338225
1583.000000	32.214563
1582.000000	32.070882
1581.000000	31.886860
1580.000000	31.633861
1579.000000	31.278842
1578.000000	30.729050
1577.000000	29.850449
1576.000000	28.663384
1575.000000	27.430344
1574.000000	26.364142
1573.000000	25.440008
1572.000000	24.561919
1571.000000	23.703155
1570.000000	22.911209
1569.000000	22.262537
1568.000000	21.819066
1567.000000	21.606461
1566.000000	21.593381
1565.000000	21.712609
1564.000000	21.927406
1563.000000	22.239471
1562.000000	22.658146
1561.000000	23.205600
1560.000000	24.007991
1559.000000	25.170361
1558.000000	26.396624
1557.000000	27.350110
1556.000000	28.092897
1555.000000	28.790335
1554.000000	29.477016
1553.000000	30.083520
1552.000000	30.576676
1551.000000	31.024143
1550.000000	31.502183
1549.000000	32.026791
1548.000000	32.590465
1547.000000	33.225231
1546.000000	33.971429
1545.000000	34.809355
1544.000000	35.669521
1543.000000	36.514735
1542.000000	37.368053
1541.000000	38.262136
1540.000000	39.181015
1539.000000	40.040833
1538.000000	40.774463
1537.000000	41.398379
1536.000000	41.981449
1535.000000	42.606607
1534.000000	43.313068
1533.000000	44.033762
1532.000000	44.679132
1531.000000	45.254712
1530.000000	45.806731
1529.000000	46.347158
1528.000000	46.871911
1527.000000	47.387849
1526.000000	47.889381
1525.000000	48.345285
1524.000000	48.747408
1523.000000	49.132722
1522.000000	49.527907
1521.000000	49.897725
1520.000000	50.206635
1519.000000	50.485718
1518.000000	50.771058
1517.000000	51.056600
1516.000000	51.329483
1515.000000	51.599715
1514.000000	51.878197
1513.000000	52.154012
1512.000000	52.418586
1511.000000	52.677181
1510.000000	52.928290
1509.000000	53.164805
1508.000000	53.408829
1507.000000	53.708238
1506.000000	54.035409
1505.000000	54.318503
1504.000000	54.564122
1503.000000	54.810594
1502.000000	55.059477
1501.000000	55.288659
1500.000000	55.492093
1499.000000	55.693530
1498.000000	55.906706
1497.000000	56.117034
1496.000000	56.320722
1495.000000	56.533675
1494.000000	56.749915
1493.000000	56.944180
1492.000000	57.118750
1491.000000	57.305664
1490.000000	57.508928
1489.000000	57.691892
1488.000000	57.845876
1487.000000	57.992999
1486.000000	58.122300
1485.000000	58.197388
1484.000000	58.208296
1483.000000	58.164133
1482.000000	58.039784
1481.000000	57.786188
1480.000000	57.386100
1479.000000	56.823112
1478.000000	56.010876
1477.000000	54.854936
1476.000000	53.380043
1475.000000	51.685665
1474.000000	49.798133
1473.000000	47.751795
1472.000000	45.801963
1471.000000	44.265470
1470.000000	43.205117
1469.000000	42.510458
1468.000000	42.125049
1467.000000	42.087080
1466.000000	42.458609
1465.000000	43.216232
1464.000000	44.177598
1463.000000	45.087821
1462.000000	45.776343
1461.000000	46.189354
1460.000000	46.321495
1459.000000	46.154271
1458.000000	45.628955
1457.000000	44.779715
1456.000000	43.877659
1455.000000	43.172366
1454.000000	42.637456
1453.000000	42.129669
1452.000000	41.559688
1451.000000	40.869975
1450.000000	39.963188
1449.000000	38.746063
1448.000000	37.309790
1447.000000	35.997485
1446.000000	35.193481
1445.000000	35.102820
1444.000000	35.734453
1443.000000	36.948075
1442.000000	38.502256
1441.000000	40.150340
1440.000000	41.734025
1439.000000	43.216341
1438.000000	44.648852
1437.000000	46.070138
1436.000000	47.402459
1435.000000	48.543494
1434.000000	49.522918
1433.000000	50.438371
1432.000000	51.329460
1431.000000	52.166627
1430.000000	52.910747
1429.000000	53.548259
1428.000000	54.073965
1427.000000	54.495796
1426.000000	54.854779
1425.000000	55.196652
1424.000000	55.529093
1423.000000	55.834319
1422.000000	56.115335
1421.000000	56.395876
1420.000000	56.683147
1419.000000	56.958440
1418.000000	57.206254
1417.000000	57.434750
1416.000000	57.653234
1415.000000	57.864147
1414.000000	58.079733
1413.000000	58.310405
1412.000000	58.545449
1411.000000	58.768306
1410.000000	58.980712
1409.000000	59.190493
1408.000000	59.389135
1407.000000	59.564859
1406.000000	59.728078
1405.000000	59.893600
1404.000000	60.048096
1403.000000	60.166594
1402.000000	60.236715
1401.000000	60.234806
1400.000000	60.107357
1399.000000	59.832126
1398.000000	59.485975
1397.000000	59.193001
1396.000000	59.019629
1395.000000	58.940818
1394.000000	58.872178
1393.000000	58.736581
1392.000000	58.524662
1391.000000	58.296611
1390.000000	58.136625
1389.000000	58.102607
1388.000000	58.206371
1387.000000	58.432519
1386.000000	58.769941
1385.000000	59.216997
1384.000000	59.764845
1383.000000	60.387733
1382.000000	61.043930
1381.000000	61.683712
1380.000000	62.257191
1379.000000	62.718746
1378.000000	63.032474
1377.000000	63.154954
1376.000000	62.978004
1375.000000	62.285105
1374.000000	60.780854
1373.000000	58.211428
1372.000000	54.510247
1371.000000	49.909289
1370.000000	45.034505
1369.000000	40.870358
1368.000000	38.376257
1367.000000	37.911151
1366.000000	39.058682
1365.000000	40.992140
1364.000000	42.885180
1363.000000	44.130527
1362.000000	44.509446
1361.000000	44.304680
1360.000000	44.141759
1359.000000	44.622937
1358.000000	46.016912
1357.000000	48.149226
1356.000000	50.561699
1355.000000	52.812416
1354.000000	54.678174
1353.000000	56.151472
1352.000000	57.317898
1351.000000	58.264425
1350.000000	59.059332
1349.000000	59.747334
1348.000000	60.344916
1347.000000	60.858863
1346.000000	61.304814
1345.000000	61.698718
1344.000000	62.044979
1343.000000	62.346798
1342.000000	62.624197
1341.000000	62.904576
1340.000000	63.197565
1339.000000	63.494375
1338.000000	63.786141
1337.000000	64.066842
1336.000000	64.320770
1335.000000	64.525103
1334.000000	64.662118
1333.000000	64.703620
1332.000000	64.586460
1331.000000	64.222057
1330.000000	63.539024
1329.000000	62.514854
1328.000000	61.150550
1327.000000	59.432348
1326.000000	57.349981
1325.000000	54.991604
1324.000000	52.650544
1323.000000	50.771801
1322.000000	49.678204
1321.000000	49.303085
1320.000000	49.218176
1319.000000	48.973612
1318.000000	48.459956
1317.000000	47.942670
1316.000000	47.768951
1315.000000	48.070794
1314.000000	48.719428
1313.000000	49.533614
1312.000000	50.485620
1311.000000	51.685562
1310.000000	53.192754
1309.000000	54.877440
1308.000000	56.481637
1307.000000	57.785411
1306.000000	58.702803
1305.000000	59.238777
1304.000000	59.407787
1303.000000	59.211925
1302.000000	58.661694
1301.000000	57.801803
1300.000000	56.735040
1299.000000	55.644988
1298.000000	54.738126
1297.000000	54.094948
1296.000000	53.581656
1295.000000	52.950660
1294.000000	52.061038
1293.000000	50.993929
1292.000000	49.951344
1291.000000	49.043272
1290.000000	48.170574
1289.000000	47.123275
1288.000000	45.803535
1287.000000	44.373137
1286.000000	43.183126
1285.000000	42.555348
1284.000000	42.613386
1283.000000	43.273324
1282.000000	44.358537
1281.000000	45.704541
1280.000000	47.154271
1279.000000	48.468381
1278.000000	49.283550
1277.000000	49.221866
1276.000000	48.119119
1275.000000	46.208285
1274.000000	44.102016
1273.000000	42.553594
1272.000000	42.129418
1271.000000	42.974722
1270.000000	44.814893
1269.000000	47.167834
1268.000000	49.588972
1267.000000	51.806731
1266.000000	53.714196
1265.000000	55.305694
1264.000000	56.622450
1263.000000	57.715896
1262.000000	58.627832
1261.000000	59.388787
1260.000000	60.024925
1259.000000	60.562817
1258.000000	61.034461
1257.000000	61.466267
1256.000000	61.871830
1255.000000	62.255921
1254.000000	62.617509
1253.000000	62.951662
1252.000000	63.251156
1251.000000	63.515285
1250.000000	63.755064
1249.000000	63.985345
1248.000000	64.216575
1247.000000	64.455681
1246.000000	64.707977
1245.000000	64.971402
1244.000000	65.232681
1243.000000	65.476486
1242.000000	65.694466
1241.000000	65.881599
1240.000000	66.030815
1239.000000	66.136931
1238.000000	66.202792
1237.000000	66.233036
1236.000000	66.226938
1235.000000	66.184354
1234.000000	66.109145
1233.000000	66.002251
1232.000000	65.854812
1231.000000	65.653933
1230.000000	65.391860
1229.000000	65.059132
1228.000000	64.641074
1227.000000	64.124742
1226.000000	63.499624
1225.000000	62.750139
1224.000000	61.842376
1223.000000	60.731715
1222.000000	59.372960
1221.000000	57.719999
1220.000000	55.747179
1219.000000	53.472779
1218.000000	50.968943
1217.000000	48.348434
1216.000000	45.746586
1215.000000	43.304735
1214.000000	41.142041
1213.000000	39.332727
1212.000000	37.912890
1211.000000	36.905745
1210.000000	36.314107
1209.000000	36.121180
1208.000000	36.296756
1207.000000	36.779407
1206.000000	37.459457
1205.000000	38.180136
1204.000000	38.786272
1203.000000	39.175056
1202.000000	39.314261
1201.000000	39.247199
1200.000000	39.088328
1199.000000	38.998323
1198.000000	39.128762
1197.000000	39.567500
1196.000000	40.329031
1195.000000	41.372739
1194.000000	42.628694
1193.000000	44.023408
1192.000000	45.494082
1191.000000	46.995558
1190.000000	48.490825
1189.000000	49.944145
1188.000000	51.324650
1187.000000	52.611495
1186.000000	53.793126
1185.000000	54.865649
1184.000000	55.834068
1183.000000	56.710497
1182.000000	57.510851
1181.000000	58.241095
1180.000000	58.894532
1179.000000	59.464294
1178.000000	59.949264
1177.000000	60.353916
1176.000000	60.681363
1175.000000	60.934939
1174.000000	61.118659
1173.000000	61.220927
1172.000000	61.211115
1171.000000	61.044562
1170.000000	60.670307
1169.000000	60.037782
1168.000000	59.105929
1167.000000	57.880318
1166.000000	56.441486
1165.000000	54.943724
1164.000000	53.589711
1163.000000	52.586719
1162.000000	52.079763
1161.000000	52.103221
1160.000000	52.586106
1159.000000	53.388591
1158.000000	54.356288
1157.000000	55.352036
1156.000000	56.275586
1155.000000	57.073351
1154.000000	57.727903
1153.000000	58.238445
1152.000000	58.606643
1151.000000	58.834167
1150.000000	58.915270
1149.000000	58.833920
1148.000000	58.557099
1147.000000	58.046678
1146.000000	57.266312
1145.000000	56.163399
1144.000000	54.678900
1143.000000	52.763563
1142.000000	50.407801
1141.000000	47.672526
1140.000000	44.705410
1139.000000	41.731835
1138.000000	38.972557
1137.000000	36.542896
1136.000000	34.420360
1135.000000	32.505496
1134.000000	30.714545
1133.000000	29.078569
1132.000000	27.790074
1131.000000	27.128290
1130.000000	27.310137
1129.000000	28.335914
1128.000000	29.953367
1127.000000	31.715235
1126.000000	33.072441
1125.000000	33.496702
1124.000000	32.651832
1123.000000	30.565798
1122.000000	27.681913
1121.000000	24.690318
1120.000000	22.185340
1119.000000	20.392364
1118.000000	19.177826
1117.000000	18.352856
1116.000000	17.965751
1115.000000	18.303214
1114.000000	19.594301
1113.000000	21.755993
1112.000000	24.405605
1111.000000	27.027324
1110.000000	29.164939
1109.000000	30.563333
1108.000000	31.215196
1107.000000	31.257423
1106.000000	30.800485
1105.000000	29.875457
1104.000000	28.609965
1103.000000	27.402286
1102.000000	26.765881
1101.000000	26.931608
1100.000000	27.645235
1099.000000	28.421115
1098.000000	29.009177
1097.000000	29.615007
1096.000000	30.661426
1095.000000	32.398972
1094.000000	34.723541
1093.000000	37.296096
1092.000000	39.782131
1091.000000	41.986275
1090.000000	43.860341
1089.000000	45.446658
1088.000000	46.816642
1087.000000	48.031405
1086.000000	49.135957
1085.000000	50.160744
1084.000000	51.117285
1083.000000	52.007364
1082.000000	52.831889
1081.000000	53.598656
1080.000000	54.316347
1079.000000	54.985343
1078.000000	55.603469
1077.000000	56.160111
1076.000000	56.627462
1075.000000	56.959448
1074.000000	57.088892
1073.000000	56.935172
1072.000000	56.380442
1071.000000	55.266737
1070.000000	53.415881
1069.000000	50.635262
1068.000000	46.796260
1067.000000	41.945053
1066.000000	36.426620
1065.000000	30.904055
1064.000000	26.179913
1063.000000	22.851393
1062.000000	20.974958
1061.000000	20.010887
1060.000000	19.143790
1059.000000	17.789256
1058.000000	15.895660
1057.000000	13.908437
1056.000000	12.454474
1055.000000	11.967198
1054.000000	12.547810
1053.000000	14.043545
1052.000000	16.217648
1051.000000	18.834482
1050.000000	21.643483
1049.000000	24.421881
1048.000000	27.027878
1047.000000	29.411426
1046.000000	31.573440
1045.000000	33.528925
1044.000000	35.295853
1043.000000	36.890670
1042.000000	38.322254
1041.000000	39.591656
1040.000000	40.709661
1039.000000	41.692523
1038.000000	42.553614
1037.000000	43.304032
1036.000000	43.956689
1035.000000	44.532242
1034.000000	45.048816
1033.000000	45.518335
1032.000000	45.952300
1031.000000	46.361272
1030.000000	46.752058
1029.000000	47.126478
1028.000000	47.488029
1027.000000	47.844760
1026.000000	48.200235
1025.000000	48.548415
1024.000000	48.875696
1023.000000	49.163334
1022.000000	49.387753
1021.000000	49.517161
1020.000000	49.519834
1019.000000	49.363521
1018.000000	49.002287
1017.000000	48.376114
1016.000000	47.412499
1015.000000	46.057807
1014.000000	44.305593
1013.000000	42.215694
1012.000000	39.918722
1011.000000	37.550057
1010.000000	35.165399
1009.000000	32.727793
1008.000000	30.234797
1007.000000	27.871845
1006.000000	26.040986
1005.000000	25.194071
1004.000000	25.594614
1003.000000	27.174919
1002.000000	29.542531
1001.000000	32.144197
1000.000000	34.435569
999.000000	35.984183
998.000000	36.542317
997.000000	36.128370
996.000000	35.078409
995.000000	33.963796
994.000000	33.353668
993.000000	33.567003
992.000000	34.596592
991.000000	36.208533
990.000000	38.101431
989.000000	40.019352
988.000000	41.800181
987.000000	43.366912
986.000000	44.710392
985.000000	45.862421
984.000000	46.867395
983.000000	47.761595
982.000000	48.570627
981.000000	49.308290
980.000000	49.976862
979.000000	50.578386
978.000000	51.117738
977.000000	51.602598
976.000000	52.039072
975.000000	52.432947
974.000000	52.795968
973.000000	53.141002
972.000000	53.476885
971.000000	53.809426
970.000000	54.143385
969.000000	54.478504
968.000000	54.803162
967.000000	55.100199
966.000000	55.359081
965.000000	55.579795
964.000000	55.770687
963.000000	55.948302
962.000000	56.136487
961.000000	56.355376
960.000000	56.607622
959.000000	56.878614
958.000000	57.146502
957.000000	57.389848
956.000000	57.592530
955.000000	57.752659
954.000000	57.888498
953.000000	58.028845
952.000000	58.195311
951.000000	58.394677
950.000000	58.621679
949.000000	58.861166
948.000000	59.089853
947.000000	59.287160
946.000000	59.448260
945.000000	59.583082
944.000000	59.705794
943.000000	59.830249
942.000000	59.970226
941.000000	60.133832
940.000000	60.317002
939.000000	60.509069
938.000000	60.703054
937.000000	60.894409
936.000000	61.073061
935.000000	61.226343
934.000000	61.350140
933.000000	61.450831
932.000000	61.538960
931.000000	61.629458
930.000000	61.743680
929.000000	61.898500
928.000000	62.090103
927.000000	62.294317
926.000000	62.482851
925.000000	62.633628
924.000000	62.733608
923.000000	62.787146
922.000000	62.823638
921.000000	62.884846
920.000000	62.999896
919.000000	63.173008
918.000000	63.388221
917.000000	63.614668
916.000000	63.812165
915.000000	63.949680
914.000000	64.026910
913.000000	64.071993
912.000000	64.117172
911.000000	64.184048
910.000000	64.280608
909.000000	64.390180
908.000000	64.459026
907.000000	64.399597
906.000000	64.120095
905.000000	63.550742
904.000000	62.671991
903.000000	61.559716
902.000000	60.409291
901.000000	59.484228
900.000000	59.000927
899.000000	59.031348
898.000000	59.488361
897.000000	60.194334
896.000000	60.966133
895.000000	61.675483
894.000000	62.249455
893.000000	62.605311
892.000000	62.605470
891.000000	62.139257
890.000000	61.301334
889.000000	60.459676
888.000000	60.064420
887.000000	60.333104
886.000000	61.093688
885.000000	61.928915
884.000000	62.476813
883.000000	62.618407
882.000000	62.458796
881.000000	62.185970
880.000000	61.932077
879.000000	61.718595
878.000000	61.503217
877.000000	61.277895
876.000000	61.132046
875.000000	61.204570
874.000000	61.568822
873.000000	62.166766
872.000000	62.857332
871.000000	63.516608
870.000000	64.092003
869.000000	64.587420
868.000000	65.022063
867.000000	65.408954
866.000000	65.751003
865.000000	66.044336
864.000000	66.282486
863.000000	66.465419
862.000000	66.602155
861.000000	66.704518
860.000000	66.785190
859.000000	66.861513
858.000000	66.955748
857.000000	67.084352
856.000000	67.248443
855.000000	67.435682
854.000000	67.624380
853.000000	67.784798
852.000000	67.887261
851.000000	67.921434
850.000000	67.908634
849.000000	67.891760
848.000000	67.914484
847.000000	68.006385
846.000000	68.173312
845.000000	68.389979
844.000000	68.605180
843.000000	68.767166
842.000000	68.851685
841.000000	68.869233
840.000000	68.854242
839.000000	68.852917
838.000000	68.908486
837.000000	69.040604
836.000000	69.233922
835.000000	69.449683
834.000000	69.647603
833.000000	69.798905
832.000000	69.890285
831.000000	69.929344
830.000000	69.944952
829.000000	69.972499
828.000000	70.036187
827.000000	70.147240
826.000000	70.309947
825.000000	70.517883
824.000000	70.747207
823.000000	70.964322
822.000000	71.141182
821.000000	71.258856
820.000000	71.305972
819.000000	71.286495
818.000000	71.222020
817.000000	71.134239
816.000000	71.013233
815.000000	70.799068
814.000000	70.379408
813.000000	69.604673
812.000000	68.358572
811.000000	66.668312
810.000000	64.777506
809.000000	63.078133
808.000000	61.926096
807.000000	61.469421
806.000000	61.603416
805.000000	62.053526
804.000000	62.507502
803.000000	62.714326
802.000000	62.519507
801.000000	61.856440
800.000000	60.722570
799.000000	59.168287
798.000000	57.281603
797.000000	55.172920
796.000000	52.954575
795.000000	50.731172
794.000000	48.596581
793.000000	46.634313
792.000000	44.923676
791.000000	43.540826
790.000000	42.552897
789.000000	42.000367
788.000000	41.891701
787.000000	42.195547
786.000000	42.844849
785.000000	43.750748
784.000000	44.809260
783.000000	45.909182
782.000000	46.936380
781.000000	47.789012
780.000000	48.394465
779.000000	48.726069
778.000000	48.809277
777.000000	48.708134
776.000000	48.494508
775.000000	48.219511
774.000000	47.912721
773.000000	47.603254
772.000000	47.346225
771.000000	47.225864
770.000000	47.333655
769.000000	47.731373
768.000000	48.427914
767.000000	49.382483
766.000000	50.528645
765.000000	51.800078
764.000000	53.136136
763.000000	54.480662
762.000000	55.781658
761.000000	56.993722
760.000000	58.079970
759.000000	59.020547
758.000000	59.825045
757.000000	60.531555
756.000000	61.190661
755.000000	61.848033
754.000000	62.535668
753.000000	63.262224
752.000000	64.003466
751.000000	64.707879
750.000000	65.318492
749.000000	65.796549
748.000000	66.134798
747.000000	66.363819
746.000000	66.547903
745.000000	66.761889
744.000000	67.058651
743.000000	67.448573
742.000000	67.898489
741.000000	68.342284
740.000000	68.699998
739.000000	68.909997
738.000000	68.958166
737.000000	68.878168
736.000000	68.724677
735.000000	68.543212
734.000000	68.351398
733.000000	68.130543
732.000000	67.831884
731.000000	67.407529
730.000000	66.851401
729.000000	66.217688
728.000000	65.599406
727.000000	65.088249
726.000000	64.740595
725.000000	64.561616
724.000000	64.507888
723.000000	64.502475
722.000000	64.445697
721.000000	64.214309
720.000000	63.674936
719.000000	62.738384
718.000000	61.424037
717.000000	59.876356
716.000000	58.323783
715.000000	57.011577
714.000000	56.142404
713.000000	55.831046
712.000000	56.077296
711.000000	56.772638
710.000000	57.747794
709.000000	58.830228
708.000000	59.880312
707.000000	60.816287
706.000000	61.633334
705.000000	62.391571
704.000000	63.168219
703.000000	64.013847
702.000000	64.936597
701.000000	65.900048
700.000000	66.825258
699.000000	67.617491
698.000000	68.215832
697.000000	68.623569
696.000000	68.897536
695.000000	69.118605
694.000000	69.365592
693.000000	69.691370
692.000000	70.103491
691.000000	70.567604
690.000000	71.030682
689.000000	71.438734
688.000000	71.744067
687.000000	71.921949
686.000000	71.988267
685.000000	71.991033
684.000000	71.985377
683.000000	72.020777
682.000000	72.141033
681.000000	72.371468
680.000000	72.691613
679.000000	73.032865
678.000000	73.310632
677.000000	73.456958
676.000000	73.438087
675.000000	73.282132
674.000000	73.082008
673.000000	72.961200
672.000000	73.043418
671.000000	73.437409
670.000000	74.187438
669.000000	75.140635
668.000000	75.814785
667.000000	75.747999
666.000000	75.093509
665.000000	74.363209
664.000000	73.867575
663.000000	73.660038
662.000000	73.690672
661.000000	73.894828
660.000000	74.196833
659.000000	74.497338
658.000000	74.702387
657.000000	74.769933
656.000000	74.708760
655.000000	74.563956
654.000000	74.407863
653.000000	74.309501
652.000000	74.306813
651.000000	74.402809
650.000000	74.575377
649.000000	74.782396
648.000000	74.964697
647.000000	75.062778
646.000000	75.043694
645.000000	74.911623
644.000000	74.698182
643.000000	74.456962
642.000000	74.260000
641.000000	74.173677
640.000000	74.224799
639.000000	74.385697
638.000000	74.582129
637.000000	74.714964
636.000000	74.693533
635.000000	74.479072
634.000000	74.116005
633.000000	73.714255
632.000000	73.393147
631.000000	73.233208
630.000000	73.248877
629.000000	73.380888
628.000000	73.516608
627.000000	73.537885
626.000000	73.373708
625.000000	73.027451
624.000000	72.566221
623.000000	72.088737
622.000000	71.686616
621.000000	71.409957
620.000000	71.253194
619.000000	71.161442
618.000000	71.045450
617.000000	70.810056
616.000000	70.399629
615.000000	69.825636
614.000000	69.143608
613.000000	68.405794
612.000000	67.643329
611.000000	66.881941
610.000000	66.138882
609.000000	65.398217
608.000000	64.611125
607.000000	63.720488
606.000000	62.674431
605.000000	61.428507
604.000000	59.970212
603.000000	58.345995
602.000000	56.633107
601.000000	54.891754
600.000000	53.163327
599.000000	51.481550
598.000000	49.837858
597.000000	48.151515
596.000000	46.328634
595.000000	44.331225
594.000000	42.146276
593.000000	39.723042
592.000000	37.025312
591.000000	34.162064
590.000000	31.424805
589.000000	29.201682
588.000000	27.831971
587.000000	27.424350
586.000000	27.704085
585.000000	28.125898
584.000000	28.260412
583.000000	28.020857
582.000000	27.537053
581.000000	26.959390
580.000000	26.435127
579.000000	26.138060
578.000000	26.179769
577.000000	26.542745
576.000000	27.152265
575.000000	27.935931
574.000000	28.779487
573.000000	29.526606
572.000000	30.105877
571.000000	30.606319
570.000000	31.188203
569.000000	31.962408
568.000000	32.969383
567.000000	34.185453
566.000000	35.492104
565.000000	36.714038
564.000000	37.742896
563.000000	38.585371
562.000000	39.289126
561.000000	39.885519
560.000000	40.423512
559.000000	40.984577
558.000000	41.616778
557.000000	42.294861
556.000000	42.971647
555.000000	43.627576
554.000000	44.243985
553.000000	44.788977
552.000000	45.266666
551.000000	45.740743
550.000000	46.276520
549.000000	46.888967
548.000000	47.564331
547.000000	48.284205
546.000000	49.002084
545.000000	49.644329
544.000000	50.169769
543.000000	50.602650
542.000000	50.994509
541.000000	51.382513
540.000000	51.798757
539.000000	52.278374
538.000000	52.826844
537.000000	53.401440
536.000000	53.943914
535.000000	54.416967
534.000000	54.801273
533.000000	55.088378
532.000000	55.294611
531.000000	55.460195
530.000000	55.617919
529.000000	55.769481
528.000000	55.893522
527.000000	55.958501
526.000000	55.906287
525.000000	55.657244
524.000000	55.157198
523.000000	54.408648
522.000000	53.461354
521.000000	52.375354
520.000000	51.198049
519.000000	49.939646
518.000000	48.537140
517.000000	46.886972
516.000000	44.953026
515.000000	42.842610
514.000000	40.755801
513.000000	38.905244
512.000000	37.497602
511.000000	36.723472
510.000000	36.670938
509.000000	37.281284
508.000000	38.445795
507.000000	40.045301
506.000000	41.902174
505.000000	43.805858
504.000000	45.622119
503.000000	47.320805
502.000000	48.879571
501.000000	50.252992
500.000000	51.443548
499.000000	52.525854
498.000000	53.566010
497.000000	54.570150
496.000000	55.514606
495.000000	56.382841
494.000000	57.164254
493.000000	57.845822
492.000000	58.436547
491.000000	58.975117
490.000000	59.495248
489.000000	60.007205
488.000000	60.511316
487.000000	61.003699
486.000000	61.454640
485.000000	61.801832
484.000000	61.989533
483.000000	61.991815
482.000000	61.797595
481.000000	61.392822
480.000000	60.754195
479.000000	59.854737
478.000000	58.662518
477.000000	57.186905
476.000000	55.548855
475.000000	53.976567
474.000000	52.694446
473.000000	51.819711
472.000000	51.357120
471.000000	51.245046
470.000000	51.408915
469.000000	51.800255
468.000000	52.417743
467.000000	53.234385
466.000000	54.077160
465.000000	54.642456
464.000000	54.670259
463.000000	54.122911
462.000000	53.258074
461.000000	52.518812
460.000000	52.337396
459.000000	53.001293
458.000000	54.507743
457.000000	56.468975
456.000000	58.374497
455.000000	59.979628
454.000000	61.295047
453.000000	62.371041
452.000000	63.210731
451.000000	63.820835
450.000000	64.222495
449.000000	64.401896
448.000000	64.297007
447.000000	63.850013
446.000000	63.081294
445.000000	62.106764
444.000000	61.139244
443.000000	60.458863
442.000000	60.275070
441.000000	60.580087
440.000000	61.208088
439.000000	61.992172
438.000000	62.819903
437.000000	63.614578
436.000000	64.314308
435.000000	64.878202
434.000000	65.288175
433.000000	65.544209
432.000000	65.666043
431.000000	65.706682
430.000000	65.727566
429.000000	65.748215
428.000000	65.747108
427.000000	65.706836
426.000000	65.634197
425.000000	65.534036
424.000000	65.401927
423.000000	65.252753
422.000000	65.113671
421.000000	64.985678
420.000000	64.853749
419.000000	64.745374
418.000000	64.718802
417.000000	64.767122
416.000000	64.829453
415.000000	64.876574
414.000000	64.919267
413.000000	64.969404
412.000000	65.029341
411.000000	65.106226
410.000000	65.188774
409.000000	65.213845
408.000000	65.113138
407.000000	64.915909
406.000000	64.768721
405.000000	64.822044
404.000000	65.120503
403.000000	65.594573
402.000000	66.110331
401.000000	66.539261
400.000000	66.839282
