PE IR       SUBTECH     SPECTRUM    ASCII       PEDS        4.00        
   -1
23ms217_cis.asc
24/10/18
16:01:11.00
24/10/18
16:01:11.00
Administrator
Sample 1308 By Administrator Date Friday, October 18 2024
400.000000
#HDR
-1
-1
#GR
cm-1
%T
1.0
0.0
4000.000000
-1.000000
3601
8
90.136481
36.196612
#DATA
4000.000000	76.978208
3999.000000	76.968463
3998.000000	76.961299
3997.000000	76.956058
3996.000000	76.951591
3995.000000	76.946923
3994.000000	76.941921
3993.000000	76.937373
3992.000000	76.934265
3991.000000	76.932732
3990.000000	76.931764
3989.000000	76.930666
3988.000000	76.930649
3987.000000	76.934049
3986.000000	76.942219
3985.000000	76.954434
3984.000000	76.968910
3983.000000	76.984374
3982.000000	77.000636
3981.000000	77.018259
3980.000000	77.037617
3979.000000	77.058807
3978.000000	77.082079
3977.000000	77.107337
3976.000000	77.133648
3975.000000	77.159244
3974.000000	77.182686
3973.000000	77.203873
3972.000000	77.223507
3971.000000	77.242611
3970.000000	77.261665
3969.000000	77.280679
3968.000000	77.300099
3967.000000	77.320735
3966.000000	77.343314
3965.000000	77.368463
3964.000000	77.396642
3963.000000	77.427347
3962.000000	77.459473
3961.000000	77.491571
3960.000000	77.522791
3959.000000	77.554330
3958.000000	77.587448
3957.000000	77.621818
3956.000000	77.656367
3955.000000	77.690616
3954.000000	77.724957
3953.000000	77.758607
3952.000000	77.788827
3951.000000	77.812466
3950.000000	77.827995
3949.000000	77.837502
3948.000000	77.846465
3947.000000	77.860195
3946.000000	77.880873
3945.000000	77.907778
3944.000000	77.937356
3943.000000	77.962450
3942.000000	77.978383
3941.000000	77.988682
3940.000000	78.001976
3939.000000	78.025711
3938.000000	78.058312
3937.000000	78.090226
3936.000000	78.114120
3935.000000	78.130848
3934.000000	78.147700
3933.000000	78.167947
3932.000000	78.188411
3931.000000	78.205456
3930.000000	78.218454
3929.000000	78.232088
3928.000000	78.250235
3927.000000	78.272899
3926.000000	78.295989
3925.000000	78.310589
3924.000000	78.309707
3923.000000	78.295727
3922.000000	78.278295
3921.000000	78.266222
3920.000000	78.261124
3919.000000	78.260034
3918.000000	78.262754
3917.000000	78.272446
3916.000000	78.289643
3915.000000	78.309225
3914.000000	78.328479
3913.000000	78.349653
3912.000000	78.373954
3911.000000	78.400008
3910.000000	78.424796
3909.000000	78.447540
3908.000000	78.470097
3907.000000	78.488398
3906.000000	78.491853
3905.000000	78.469857
3904.000000	78.424885
3903.000000	78.378245
3902.000000	78.354204
3901.000000	78.364887
3900.000000	78.405322
3899.000000	78.457283
3898.000000	78.504783
3897.000000	78.545443
3896.000000	78.584693
3895.000000	78.627929
3894.000000	78.673039
3893.000000	78.712742
3892.000000	78.739722
3891.000000	78.752599
3890.000000	78.752445
3889.000000	78.742084
3888.000000	78.737157
3887.000000	78.759544
3886.000000	78.809248
3885.000000	78.859160
3884.000000	78.885414
3883.000000	78.893148
3882.000000	78.901540
3881.000000	78.916714
3880.000000	78.929278
3879.000000	78.931282
3878.000000	78.926738
3877.000000	78.929206
3876.000000	78.950672
3875.000000	78.985581
3874.000000	79.008025
3873.000000	78.997675
3872.000000	78.965664
3871.000000	78.945012
3870.000000	78.953640
3869.000000	78.977481
3868.000000	78.993385
3867.000000	79.002001
3866.000000	79.023655
3865.000000	79.059378
3864.000000	79.084891
3863.000000	79.088114
3862.000000	79.084025
3861.000000	79.093121
3860.000000	79.123527
3859.000000	79.174760
3858.000000	79.246350
3857.000000	79.331684
3856.000000	79.409312
3855.000000	79.446597
3854.000000	79.425876
3853.000000	79.381142
3852.000000	79.355129
3851.000000	79.345665
3850.000000	79.339048
3849.000000	79.337917
3848.000000	79.344957
3847.000000	79.360161
3846.000000	79.383340
3845.000000	79.411548
3844.000000	79.438685
3843.000000	79.457423
3842.000000	79.464477
3841.000000	79.467466
3840.000000	79.473573
3839.000000	79.481267
3838.000000	79.490757
3837.000000	79.504926
3836.000000	79.522737
3835.000000	79.538374
3834.000000	79.550457
3833.000000	79.566512
3832.000000	79.591836
3831.000000	79.621793
3830.000000	79.649937
3829.000000	79.675892
3828.000000	79.704173
3827.000000	79.737303
3826.000000	79.765377
3825.000000	79.775333
3824.000000	79.769096
3823.000000	79.768505
3822.000000	79.790668
3821.000000	79.821528
3820.000000	79.835691
3819.000000	79.829723
3818.000000	79.826657
3817.000000	79.852674
3816.000000	79.906289
3815.000000	79.958657
3814.000000	79.990715
3813.000000	80.007614
3812.000000	80.020556
3811.000000	80.032185
3810.000000	80.039734
3809.000000	80.045649
3808.000000	80.060340
3807.000000	80.087165
3806.000000	80.112154
3805.000000	80.124034
3804.000000	80.130236
3803.000000	80.154372
3802.000000	80.198773
3801.000000	80.234545
3800.000000	80.239287
3799.000000	80.220965
3798.000000	80.205129
3797.000000	80.208629
3796.000000	80.228505
3795.000000	80.253885
3794.000000	80.281763
3793.000000	80.314914
3792.000000	80.352119
3791.000000	80.388011
3790.000000	80.418012
3789.000000	80.441698
3788.000000	80.461730
3787.000000	80.480435
3786.000000	80.498219
3785.000000	80.512724
3784.000000	80.519321
3783.000000	80.516069
3782.000000	80.508999
3781.000000	80.508142
3780.000000	80.516457
3779.000000	80.528655
3778.000000	80.541136
3777.000000	80.556781
3776.000000	80.579728
3775.000000	80.608896
3774.000000	80.635775
3773.000000	80.650975
3772.000000	80.655569
3771.000000	80.660471
3770.000000	80.669741
3769.000000	80.677351
3768.000000	80.681407
3767.000000	80.691745
3766.000000	80.720078
3765.000000	80.760637
3764.000000	80.794556
3763.000000	80.814217
3762.000000	80.831250
3761.000000	80.858481
3760.000000	80.888204
3759.000000	80.905504
3758.000000	80.912829
3757.000000	80.921805
3756.000000	80.936249
3755.000000	80.953051
3754.000000	80.972240
3753.000000	80.994452
3752.000000	81.010208
3751.000000	81.014807
3750.000000	81.025411
3749.000000	81.050957
3748.000000	81.075343
3747.000000	81.088101
3746.000000	81.104381
3745.000000	81.142834
3744.000000	81.194072
3743.000000	81.228949
3742.000000	81.233437
3741.000000	81.221058
3740.000000	81.209876
3739.000000	81.205217
3738.000000	81.211465
3737.000000	81.236803
3736.000000	81.278330
3735.000000	81.311965
3734.000000	81.326505
3733.000000	81.344732
3732.000000	81.384891
3731.000000	81.433056
3730.000000	81.464277
3729.000000	81.475549
3728.000000	81.488001
3727.000000	81.516034
3726.000000	81.550031
3725.000000	81.574566
3724.000000	81.592196
3723.000000	81.614314
3722.000000	81.642595
3721.000000	81.673858
3720.000000	81.705153
3719.000000	81.736629
3718.000000	81.768641
3717.000000	81.796883
3716.000000	81.816831
3715.000000	81.829340
3714.000000	81.842173
3713.000000	81.860109
3712.000000	81.877113
3711.000000	81.889062
3710.000000	81.906289
3709.000000	81.941061
3708.000000	81.991766
3707.000000	82.046434
3706.000000	82.095310
3705.000000	82.137439
3704.000000	82.177429
3703.000000	82.217297
3702.000000	82.253626
3701.000000	82.283463
3700.000000	82.306146
3699.000000	82.324246
3698.000000	82.346133
3697.000000	82.376792
3696.000000	82.407779
3695.000000	82.427128
3694.000000	82.436744
3693.000000	82.452297
3692.000000	82.481088
3691.000000	82.509677
3690.000000	82.522287
3689.000000	82.529637
3688.000000	82.553424
3687.000000	82.587478
3686.000000	82.613746
3685.000000	82.630728
3684.000000	82.645975
3683.000000	82.662833
3682.000000	82.682509
3681.000000	82.705251
3680.000000	82.725946
3679.000000	82.729802
3678.000000	82.711585
3677.000000	82.695385
3676.000000	82.706644
3675.000000	82.739718
3674.000000	82.762176
3673.000000	82.758411
3672.000000	82.751913
3671.000000	82.777399
3670.000000	82.829579
3669.000000	82.877046
3668.000000	82.910289
3667.000000	82.937617
3666.000000	82.964254
3665.000000	82.993032
3664.000000	83.023577
3663.000000	83.054924
3662.000000	83.085265
3661.000000	83.108353
3660.000000	83.119723
3659.000000	83.120572
3658.000000	83.120235
3657.000000	83.129065
3656.000000	83.145299
3655.000000	83.154651
3654.000000	83.142819
3653.000000	83.115550
3652.000000	83.096694
3651.000000	83.096227
3650.000000	83.093623
3649.000000	83.079190
3648.000000	83.083969
3647.000000	83.126805
3646.000000	83.185562
3645.000000	83.236261
3644.000000	83.279230
3643.000000	83.325881
3642.000000	83.375720
3641.000000	83.417211
3640.000000	83.445512
3639.000000	83.465822
3638.000000	83.480743
3637.000000	83.486459
3636.000000	83.484523
3635.000000	83.485454
3634.000000	83.491535
3633.000000	83.489318
3632.000000	83.466692
3631.000000	83.433369
3630.000000	83.413303
3629.000000	83.414506
3628.000000	83.425805
3627.000000	83.436347
3626.000000	83.440382
3625.000000	83.440483
3624.000000	83.442234
3623.000000	83.446412
3622.000000	83.451430
3621.000000	83.454706
3620.000000	83.445146
3619.000000	83.409399
3618.000000	83.349094
3617.000000	83.276216
3616.000000	83.201496
3615.000000	83.132544
3614.000000	83.069612
3613.000000	83.005413
3612.000000	82.935949
3611.000000	82.867700
3610.000000	82.815577
3609.000000	82.790241
3608.000000	82.781355
3607.000000	82.768526
3606.000000	82.742696
3605.000000	82.707738
3604.000000	82.671363
3603.000000	82.635810
3602.000000	82.599220
3601.000000	82.561440
3600.000000	82.522295
3599.000000	82.479213
3598.000000	82.432649
3597.000000	82.385507
3596.000000	82.340682
3595.000000	82.297399
3594.000000	82.252313
3593.000000	82.203926
3592.000000	82.152056
3591.000000	82.099549
3590.000000	82.057169
3589.000000	82.037071
3588.000000	82.034998
3587.000000	82.034046
3586.000000	82.026102
3585.000000	82.015838
3584.000000	82.009047
3583.000000	82.006448
3582.000000	82.005355
3581.000000	82.002280
3580.000000	81.994252
3579.000000	81.978867
3578.000000	81.955898
3577.000000	81.927261
3576.000000	81.893988
3575.000000	81.856313
3574.000000	81.814248
3573.000000	81.767476
3572.000000	81.714061
3571.000000	81.651094
3570.000000	81.580752
3569.000000	81.514024
3568.000000	81.458489
3567.000000	81.408820
3566.000000	81.356709
3565.000000	81.301206
3564.000000	81.245331
3563.000000	81.192213
3562.000000	81.141249
3561.000000	81.088021
3560.000000	81.027797
3559.000000	80.958707
3558.000000	80.882295
3557.000000	80.801360
3556.000000	80.717383
3555.000000	80.630230
3554.000000	80.539379
3553.000000	80.443734
3552.000000	80.341622
3551.000000	80.231208
3550.000000	80.111779
3549.000000	79.986999
3548.000000	79.862018
3547.000000	79.738111
3546.000000	79.611739
3545.000000	79.480533
3544.000000	79.346209
3543.000000	79.211647
3542.000000	79.077164
3541.000000	78.940788
3540.000000	78.799568
3539.000000	78.649406
3538.000000	78.486768
3537.000000	78.310239
3536.000000	78.121299
3535.000000	77.922206
3534.000000	77.715083
3533.000000	77.502351
3532.000000	77.285099
3531.000000	77.060876
3530.000000	76.824136
3529.000000	76.571776
3528.000000	76.305679
3527.000000	76.029032
3526.000000	75.742958
3525.000000	75.448122
3524.000000	75.145866
3523.000000	74.836156
3522.000000	74.517055
3521.000000	74.187269
3520.000000	73.847394
3519.000000	73.496605
3518.000000	73.131945
3517.000000	72.752077
3516.000000	72.360119
3515.000000	71.960571
3514.000000	71.555025
3513.000000	71.142211
3512.000000	70.720135
3511.000000	70.286188
3510.000000	69.837912
3509.000000	69.376592
3508.000000	68.906886
3507.000000	68.431558
3506.000000	67.948768
3505.000000	67.455503
3504.000000	66.951347
3503.000000	66.438649
3502.000000	65.920920
3501.000000	65.401275
3500.000000	64.880697
3499.000000	64.356412
3498.000000	63.824319
3497.000000	63.283405
3496.000000	62.736551
3495.000000	62.186811
3494.000000	61.635755
3493.000000	61.085687
3492.000000	60.539810
3491.000000	59.998853
3490.000000	59.460994
3489.000000	58.927066
3488.000000	58.402495
3487.000000	57.892546
3486.000000	57.398898
3485.000000	56.920968
3484.000000	56.456732
3483.000000	56.001814
3482.000000	55.551976
3481.000000	55.108400
3480.000000	54.676360
3479.000000	54.257529
3478.000000	53.847409
3477.000000	53.440694
3476.000000	53.034641
3475.000000	52.627208
3474.000000	52.216914
3473.000000	51.805728
3472.000000	51.398939
3471.000000	51.001765
3470.000000	50.619975
3469.000000	50.263400
3468.000000	49.943878
3467.000000	49.668431
3466.000000	49.438106
3465.000000	49.253680
3464.000000	49.117389
3463.000000	49.029677
3462.000000	48.989966
3461.000000	49.000170
3460.000000	49.063047
3459.000000	49.175573
3458.000000	49.327834
3457.000000	49.508818
3456.000000	49.708886
3455.000000	49.917158
3454.000000	50.121914
3453.000000	50.313271
3452.000000	50.482340
3451.000000	50.618502
3450.000000	50.710408
3449.000000	50.750583
3448.000000	50.735935
3447.000000	50.664445
3446.000000	50.536639
3445.000000	50.357748
3444.000000	50.135214
3443.000000	49.874884
3442.000000	49.581223
3441.000000	49.262147
3440.000000	48.929492
3439.000000	48.595301
3438.000000	48.271651
3437.000000	47.972373
3436.000000	47.710948
3435.000000	47.495081
3434.000000	47.325715
3433.000000	47.201186
3432.000000	47.121561
3431.000000	47.089072
3430.000000	47.108340
3429.000000	47.186712
3428.000000	47.329584
3427.000000	47.537975
3426.000000	47.810015
3425.000000	48.144363
3424.000000	48.540996
3423.000000	48.997097
3422.000000	49.507901
3421.000000	50.068155
3420.000000	50.670705
3419.000000	51.306110
3418.000000	51.964120
3417.000000	52.637176
3416.000000	53.319569
3415.000000	54.005019
3414.000000	54.688097
3413.000000	55.365470
3412.000000	56.033543
3411.000000	56.686428
3410.000000	57.318629
3409.000000	57.928625
3408.000000	58.517436
3407.000000	59.084037
3406.000000	59.625377
3405.000000	60.139902
3404.000000	60.628429
3403.000000	61.092987
3402.000000	61.536815
3401.000000	61.964704
3400.000000	62.380607
3399.000000	62.783998
3398.000000	63.171066
3397.000000	63.539436
3396.000000	63.889832
3395.000000	64.224673
3394.000000	64.546570
3393.000000	64.858581
3392.000000	65.163632
3391.000000	65.462825
3390.000000	65.756105
3389.000000	66.043310
3388.000000	66.324008
3387.000000	66.597263
3386.000000	66.863128
3385.000000	67.123717
3384.000000	67.381059
3383.000000	67.635139
3382.000000	67.885495
3381.000000	68.133189
3380.000000	68.379337
3379.000000	68.623107
3378.000000	68.863359
3377.000000	69.101327
3376.000000	69.339007
3375.000000	69.575865
3374.000000	69.809413
3373.000000	70.038560
3372.000000	70.264271
3371.000000	70.487376
3370.000000	70.708202
3369.000000	70.927835
3368.000000	71.147693
3367.000000	71.367811
3366.000000	71.586973
3365.000000	71.804219
3364.000000	72.018879
3363.000000	72.229939
3362.000000	72.437042
3361.000000	72.641400
3360.000000	72.844292
3359.000000	73.045311
3358.000000	73.243544
3357.000000	73.439711
3356.000000	73.635164
3355.000000	73.829641
3354.000000	74.021577
3353.000000	74.210190
3352.000000	74.395787
3351.000000	74.578526
3350.000000	74.758353
3349.000000	74.935730
3348.000000	75.111097
3347.000000	75.283956
3346.000000	75.453999
3345.000000	75.622477
3344.000000	75.790931
3343.000000	75.958815
3342.000000	76.123804
3341.000000	76.284298
3340.000000	76.440491
3339.000000	76.593406
3338.000000	76.743893
3337.000000	76.892440
3336.000000	77.038616
3335.000000	77.180851
3334.000000	77.317664
3333.000000	77.448555
3332.000000	77.573241
3331.000000	77.690441
3330.000000	77.798457
3329.000000	77.896684
3328.000000	77.985270
3327.000000	78.063987
3326.000000	78.132018
3325.000000	78.188063
3324.000000	78.229962
3323.000000	78.254141
3322.000000	78.257338
3321.000000	78.238317
3320.000000	78.196608
3319.000000	78.130998
3318.000000	78.038680
3317.000000	77.916739
3316.000000	77.761868
3315.000000	77.568819
3314.000000	77.331548
3313.000000	77.043866
3312.000000	76.699525
3311.000000	76.292417
3310.000000	75.816781
3309.000000	75.270653
3308.000000	74.653595
3307.000000	73.963644
3306.000000	73.197336
3305.000000	72.348805
3304.000000	71.412182
3303.000000	70.379335
3302.000000	69.241935
3301.000000	67.995639
3300.000000	66.639590
3299.000000	65.178866
3298.000000	63.627908
3297.000000	62.013155
3296.000000	60.370785
3295.000000	58.739072
3294.000000	57.156249
3293.000000	55.660524
3292.000000	54.283729
3291.000000	53.040967
3290.000000	51.929843
3289.000000	50.934291
3288.000000	50.029319
3287.000000	49.185540
3286.000000	48.374831
3285.000000	47.579839
3284.000000	46.793421
3283.000000	46.016413
3282.000000	45.260214
3281.000000	44.547341
3280.000000	43.907712
3279.000000	43.370229
3278.000000	42.960839
3277.000000	42.704570
3276.000000	42.618021
3275.000000	42.703244
3274.000000	42.946808
3273.000000	43.322053
3272.000000	43.792368
3271.000000	44.310030
3270.000000	44.822652
3269.000000	45.280670
3268.000000	45.639590
3267.000000	45.862243
3266.000000	45.925636
3265.000000	45.824942
3264.000000	45.570915
3263.000000	45.187816
3262.000000	44.710945
3261.000000	44.187122
3260.000000	43.666117
3259.000000	43.191211
3258.000000	42.798461
3257.000000	42.517159
3256.000000	42.364492
3255.000000	42.340675
3254.000000	42.432511
3253.000000	42.618360
3252.000000	42.872781
3251.000000	43.166748
3250.000000	43.473616
3249.000000	43.775830
3248.000000	44.062367
3247.000000	44.325721
3246.000000	44.561086
3245.000000	44.766645
3244.000000	44.941058
3243.000000	45.082912
3242.000000	45.193733
3241.000000	45.279433
3240.000000	45.345793
3239.000000	45.394056
3238.000000	45.424756
3237.000000	45.440836
3236.000000	45.445887
3235.000000	45.442300
3234.000000	45.432869
3233.000000	45.421319
3232.000000	45.406551
3231.000000	45.380146
3230.000000	45.333028
3229.000000	45.260843
3228.000000	45.161422
3227.000000	45.030035
3226.000000	44.861741
3225.000000	44.655971
3224.000000	44.413698
3223.000000	44.134942
3222.000000	43.821749
3221.000000	43.481772
3220.000000	43.125504
3219.000000	42.760580
3218.000000	42.392661
3217.000000	42.027327
3216.000000	41.667234
3215.000000	41.309918
3214.000000	40.951396
3213.000000	40.590357
3212.000000	40.225793
3211.000000	39.854559
3210.000000	39.475335
3209.000000	39.092289
3208.000000	38.711667
3207.000000	38.337626
3206.000000	37.974728
3205.000000	37.630515
3204.000000	37.312424
3203.000000	37.024625
3202.000000	36.771114
3201.000000	36.559083
3200.000000	36.394317
3199.000000	36.278394
3198.000000	36.211853
3197.000000	36.196612
3196.000000	36.233006
3195.000000	36.315848
3194.000000	36.440114
3193.000000	36.604359
3192.000000	36.805780
3191.000000	37.038068
3190.000000	37.294832
3189.000000	37.573944
3188.000000	37.873821
3187.000000	38.189091
3186.000000	38.514642
3185.000000	38.848666
3184.000000	39.189533
3183.000000	39.532857
3182.000000	39.875116
3181.000000	40.217037
3180.000000	40.559397
3179.000000	40.899342
3178.000000	41.233563
3177.000000	41.561754
3176.000000	41.883680
3175.000000	42.196349
3174.000000	42.497271
3173.000000	42.787327
3172.000000	43.067974
3171.000000	43.338329
3170.000000	43.598276
3169.000000	43.850850
3168.000000	44.098319
3167.000000	44.339417
3166.000000	44.572204
3165.000000	44.796975
3164.000000	45.013560
3163.000000	45.218864
3162.000000	45.410481
3161.000000	45.588963
3160.000000	45.754723
3159.000000	45.905820
3158.000000	46.040905
3157.000000	46.162026
3156.000000	46.271465
3155.000000	46.369622
3154.000000	46.458486
3153.000000	46.543412
3152.000000	46.629193
3151.000000	46.716788
3150.000000	46.806486
3149.000000	46.900909
3148.000000	47.002123
3147.000000	47.109000
3146.000000	47.220030
3145.000000	47.335622
3144.000000	47.455173
3143.000000	47.575101
3142.000000	47.692386
3141.000000	47.807205
3140.000000	47.919619
3139.000000	48.026862
3138.000000	48.126151
3137.000000	48.217156
3136.000000	48.298993
3135.000000	48.367585
3134.000000	48.418994
3133.000000	48.451352
3132.000000	48.461713
3131.000000	48.443654
3130.000000	48.390270
3129.000000	48.298174
3128.000000	48.165238
3127.000000	47.989881
3126.000000	47.774986
3125.000000	47.529287
3124.000000	47.263614
3123.000000	46.986858
3122.000000	46.708409
3121.000000	46.439533
3120.000000	46.188495
3119.000000	45.956979
3118.000000	45.743405
3117.000000	45.546814
3116.000000	45.365066
3115.000000	45.193335
3114.000000	45.027228
3113.000000	44.865117
3112.000000	44.705277
3111.000000	44.544480
3110.000000	44.382180
3109.000000	44.222171
3108.000000	44.068081
3107.000000	43.920858
3106.000000	43.782488
3105.000000	43.659015
3104.000000	43.556541
3103.000000	43.478480
3102.000000	43.429249
3101.000000	43.415644
3100.000000	43.443386
3099.000000	43.513833
3098.000000	43.627358
3097.000000	43.786200
3096.000000	43.989982
3095.000000	44.234497
3094.000000	44.515368
3093.000000	44.830513
3092.000000	45.177197
3091.000000	45.549030
3090.000000	45.939852
3089.000000	46.345394
3088.000000	46.760032
3087.000000	47.176266
3086.000000	47.589025
3085.000000	47.997958
3084.000000	48.402931
3083.000000	48.801168
3082.000000	49.190613
3081.000000	49.572203
3080.000000	49.946698
3079.000000	50.312518
3078.000000	50.668793
3077.000000	51.016561
3076.000000	51.355582
3075.000000	51.682949
3074.000000	51.996971
3073.000000	52.299420
3072.000000	52.591721
3071.000000	52.872945
3070.000000	53.142766
3069.000000	53.403376
3068.000000	53.656774
3067.000000	53.902554
3066.000000	54.140544
3065.000000	54.372319
3064.000000	54.598553
3063.000000	54.817990
3062.000000	55.030080
3061.000000	55.236223
3060.000000	55.436837
3059.000000	55.630238
3058.000000	55.816139
3057.000000	55.996950
3056.000000	56.174623
3055.000000	56.348844
3054.000000	56.519659
3053.000000	56.689037
3052.000000	56.857885
3051.000000	57.024646
3050.000000	57.188119
3049.000000	57.348822
3048.000000	57.506427
3047.000000	57.658845
3046.000000	57.805757
3045.000000	57.950160
3044.000000	58.094543
3043.000000	58.238477
3042.000000	58.381259
3041.000000	58.523891
3040.000000	58.666488
3039.000000	58.806423
3038.000000	58.941560
3037.000000	59.072966
3036.000000	59.202902
3035.000000	59.332493
3034.000000	59.462733
3033.000000	59.595132
3032.000000	59.729331
3031.000000	59.862622
3030.000000	59.993497
3029.000000	60.123219
3028.000000	60.252642
3027.000000	60.380378
3026.000000	60.505739
3025.000000	60.630565
3024.000000	60.755937
3023.000000	60.879609
3022.000000	60.998403
3021.000000	61.110611
3020.000000	61.214415
3019.000000	61.305786
3018.000000	61.380310
3017.000000	61.435334
3016.000000	61.469456
3015.000000	61.483020
3014.000000	61.481096
3013.000000	61.474892
3012.000000	61.478102
3011.000000	61.502875
3010.000000	61.558535
3009.000000	61.649950
3008.000000	61.774180
3007.000000	61.920266
3006.000000	62.074043
3005.000000	62.221915
3004.000000	62.349747
3003.000000	62.440875
3002.000000	62.477864
3001.000000	62.445158
3000.000000	62.332468
2999.000000	62.141159
2998.000000	61.893067
2997.000000	61.632584
2996.000000	61.416271
2995.000000	61.296216
2994.000000	61.304261
2993.000000	61.442882
2992.000000	61.683933
2991.000000	61.981218
2990.000000	62.289998
2989.000000	62.580227
2988.000000	62.837384
2987.000000	63.056948
2986.000000	63.241079
2985.000000	63.395063
2984.000000	63.523076
2983.000000	63.625957
2982.000000	63.704068
2981.000000	63.759078
2980.000000	63.791851
2979.000000	63.800341
2978.000000	63.781177
2977.000000	63.733244
2976.000000	63.659059
2975.000000	63.566704
2974.000000	63.471309
2973.000000	63.391861
2972.000000	63.343326
2971.000000	63.330185
2970.000000	63.345538
2969.000000	63.371510
2968.000000	63.379614
2967.000000	63.337487
2966.000000	63.223270
2965.000000	63.036977
2964.000000	62.799703
2963.000000	62.543499
2962.000000	62.301253
2961.000000	62.098885
2960.000000	61.951681
2959.000000	61.865900
2958.000000	61.844591
2957.000000	61.888825
2956.000000	61.993564
2955.000000	62.146725
2954.000000	62.333290
2953.000000	62.537789
2952.000000	62.740608
2951.000000	62.918506
2950.000000	63.053002
2949.000000	63.139513
2948.000000	63.187507
2947.000000	63.211856
2946.000000	63.220483
2945.000000	63.200122
2944.000000	63.111285
2943.000000	62.905275
2942.000000	62.563307
2941.000000	62.130082
2940.000000	61.712812
2939.000000	61.440346
2938.000000	61.404858
2937.000000	61.622551
2936.000000	62.033240
2935.000000	62.538511
2934.000000	63.049129
2933.000000	63.511588
2932.000000	63.906245
2931.000000	64.234531
2930.000000	64.509278
2929.000000	64.746680
2928.000000	64.959935
2927.000000	65.156431
2926.000000	65.341112
2925.000000	65.518254
2924.000000	65.689114
2923.000000	65.851047
2922.000000	66.001142
2921.000000	66.138516
2920.000000	66.261991
2919.000000	66.369053
2918.000000	66.458403
2917.000000	66.531482
2916.000000	66.590518
2915.000000	66.637354
2914.000000	66.675176
2913.000000	66.708322
2912.000000	66.739110
2911.000000	66.766650
2910.000000	66.789385
2909.000000	66.806220
2908.000000	66.814260
2907.000000	66.807572
2906.000000	66.779497
2905.000000	66.723298
2904.000000	66.630409
2903.000000	66.490455
2902.000000	66.298383
2901.000000	66.057635
2900.000000	65.780648
2899.000000	65.489492
2898.000000	65.214860
2897.000000	64.991638
2896.000000	64.847619
2895.000000	64.795153
2894.000000	64.831503
2893.000000	64.942566
2892.000000	65.106607
2891.000000	65.299258
2890.000000	65.500861
2889.000000	65.699414
2888.000000	65.887859
2887.000000	66.061342
2886.000000	66.217640
2885.000000	66.357357
2884.000000	66.480859
2883.000000	66.587356
2882.000000	66.677574
2881.000000	66.755065
2880.000000	66.823709
2879.000000	66.885851
2878.000000	66.943703
2877.000000	66.999870
2876.000000	67.055045
2875.000000	67.107157
2874.000000	67.154393
2873.000000	67.197342
2872.000000	67.237740
2871.000000	67.277786
2870.000000	67.321728
2869.000000	67.375556
2868.000000	67.443090
2867.000000	67.523537
2866.000000	67.613401
2865.000000	67.708378
2864.000000	67.802824
2863.000000	67.890693
2862.000000	67.969068
2861.000000	68.039255
2860.000000	68.103663
2859.000000	68.163673
2858.000000	68.221312
2857.000000	68.280175
2856.000000	68.343044
2855.000000	68.410481
2854.000000	68.482457
2853.000000	68.558644
2852.000000	68.635759
2851.000000	68.707144
2850.000000	68.766973
2849.000000	68.813697
2848.000000	68.849121
2847.000000	68.876513
2846.000000	68.900452
2845.000000	68.925866
2844.000000	68.955428
2843.000000	68.989071
2842.000000	69.026666
2841.000000	69.069352
2840.000000	69.117551
2839.000000	69.169909
2838.000000	69.225141
2837.000000	69.283026
2836.000000	69.342817
2835.000000	69.402726
2834.000000	69.461860
2833.000000	69.520961
2832.000000	69.580582
2831.000000	69.640324
2830.000000	69.700451
2829.000000	69.762205
2828.000000	69.825759
2827.000000	69.889716
2826.000000	69.953029
2825.000000	70.015355
2824.000000	70.075144
2823.000000	70.129758
2822.000000	70.178484
2821.000000	70.223366
2820.000000	70.266386
2819.000000	70.307936
2818.000000	70.348663
2817.000000	70.390344
2816.000000	70.433645
2815.000000	70.476900
2814.000000	70.518142
2813.000000	70.556636
2812.000000	70.591868
2811.000000	70.623228
2810.000000	70.651607
2809.000000	70.679283
2808.000000	70.707302
2807.000000	70.734838
2806.000000	70.761760
2805.000000	70.789618
2804.000000	70.819133
2803.000000	70.848931
2802.000000	70.877779
2801.000000	70.906095
2800.000000	70.934388
2799.000000	70.962280
2798.000000	70.990086
2797.000000	71.019184
2796.000000	71.049570
2795.000000	71.078918
2794.000000	71.105191
2793.000000	71.128451
2792.000000	71.149389
2791.000000	71.168231
2790.000000	71.186162
2789.000000	71.205707
2788.000000	71.228228
2787.000000	71.252595
2786.000000	71.277232
2785.000000	71.301761
2784.000000	71.325828
2783.000000	71.348525
2782.000000	71.370303
2781.000000	71.393636
2780.000000	71.420547
2779.000000	71.450984
2778.000000	71.484482
2777.000000	71.521547
2776.000000	71.562150
2775.000000	71.604502
2774.000000	71.646505
2773.000000	71.687034
2772.000000	71.725017
2771.000000	71.759039
2770.000000	71.788994
2769.000000	71.816714
2768.000000	71.844004
2767.000000	71.871225
2766.000000	71.898304
2765.000000	71.925347
2764.000000	71.951411
2763.000000	71.974450
2762.000000	71.993480
2761.000000	72.009565
2760.000000	72.024108
2759.000000	72.037698
2758.000000	72.051163
2757.000000	72.065748
2756.000000	72.081295
2755.000000	72.095834
2754.000000	72.107881
2753.000000	72.117942
2752.000000	72.127384
2751.000000	72.137527
2750.000000	72.150337
2749.000000	72.167940
2748.000000	72.190308
2747.000000	72.214765
2746.000000	72.238414
2745.000000	72.259769
2744.000000	72.277965
2743.000000	72.292470
2742.000000	72.304048
2741.000000	72.314006
2740.000000	72.321792
2739.000000	72.325273
2738.000000	72.324373
2737.000000	72.322978
2736.000000	72.326683
2735.000000	72.340192
2734.000000	72.366751
2733.000000	72.407005
2732.000000	72.457144
2731.000000	72.510181
2730.000000	72.560466
2729.000000	72.606264
2728.000000	72.647935
2727.000000	72.685934
2726.000000	72.721307
2725.000000	72.755652
2724.000000	72.789052
2723.000000	72.819484
2722.000000	72.844954
2721.000000	72.864701
2720.000000	72.878244
2719.000000	72.885321
2718.000000	72.887829
2717.000000	72.890038
2716.000000	72.895694
2715.000000	72.906190
2714.000000	72.921704
2713.000000	72.942001
2712.000000	72.965476
2711.000000	72.989553
2710.000000	73.013021
2709.000000	73.036509
2708.000000	73.060198
2707.000000	73.082940
2706.000000	73.104182
2705.000000	73.124596
2704.000000	73.143905
2703.000000	73.160007
2702.000000	73.171112
2701.000000	73.176893
2700.000000	73.177221
2699.000000	73.171808
2698.000000	73.161970
2697.000000	73.150864
2696.000000	73.140881
2695.000000	73.132509
2694.000000	73.126048
2693.000000	73.122089
2692.000000	73.119600
2691.000000	73.115899
2690.000000	73.109792
2689.000000	73.103089
2688.000000	73.098242
2687.000000	73.096420
2686.000000	73.098592
2685.000000	73.106034
2684.000000	73.118441
2683.000000	73.133565
2682.000000	73.149777
2681.000000	73.167433
2680.000000	73.186850
2679.000000	73.206831
2678.000000	73.226272
2677.000000	73.245285
2676.000000	73.263839
2675.000000	73.281082
2674.000000	73.296750
2673.000000	73.311352
2672.000000	73.324228
2671.000000	73.333387
2670.000000	73.338299
2669.000000	73.341170
2668.000000	73.344771
2667.000000	73.350972
2666.000000	73.361916
2665.000000	73.379964
2664.000000	73.404926
2663.000000	73.433209
2662.000000	73.460794
2661.000000	73.485401
2660.000000	73.505246
2659.000000	73.518241
2658.000000	73.523980
2657.000000	73.524790
2656.000000	73.523494
2655.000000	73.521635
2654.000000	73.520823
2653.000000	73.523646
2652.000000	73.531843
2651.000000	73.545148
2650.000000	73.562965
2649.000000	73.585489
2648.000000	73.612325
2647.000000	73.641671
2646.000000	73.671961
2645.000000	73.702839
2644.000000	73.733529
2643.000000	73.762264
2642.000000	73.788384
2641.000000	73.813297
2640.000000	73.838289
2639.000000	73.862912
2638.000000	73.886457
2637.000000	73.909375
2636.000000	73.932233
2635.000000	73.954703
2634.000000	73.976492
2633.000000	73.997695
2632.000000	74.017452
2631.000000	74.033955
2630.000000	74.046533
2629.000000	74.056301
2628.000000	74.064001
2627.000000	74.068901
2626.000000	74.070691
2625.000000	74.070474
2624.000000	74.069230
2623.000000	74.067026
2622.000000	74.064573
2621.000000	74.063770
2620.000000	74.065462
2619.000000	74.068312
2618.000000	74.070657
2617.000000	74.071723
2616.000000	74.070269
2615.000000	74.063817
2614.000000	74.050581
2613.000000	74.030802
2612.000000	74.005505
2611.000000	73.975911
2610.000000	73.944856
2609.000000	73.916982
2608.000000	73.896326
2607.000000	73.884928
2606.000000	73.883986
2605.000000	73.894461
2604.000000	73.915412
2603.000000	73.943491
2602.000000	73.975412
2601.000000	74.009008
2600.000000	74.041759
2599.000000	74.070508
2598.000000	74.093687
2597.000000	74.112426
2596.000000	74.128527
2595.000000	74.143164
2594.000000	74.158215
2593.000000	74.176587
2592.000000	74.199710
2591.000000	74.226135
2590.000000	74.253373
2589.000000	74.279456
2588.000000	74.302105
2587.000000	74.318490
2586.000000	74.327411
2585.000000	74.330479
2584.000000	74.330434
2583.000000	74.329860
2582.000000	74.332090
2581.000000	74.341193
2580.000000	74.359732
2579.000000	74.387692
2578.000000	74.424053
2577.000000	74.467870
2576.000000	74.516882
2575.000000	74.567085
2574.000000	74.615007
2573.000000	74.659083
2572.000000	74.698598
2571.000000	74.732968
2570.000000	74.762726
2569.000000	74.789530
2568.000000	74.814469
2567.000000	74.837771
2566.000000	74.860611
2565.000000	74.885380
2564.000000	74.913192
2563.000000	74.942865
2562.000000	74.972780
2561.000000	75.002037
2560.000000	75.029346
2559.000000	75.052778
2558.000000	75.071691
2557.000000	75.087278
2556.000000	75.100774
2555.000000	75.112916
2554.000000	75.125620
2553.000000	75.142018
2552.000000	75.163801
2551.000000	75.190110
2550.000000	75.219543
2549.000000	75.251308
2548.000000	75.283741
2547.000000	75.313906
2546.000000	75.339719
2545.000000	75.360932
2544.000000	75.377465
2543.000000	75.388900
2542.000000	75.396309
2541.000000	75.402348
2540.000000	75.408613
2539.000000	75.414410
2538.000000	75.418926
2537.000000	75.422401
2536.000000	75.424085
2535.000000	75.421498
2534.000000	75.412744
2533.000000	75.398053
2532.000000	75.378214
2531.000000	75.353380
2530.000000	75.324814
2529.000000	75.295642
2528.000000	75.268670
2527.000000	75.244976
2526.000000	75.225357
2525.000000	75.211075
2524.000000	75.201918
2523.000000	75.195273
2522.000000	75.188239
2521.000000	75.179039
2520.000000	75.165725
2519.000000	75.145755
2518.000000	75.118287
2517.000000	75.085172
2516.000000	75.048442
2515.000000	75.008787
2514.000000	74.967314
2513.000000	74.926807
2512.000000	74.890044
2511.000000	74.858651
2510.000000	74.834519
2509.000000	74.820223
2508.000000	74.816670
2507.000000	74.821771
2506.000000	74.833032
2505.000000	74.849338
2504.000000	74.869562
2503.000000	74.891749
2502.000000	74.914621
2501.000000	74.938523
2500.000000	74.963578
2499.000000	74.988603
2498.000000	75.012851
2497.000000	75.036566
2496.000000	75.058878
2495.000000	75.077287
2494.000000	75.090368
2493.000000	75.099087
2492.000000	75.104614
2491.000000	75.106833
2490.000000	75.106288
2489.000000	75.105532
2488.000000	75.107000
2487.000000	75.111370
2486.000000	75.118954
2485.000000	75.130567
2484.000000	75.145644
2483.000000	75.161456
2482.000000	75.175639
2481.000000	75.187987
2480.000000	75.198918
2479.000000	75.208217
2478.000000	75.216654
2477.000000	75.226724
2476.000000	75.240383
2475.000000	75.257703
2474.000000	75.278722
2473.000000	75.304763
2472.000000	75.336352
2471.000000	75.371779
2470.000000	75.409057
2469.000000	75.447408
2468.000000	75.485839
2467.000000	75.522155
2466.000000	75.554877
2465.000000	75.584455
2464.000000	75.611371
2463.000000	75.634813
2462.000000	75.654541
2461.000000	75.672206
2460.000000	75.689257
2459.000000	75.705363
2458.000000	75.719993
2457.000000	75.733813
2456.000000	75.747074
2455.000000	75.758208
2454.000000	75.765768
2453.000000	75.770217
2452.000000	75.772698
2451.000000	75.773671
2450.000000	75.774136
2449.000000	75.776630
2448.000000	75.783646
2447.000000	75.796256
2446.000000	75.815057
2445.000000	75.840655
2444.000000	75.871784
2443.000000	75.904811
2442.000000	75.936382
2441.000000	75.965096
2440.000000	75.990010
2439.000000	76.009739
2438.000000	76.024607
2437.000000	76.037687
2436.000000	76.052084
2435.000000	76.068475
2434.000000	76.086270
2433.000000	76.104970
2432.000000	76.122758
2431.000000	76.136004
2430.000000	76.141862
2429.000000	76.140269
2428.000000	76.132117
2427.000000	76.117241
2426.000000	76.096019
2425.000000	76.070730
2424.000000	76.043838
2423.000000	76.016498
2422.000000	75.990258
2421.000000	75.968382
2420.000000	75.953400
2419.000000	75.944931
2418.000000	75.941569
2417.000000	75.943205
2416.000000	75.949490
2415.000000	75.957815
2414.000000	75.964690
2413.000000	75.967758
2412.000000	75.964950
2411.000000	75.953654
2410.000000	75.932868
2409.000000	75.904879
2408.000000	75.873130
2407.000000	75.839659
2406.000000	75.806309
2405.000000	75.776066
2404.000000	75.750790
2403.000000	75.729066
2402.000000	75.708431
2401.000000	75.688472
2400.000000	75.669940
2399.000000	75.652713
2398.000000	75.636894
2397.000000	75.624426
2396.000000	75.617011
2395.000000	75.613474
2394.000000	75.610814
2393.000000	75.606770
2392.000000	75.598878
2391.000000	75.583348
2390.000000	75.557854
2389.000000	75.523456
2388.000000	75.483873
2387.000000	75.441796
2386.000000	75.400030
2385.000000	75.364448
2384.000000	75.339748
2383.000000	75.327472
2382.000000	75.325693
2381.000000	75.332720
2380.000000	75.347718
2379.000000	75.366226
2378.000000	75.382914
2377.000000	75.395743
2376.000000	75.404420
2375.000000	75.405615
2374.000000	75.396399
2373.000000	75.378643
2372.000000	75.355774
2371.000000	75.326918
2370.000000	75.287592
2369.000000	75.242488
2368.000000	75.200847
2367.000000	75.166592
2366.000000	75.141597
2365.000000	75.132708
2364.000000	75.152654
2363.000000	75.193376
2362.000000	75.239128
2361.000000	75.294016
2360.000000	75.353064
2359.000000	75.409606
2358.000000	75.452353
2357.000000	75.478447
2356.000000	75.495539
2355.000000	75.492938
2354.000000	75.479377
2353.000000	75.472236
2352.000000	75.489957
2351.000000	75.528064
2350.000000	75.547266
2349.000000	75.536730
2348.000000	75.512069
2347.000000	75.526494
2346.000000	75.602465
2345.000000	75.698178
2344.000000	75.767858
2343.000000	75.786987
2342.000000	75.790671
2341.000000	75.801717
2340.000000	75.817204
2339.000000	75.825307
2338.000000	75.825002
2337.000000	75.821631
2336.000000	75.815321
2335.000000	75.800116
2334.000000	75.783556
2333.000000	75.769161
2332.000000	75.749920
2331.000000	75.718845
2330.000000	75.666054
2329.000000	75.611645
2328.000000	75.555718
2327.000000	75.508670
2326.000000	75.478164
2325.000000	75.465625
2324.000000	75.473319
2323.000000	75.481019
2322.000000	75.486467
2321.000000	75.480079
2320.000000	75.463216
2319.000000	75.435585
2318.000000	75.403107
2317.000000	75.374338
2316.000000	75.350808
2315.000000	75.335403
2314.000000	75.325448
2313.000000	75.319209
2312.000000	75.306223
2311.000000	75.281585
2310.000000	75.244362
2309.000000	75.198010
2308.000000	75.142733
2307.000000	75.078629
2306.000000	75.010723
2305.000000	74.943851
2304.000000	74.881889
2303.000000	74.825000
2302.000000	74.774428
2301.000000	74.730082
2300.000000	74.687748
2299.000000	74.644413
2298.000000	74.599052
2297.000000	74.555380
2296.000000	74.514690
2295.000000	74.479567
2294.000000	74.453430
2293.000000	74.439949
2292.000000	74.439207
2291.000000	74.448600
2290.000000	74.467039
2289.000000	74.493423
2288.000000	74.526414
2287.000000	74.564543
2286.000000	74.609862
2285.000000	74.664067
2284.000000	74.725922
2283.000000	74.790825
2282.000000	74.855107
2281.000000	74.915217
2280.000000	74.966660
2279.000000	75.005644
2278.000000	75.032991
2277.000000	75.053619
2276.000000	75.072440
2275.000000	75.094129
2274.000000	75.123579
2273.000000	75.164840
2272.000000	75.217412
2271.000000	75.277533
2270.000000	75.342197
2269.000000	75.409579
2268.000000	75.477274
2267.000000	75.543270
2266.000000	75.608526
2265.000000	75.676632
2264.000000	75.749291
2263.000000	75.825889
2262.000000	75.905458
2261.000000	75.986528
2260.000000	76.066208
2259.000000	76.140268
2258.000000	76.206961
2257.000000	76.266476
2256.000000	76.319562
2255.000000	76.367472
2254.000000	76.413172
2253.000000	76.460103
2252.000000	76.508970
2251.000000	76.558531
2250.000000	76.608132
2249.000000	76.657253
2248.000000	76.703947
2247.000000	76.746522
2246.000000	76.785504
2245.000000	76.823282
2244.000000	76.861041
2243.000000	76.898651
2242.000000	76.936349
2241.000000	76.973784
2240.000000	77.007670
2239.000000	77.033105
2238.000000	77.047673
2237.000000	77.052350
2236.000000	77.049493
2235.000000	77.042227
2234.000000	77.035569
2233.000000	77.034804
2232.000000	77.042049
2231.000000	77.056007
2230.000000	77.074578
2229.000000	77.095520
2228.000000	77.115222
2227.000000	77.129970
2226.000000	77.138913
2225.000000	77.143932
2224.000000	77.146784
2223.000000	77.148572
2222.000000	77.151344
2221.000000	77.157348
2220.000000	77.166345
2219.000000	77.175955
2218.000000	77.184760
2217.000000	77.193185
2216.000000	77.201760
2215.000000	77.211010
2214.000000	77.223000
2213.000000	77.240386
2212.000000	77.263658
2211.000000	77.290991
2210.000000	77.320471
2209.000000	77.350203
2208.000000	77.376866
2207.000000	77.396975
2206.000000	77.409864
2205.000000	77.417507
2204.000000	77.421605
2203.000000	77.423054
2202.000000	77.423688
2201.000000	77.425755
2200.000000	77.429354
2199.000000	77.432536
2198.000000	77.433957
2197.000000	77.433449
2196.000000	77.430659
2195.000000	77.425837
2194.000000	77.422076
2193.000000	77.424157
2192.000000	77.434726
2191.000000	77.453403
2190.000000	77.479029
2189.000000	77.510283
2188.000000	77.544281
2187.000000	77.577412
2186.000000	77.607953
2185.000000	77.636071
2184.000000	77.661669
2183.000000	77.684511
2182.000000	77.706110
2181.000000	77.728716
2180.000000	77.752381
2179.000000	77.775099
2178.000000	77.795533
2177.000000	77.813274
2176.000000	77.826911
2175.000000	77.834833
2174.000000	77.838066
2173.000000	77.839878
2172.000000	77.842377
2171.000000	77.845642
2170.000000	77.849835
2169.000000	77.855314
2168.000000	77.860499
2167.000000	77.862287
2166.000000	77.859231
2165.000000	77.852408
2164.000000	77.843398
2163.000000	77.833842
2162.000000	77.826825
2161.000000	77.825927
2160.000000	77.832351
2159.000000	77.844835
2158.000000	77.862045
2157.000000	77.882599
2156.000000	77.903186
2155.000000	77.919664
2154.000000	77.930603
2153.000000	77.937712
2152.000000	77.943042
2151.000000	77.948041
2150.000000	77.954903
2149.000000	77.965814
2148.000000	77.980325
2147.000000	77.995710
2146.000000	78.009890
2145.000000	78.021899
2144.000000	78.030223
2143.000000	78.033692
2142.000000	78.033957
2141.000000	78.034461
2140.000000	78.036836
2139.000000	78.040420
2138.000000	78.044694
2137.000000	78.049377
2136.000000	78.052394
2135.000000	78.050784
2134.000000	78.044089
2133.000000	78.034524
2132.000000	78.023967
2131.000000	78.013188
2130.000000	78.003656
2129.000000	77.997022
2128.000000	77.992427
2127.000000	77.986903
2126.000000	77.978797
2125.000000	77.968580
2124.000000	77.956718
2123.000000	77.943938
2122.000000	77.933736
2121.000000	77.931603
2120.000000	77.941080
2119.000000	77.962289
2118.000000	77.993527
2117.000000	78.031342
2116.000000	78.069318
2115.000000	78.100188
2114.000000	78.120323
2113.000000	78.130595
2112.000000	78.133473
2111.000000	78.131839
2110.000000	78.129960
2109.000000	78.132130
2108.000000	78.139439
2107.000000	78.149807
2106.000000	78.161247
2105.000000	78.172857
2104.000000	78.182993
2103.000000	78.189517
2102.000000	78.192081
2101.000000	78.191810
2100.000000	78.188613
2099.000000	78.181104
2098.000000	78.169292
2097.000000	78.154619
2096.000000	78.137301
2095.000000	78.116645
2094.000000	78.094485
2093.000000	78.075480
2092.000000	78.063573
2091.000000	78.060322
2090.000000	78.066628
2089.000000	78.083271
2088.000000	78.109182
2087.000000	78.141504
2086.000000	78.177159
2085.000000	78.212450
2084.000000	78.242287
2083.000000	78.262816
2082.000000	78.274559
2081.000000	78.280935
2080.000000	78.284238
2079.000000	78.285146
2078.000000	78.285160
2077.000000	78.285550
2076.000000	78.284294
2075.000000	78.277297
2074.000000	78.262390
2073.000000	78.239930
2072.000000	78.210319
2071.000000	78.174149
2070.000000	78.134724
2069.000000	78.097352
2068.000000	78.065221
2067.000000	78.037413
2066.000000	78.010315
2065.000000	77.979089
2064.000000	77.938895
2063.000000	77.888354
2062.000000	77.831418
2061.000000	77.773227
2060.000000	77.715428
2059.000000	77.657926
2058.000000	77.603522
2057.000000	77.556342
2056.000000	77.516373
2055.000000	77.479725
2054.000000	77.443776
2053.000000	77.408439
2052.000000	77.373053
2051.000000	77.336173
2050.000000	77.298961
2049.000000	77.265728
2048.000000	77.239726
2047.000000	77.220967
2046.000000	77.209172
2045.000000	77.205248
2044.000000	77.208305
2043.000000	77.214230
2042.000000	77.219054
2041.000000	77.221760
2040.000000	77.223193
2039.000000	77.225659
2038.000000	77.233871
2037.000000	77.252283
2036.000000	77.280565
2035.000000	77.314363
2034.000000	77.350959
2033.000000	77.390629
2032.000000	77.432698
2031.000000	77.474812
2030.000000	77.516793
2029.000000	77.561028
2028.000000	77.608196
2027.000000	77.656096
2026.000000	77.702942
2025.000000	77.748518
2024.000000	77.790802
2023.000000	77.825472
2022.000000	77.851246
2021.000000	77.872924
2020.000000	77.896813
2019.000000	77.925335
2018.000000	77.957791
2017.000000	77.993149
2016.000000	78.030717
2015.000000	78.070988
2014.000000	78.116096
2013.000000	78.166536
2012.000000	78.217229
2011.000000	78.260402
2010.000000	78.293713
2009.000000	78.321695
2008.000000	78.349031
2007.000000	78.377697
2006.000000	78.410543
2005.000000	78.451962
2004.000000	78.502201
2003.000000	78.555877
2002.000000	78.607707
2001.000000	78.655180
2000.000000	78.696183
1999.000000	78.728420
1998.000000	78.752074
1997.000000	78.770811
1996.000000	78.790350
1995.000000	78.815669
1994.000000	78.848118
1993.000000	78.883747
1992.000000	78.915014
1991.000000	78.938589
1990.000000	78.960752
1989.000000	78.990874
1988.000000	79.031488
1987.000000	79.077227
1986.000000	79.122404
1985.000000	79.166295
1984.000000	79.209034
1983.000000	79.247428
1982.000000	79.277759
1981.000000	79.300290
1980.000000	79.319726
1979.000000	79.341879
1978.000000	79.370753
1977.000000	79.408302
1976.000000	79.455704
1975.000000	79.512135
1974.000000	79.572707
1973.000000	79.630202
1972.000000	79.679640
1971.000000	79.720128
1970.000000	79.752447
1969.000000	79.777074
1968.000000	79.793601
1967.000000	79.800649
1966.000000	79.798932
1965.000000	79.795210
1964.000000	79.799361
1963.000000	79.815160
1962.000000	79.835336
1961.000000	79.848291
1960.000000	79.848663
1959.000000	79.838866
1958.000000	79.822919
1957.000000	79.803435
1956.000000	79.783945
1955.000000	79.768283
1954.000000	79.757813
1953.000000	79.753037
1952.000000	79.755757
1951.000000	79.767713
1950.000000	79.788385
1949.000000	79.815404
1948.000000	79.846300
1947.000000	79.879320
1946.000000	79.913265
1945.000000	79.946362
1944.000000	79.974122
1943.000000	79.987813
1942.000000	79.979078
1941.000000	79.950377
1940.000000	79.917295
1939.000000	79.896330
1938.000000	79.892815
1937.000000	79.901392
1936.000000	79.915853
1935.000000	79.934280
1934.000000	79.954664
1933.000000	79.971596
1932.000000	79.978026
1931.000000	79.971605
1930.000000	79.956102
1929.000000	79.936067
1928.000000	79.913665
1927.000000	79.893401
1926.000000	79.886937
1925.000000	79.902861
1924.000000	79.934213
1923.000000	79.962502
1922.000000	79.977366
1921.000000	79.984919
1920.000000	79.994165
1919.000000	80.006485
1918.000000	80.016438
1917.000000	80.016670
1916.000000	80.004613
1915.000000	79.985776
1914.000000	79.969814
1913.000000	79.962271
1912.000000	79.960057
1911.000000	79.958708
1910.000000	79.959128
1909.000000	79.962269
1908.000000	79.963939
1907.000000	79.962499
1906.000000	79.966163
1905.000000	79.981161
1904.000000	79.999805
1903.000000	80.011842
1902.000000	80.019818
1901.000000	80.031626
1900.000000	80.047355
1899.000000	80.065072
1898.000000	80.091593
1897.000000	80.133829
1896.000000	80.183612
1895.000000	80.225236
1894.000000	80.256852
1893.000000	80.290091
1892.000000	80.330462
1891.000000	80.371885
1890.000000	80.404874
1889.000000	80.421795
1888.000000	80.421229
1887.000000	80.413147
1886.000000	80.413986
1885.000000	80.430099
1884.000000	80.450837
1883.000000	80.466396
1882.000000	80.483773
1881.000000	80.513233
1880.000000	80.550859
1879.000000	80.585524
1878.000000	80.615424
1877.000000	80.645299
1876.000000	80.671700
1875.000000	80.686883
1874.000000	80.694336
1873.000000	80.706458
1872.000000	80.727834
1871.000000	80.754090
1870.000000	80.785424
1869.000000	80.823112
1868.000000	80.853647
1867.000000	80.865069
1866.000000	80.870328
1865.000000	80.887590
1864.000000	80.916459
1863.000000	80.944794
1862.000000	80.968027
1861.000000	80.991171
1860.000000	81.013891
1859.000000	81.030636
1858.000000	81.044790
1857.000000	81.065822
1856.000000	81.092205
1855.000000	81.116456
1854.000000	81.138621
1853.000000	81.161924
1852.000000	81.186094
1851.000000	81.210742
1850.000000	81.242408
1849.000000	81.286400
1848.000000	81.334821
1847.000000	81.373649
1846.000000	81.397374
1845.000000	81.409863
1844.000000	81.411470
1843.000000	81.401102
1842.000000	81.389632
1841.000000	81.392144
1840.000000	81.414726
1839.000000	81.454077
1838.000000	81.500372
1837.000000	81.541469
1836.000000	81.569296
1835.000000	81.586472
1834.000000	81.601850
1833.000000	81.621032
1832.000000	81.646510
1831.000000	81.676124
1830.000000	81.699434
1829.000000	81.708506
1828.000000	81.716299
1827.000000	81.740160
1826.000000	81.780455
1825.000000	81.825001
1824.000000	81.856205
1823.000000	81.868290
1822.000000	81.872690
1821.000000	81.886014
1820.000000	81.914683
1819.000000	81.948008
1818.000000	81.975413
1817.000000	81.999216
1816.000000	82.022621
1815.000000	82.039966
1814.000000	82.049209
1813.000000	82.060058
1812.000000	82.076473
1811.000000	82.084169
1810.000000	82.076816
1809.000000	82.073273
1808.000000	82.084435
1807.000000	82.095700
1806.000000	82.098255
1805.000000	82.103094
1804.000000	82.116816
1803.000000	82.125880
1802.000000	82.116248
1801.000000	82.097002
1800.000000	82.083756
1799.000000	82.080730
1798.000000	82.094229
1797.000000	82.131948
1796.000000	82.181641
1795.000000	82.216836
1794.000000	82.226066
1793.000000	82.226822
1792.000000	82.232389
1791.000000	82.225589
1790.000000	82.201749
1789.000000	82.185579
1788.000000	82.192449
1787.000000	82.214314
1786.000000	82.239389
1785.000000	82.263662
1784.000000	82.284978
1783.000000	82.300551
1782.000000	82.311180
1781.000000	82.322610
1780.000000	82.332312
1779.000000	82.334516
1778.000000	82.336858
1777.000000	82.354276
1776.000000	82.389408
1775.000000	82.426351
1774.000000	82.445114
1773.000000	82.447905
1772.000000	82.456310
1771.000000	82.475350
1770.000000	82.498624
1769.000000	82.529282
1768.000000	82.574851
1767.000000	82.625954
1766.000000	82.665048
1765.000000	82.695016
1764.000000	82.729268
1763.000000	82.765736
1762.000000	82.778717
1761.000000	82.758055
1760.000000	82.731943
1759.000000	82.726611
1758.000000	82.739112
1757.000000	82.753146
1756.000000	82.763497
1755.000000	82.774571
1754.000000	82.780582
1753.000000	82.775643
1752.000000	82.775768
1751.000000	82.802461
1750.000000	82.845763
1749.000000	82.876926
1748.000000	82.895656
1747.000000	82.921105
1746.000000	82.956743
1745.000000	82.995302
1744.000000	83.035572
1743.000000	83.071677
1742.000000	83.087990
1741.000000	83.083875
1740.000000	83.085310
1739.000000	83.111538
1738.000000	83.148325
1737.000000	83.176413
1736.000000	83.184641
1735.000000	83.180342
1734.000000	83.181132
1733.000000	83.181694
1732.000000	83.184132
1731.000000	83.199910
1730.000000	83.225001
1729.000000	83.243400
1728.000000	83.249969
1727.000000	83.257283
1726.000000	83.272441
1725.000000	83.292078
1724.000000	83.306133
1723.000000	83.310739
1722.000000	83.315125
1721.000000	83.331086
1720.000000	83.358918
1719.000000	83.384532
1718.000000	83.396345
1717.000000	83.406500
1716.000000	83.422055
1715.000000	83.429127
1714.000000	83.434612
1713.000000	83.455792
1712.000000	83.486912
1711.000000	83.514185
1710.000000	83.537478
1709.000000	83.565854
1708.000000	83.602304
1707.000000	83.639139
1706.000000	83.678325
1705.000000	83.731941
1704.000000	83.792774
1703.000000	83.839128
1702.000000	83.853979
1701.000000	83.874133
1700.000000	83.933618
1699.000000	83.976748
1698.000000	83.979949
1697.000000	83.988106
1696.000000	84.022491
1695.000000	84.052752
1694.000000	84.062211
1693.000000	84.075748
1692.000000	84.109244
1691.000000	84.164994
1690.000000	84.232785
1689.000000	84.295895
1688.000000	84.343619
1687.000000	84.371354
1686.000000	84.377471
1685.000000	84.386816
1684.000000	84.417675
1683.000000	84.444658
1682.000000	84.461833
1681.000000	84.471679
1680.000000	84.475837
1679.000000	84.484573
1678.000000	84.495227
1677.000000	84.495529
1676.000000	84.486351
1675.000000	84.487612
1674.000000	84.494190
1673.000000	84.487822
1672.000000	84.474048
1671.000000	84.475711
1670.000000	84.499088
1669.000000	84.510196
1668.000000	84.489989
1667.000000	84.466336
1666.000000	84.459189
1665.000000	84.460859
1664.000000	84.465069
1663.000000	84.479362
1662.000000	84.495053
1661.000000	84.483057
1660.000000	84.435635
1659.000000	84.382041
1658.000000	84.352651
1657.000000	84.347507
1656.000000	84.341132
1655.000000	84.298368
1654.000000	84.204985
1653.000000	84.036879
1652.000000	83.795346
1651.000000	83.549594
1650.000000	83.300318
1649.000000	82.979082
1648.000000	82.486258
1647.000000	81.722243
1646.000000	80.705528
1645.000000	79.533720
1644.000000	78.233777
1643.000000	76.740217
1642.000000	74.996219
1641.000000	73.030830
1640.000000	70.992555
1639.000000	69.058453
1638.000000	67.313451
1637.000000	65.778072
1636.000000	64.583098
1635.000000	63.967135
1634.000000	63.974495
1633.000000	64.422003
1632.000000	65.134043
1631.000000	66.018472
1630.000000	67.034508
1629.000000	68.151346
1628.000000	69.314237
1627.000000	70.436375
1626.000000	71.468236
1625.000000	72.451958
1624.000000	73.456833
1623.000000	74.462222
1622.000000	75.360076
1621.000000	76.096302
1620.000000	76.715686
1619.000000	77.281832
1618.000000	77.833994
1617.000000	78.383201
1616.000000	78.891409
1615.000000	79.309404
1614.000000	79.642362
1613.000000	79.930868
1612.000000	80.207144
1611.000000	80.468312
1610.000000	80.681079
1609.000000	80.816358
1608.000000	80.862416
1607.000000	80.810191
1606.000000	80.641036
1605.000000	80.337138
1604.000000	79.891713
1603.000000	79.295665
1602.000000	78.543261
1601.000000	77.666120
1600.000000	76.742894
1599.000000	75.863935
1598.000000	75.082372
1597.000000	74.407167
1596.000000	73.830664
1595.000000	73.347426
1594.000000	72.950018
1593.000000	72.625367
1592.000000	72.360304
1591.000000	72.136982
1590.000000	71.926665
1589.000000	71.700178
1588.000000	71.443185
1587.000000	71.146529
1586.000000	70.787521
1585.000000	70.343736
1584.000000	69.824289
1583.000000	69.256800
1582.000000	68.651868
1581.000000	68.012664
1580.000000	67.358833
1579.000000	66.681788
1578.000000	65.877218
1577.000000	64.780625
1576.000000	63.401350
1575.000000	62.035495
1574.000000	60.908802
1573.000000	59.964516
1572.000000	59.073384
1571.000000	58.185487
1570.000000	57.339133
1569.000000	56.612947
1568.000000	56.083543
1567.000000	55.789954
1566.000000	55.700070
1565.000000	55.740256
1564.000000	55.880567
1563.000000	56.132465
1562.000000	56.503666
1561.000000	56.972726
1560.000000	57.629207
1559.000000	58.606165
1558.000000	59.641271
1557.000000	60.425209
1556.000000	61.016482
1555.000000	61.556667
1554.000000	62.078103
1553.000000	62.526018
1552.000000	62.886434
1551.000000	63.214600
1550.000000	63.557701
1549.000000	63.914157
1548.000000	64.287414
1547.000000	64.725709
1546.000000	65.273379
1545.000000	65.910284
1544.000000	66.558855
1543.000000	67.167045
1542.000000	67.750167
1541.000000	68.345557
1540.000000	68.932525
1539.000000	69.449430
1538.000000	69.885756
1537.000000	70.266812
1536.000000	70.627539
1535.000000	71.017662
1534.000000	71.465522
1533.000000	71.930538
1532.000000	72.349228
1531.000000	72.723486
1530.000000	73.094417
1529.000000	73.479146
1528.000000	73.860623
1527.000000	74.212366
1526.000000	74.516734
1525.000000	74.775151
1524.000000	75.009309
1523.000000	75.245802
1522.000000	75.494304
1521.000000	75.726598
1520.000000	75.920642
1519.000000	76.104625
1518.000000	76.308716
1517.000000	76.520832
1516.000000	76.703615
1515.000000	76.848015
1514.000000	76.976057
1513.000000	77.108598
1512.000000	77.264058
1511.000000	77.446937
1510.000000	77.643079
1509.000000	77.831581
1508.000000	78.007913
1507.000000	78.153533
1506.000000	78.248242
1505.000000	78.342564
1504.000000	78.473653
1503.000000	78.634437
1502.000000	78.811629
1501.000000	78.984439
1500.000000	79.146972
1499.000000	79.301488
1498.000000	79.433271
1497.000000	79.531748
1496.000000	79.615232
1495.000000	79.704357
1494.000000	79.798457
1493.000000	79.896981
1492.000000	80.016574
1491.000000	80.176310
1490.000000	80.354128
1489.000000	80.503515
1488.000000	80.612153
1487.000000	80.696336
1486.000000	80.766424
1485.000000	80.811236
1484.000000	80.822124
1483.000000	80.802698
1482.000000	80.741538
1481.000000	80.617263
1480.000000	80.426285
1479.000000	80.161630
1478.000000	79.768962
1477.000000	79.177582
1476.000000	78.367389
1475.000000	77.351674
1474.000000	76.110950
1473.000000	74.668540
1472.000000	73.239216
1471.000000	72.085843
1470.000000	71.272431
1469.000000	70.730901
1468.000000	70.420436
1467.000000	70.350471
1466.000000	70.548735
1465.000000	71.011654
1464.000000	71.641725
1463.000000	72.274597
1462.000000	72.790474
1461.000000	73.153220
1460.000000	73.353544
1459.000000	73.345417
1458.000000	73.028000
1457.000000	72.400588
1456.000000	71.723657
1455.000000	71.242506
1454.000000	70.944155
1453.000000	70.734608
1452.000000	70.569996
1451.000000	70.438227
1450.000000	70.335895
1449.000000	70.272733
1448.000000	70.270160
1447.000000	70.327059
1446.000000	70.422318
1445.000000	70.562457
1444.000000	70.782570
1443.000000	71.102284
1442.000000	71.512398
1441.000000	72.002982
1440.000000	72.583303
1439.000000	73.267375
1438.000000	74.059785
1437.000000	74.925814
1436.000000	75.744541
1435.000000	76.392072
1434.000000	76.871084
1433.000000	77.261410
1432.000000	77.613953
1431.000000	77.932661
1430.000000	78.206012
1429.000000	78.439484
1428.000000	78.653587
1427.000000	78.865325
1426.000000	79.076329
1425.000000	79.273246
1424.000000	79.445590
1423.000000	79.594315
1422.000000	79.727102
1421.000000	79.846526
1420.000000	79.955801
1419.000000	80.056417
1418.000000	80.132635
1417.000000	80.196398
1416.000000	80.284316
1415.000000	80.404208
1414.000000	80.536709
1413.000000	80.661733
1412.000000	80.774678
1411.000000	80.877597
1410.000000	80.967537
1409.000000	81.049465
1408.000000	81.140113
1407.000000	81.249995
1406.000000	81.369293
1405.000000	81.474877
1404.000000	81.554190
1403.000000	81.610294
1402.000000	81.640253
1401.000000	81.621267
1400.000000	81.524170
1399.000000	81.348818
1398.000000	81.148572
1397.000000	81.006338
1396.000000	80.982660
1395.000000	81.078610
1394.000000	81.221887
1393.000000	81.333085
1392.000000	81.411007
1391.000000	81.511395
1390.000000	81.685266
1389.000000	81.954369
1388.000000	82.310416
1387.000000	82.711987
1386.000000	83.092738
1385.000000	83.398277
1384.000000	83.608529
1383.000000	83.728872
1382.000000	83.784343
1381.000000	83.810787
1380.000000	83.835735
1379.000000	83.869927
1378.000000	83.911856
1377.000000	83.942096
1376.000000	83.897576
1375.000000	83.642478
1374.000000	82.968341
1373.000000	81.683745
1372.000000	79.743829
1371.000000	77.320441
1370.000000	74.814469
1369.000000	72.784905
1368.000000	71.713283
1367.000000	71.701258
1366.000000	72.434202
1365.000000	73.428596
1364.000000	74.237234
1363.000000	74.536462
1362.000000	74.235758
1361.000000	73.572302
1360.000000	73.001979
1359.000000	72.943673
1358.000000	73.575379
1357.000000	74.765578
1356.000000	76.186402
1355.000000	77.523737
1354.000000	78.616080
1353.000000	79.453953
1352.000000	80.092980
1351.000000	80.592449
1350.000000	81.003706
1349.000000	81.360591
1348.000000	81.680127
1347.000000	81.976713
1346.000000	82.263769
1345.000000	82.539804
1344.000000	82.789916
1343.000000	83.005192
1342.000000	83.191876
1341.000000	83.354743
1340.000000	83.485391
1339.000000	83.581647
1338.000000	83.664845
1337.000000	83.766152
1336.000000	83.902295
1335.000000	84.068869
1334.000000	84.244375
1333.000000	84.384683
1332.000000	84.420273
1331.000000	84.273370
1330.000000	83.887302
1329.000000	83.246702
1328.000000	82.364541
1327.000000	81.253593
1326.000000	79.919057
1325.000000	78.407831
1324.000000	76.901014
1323.000000	75.708029
1322.000000	75.088004
1321.000000	75.060801
1320.000000	75.410543
1319.000000	75.865257
1318.000000	76.270549
1317.000000	76.612827
1316.000000	76.932603
1315.000000	77.258361
1314.000000	77.600874
1313.000000	77.976800
1312.000000	78.417311
1311.000000	78.947765
1310.000000	79.557940
1309.000000	80.193833
1308.000000	80.781540
1307.000000	81.263222
1306.000000	81.612234
1305.000000	81.812174
1304.000000	81.839302
1303.000000	81.663720
1302.000000	81.260821
1301.000000	80.634496
1300.000000	79.848715
1299.000000	79.044243
1298.000000	78.395873
1297.000000	78.023539
1296.000000	77.930711
1295.000000	78.012796
1294.000000	78.113091
1293.000000	78.080347
1292.000000	77.806284
1291.000000	77.238005
1290.000000	76.362480
1289.000000	75.196555
1288.000000	73.819362
1287.000000	72.417194
1286.000000	71.254420
1285.000000	70.556633
1284.000000	70.403799
1283.000000	70.721814
1282.000000	71.371782
1281.000000	72.240659
1280.000000	73.251856
1279.000000	74.304685
1278.000000	75.238626
1277.000000	75.886193
1276.000000	76.157400
1275.000000	76.074346
1274.000000	75.748180
1273.000000	75.344509
1272.000000	75.055368
1271.000000	75.052518
1270.000000	75.418109
1269.000000	76.107925
1268.000000	76.988823
1267.000000	77.917442
1266.000000	78.793199
1265.000000	79.567415
1264.000000	80.228645
1263.000000	80.782598
1262.000000	81.237463
1261.000000	81.599364
1260.000000	81.878096
1259.000000	82.094940
1258.000000	82.281838
1257.000000	82.468228
1256.000000	82.672564
1255.000000	82.902386
1254.000000	83.153605
1253.000000	83.410109
1252.000000	83.648074
1251.000000	83.846716
1250.000000	83.995929
1249.000000	84.096185
1248.000000	84.158667
1247.000000	84.205812
1246.000000	84.264515
1245.000000	84.354185
1244.000000	84.480569
1243.000000	84.638383
1242.000000	84.814279
1241.000000	84.987749
1240.000000	85.136406
1239.000000	85.245435
1238.000000	85.312235
1237.000000	85.341890
1236.000000	85.342664
1235.000000	85.326787
1234.000000	85.307751
1233.000000	85.293375
1232.000000	85.283282
1231.000000	85.273471
1230.000000	85.260270
1229.000000	85.237861
1228.000000	85.197613
1227.000000	85.130380
1226.000000	85.024677
1225.000000	84.862894
1224.000000	84.617763
1223.000000	84.258168
1222.000000	83.753955
1221.000000	83.075394
1220.000000	82.205440
1219.000000	81.151390
1218.000000	79.947588
1217.000000	78.646763
1216.000000	77.312472
1215.000000	76.019443
1214.000000	74.848957
1213.000000	73.879351
1212.000000	73.177078
1211.000000	72.782984
1210.000000	72.683330
1209.000000	72.806759
1208.000000	73.052104
1207.000000	73.317921
1206.000000	73.522686
1205.000000	73.610131
1204.000000	73.551444
1203.000000	73.342452
1202.000000	72.998607
1201.000000	72.559380
1200.000000	72.099460
1199.000000	71.723356
1198.000000	71.530965
1197.000000	71.578535
1196.000000	71.870435
1195.000000	72.370605
1194.000000	73.022782
1193.000000	73.773064
1192.000000	74.580583
1191.000000	75.419327
1190.000000	76.267247
1189.000000	77.100916
1188.000000	77.899125
1187.000000	78.645183
1186.000000	79.327275
1185.000000	79.940822
1184.000000	80.488868
1183.000000	80.974295
1182.000000	81.395531
1181.000000	81.748908
1180.000000	82.039966
1179.000000	82.288579
1178.000000	82.515651
1177.000000	82.730103
1176.000000	82.925997
1175.000000	83.091195
1174.000000	83.214179
1173.000000	83.278524
1172.000000	83.261786
1171.000000	83.135544
1170.000000	82.867165
1169.000000	82.424954
1168.000000	81.785672
1167.000000	80.956464
1166.000000	79.990943
1165.000000	78.990454
1164.000000	78.089935
1163.000000	77.426920
1162.000000	77.094524
1161.000000	77.110851
1160.000000	77.424881
1159.000000	77.940396
1158.000000	78.552227
1157.000000	79.171146
1156.000000	79.738826
1155.000000	80.229887
1154.000000	80.639678
1153.000000	80.971717
1152.000000	81.229846
1151.000000	81.414517
1150.000000	81.517042
1149.000000	81.521289
1148.000000	81.402180
1147.000000	81.130865
1146.000000	80.678642
1145.000000	80.010558
1144.000000	79.093223
1143.000000	77.897391
1142.000000	76.410539
1141.000000	74.661168
1140.000000	72.738296
1139.000000	70.790031
1138.000000	68.968847
1137.000000	67.361594
1136.000000	65.958519
1135.000000	64.684821
1134.000000	63.471069
1133.000000	62.347681
1132.000000	61.495003
1131.000000	61.176381
1130.000000	61.604098
1129.000000	62.805333
1128.000000	64.601078
1127.000000	66.676352
1126.000000	68.677367
1125.000000	70.298599
1124.000000	71.325165
1123.000000	71.637803
1122.000000	71.205872
1121.000000	70.083954
1120.000000	68.368479
1119.000000	66.178508
1118.000000	63.691007
1117.000000	61.220671
1116.000000	59.243367
1115.000000	58.257570
1114.000000	58.530693
1113.000000	59.942477
1112.000000	62.049390
1111.000000	64.265156
1110.000000	66.079162
1109.000000	67.230757
1108.000000	67.780244
1107.000000	68.025070
1106.000000	68.289004
1105.000000	68.736732
1104.000000	69.338445
1103.000000	69.951217
1102.000000	70.383189
1101.000000	70.437482
1100.000000	69.978648
1099.000000	69.046946
1098.000000	67.935034
1097.000000	67.102801
1096.000000	66.951140
1095.000000	67.611493
1094.000000	68.901870
1093.000000	70.471630
1092.000000	72.011559
1091.000000	73.358462
1090.000000	74.481502
1089.000000	75.416114
1088.000000	76.209427
1087.000000	76.899690
1086.000000	77.514932
1085.000000	78.074834
1084.000000	78.591339
1083.000000	79.074165
1082.000000	79.529101
1081.000000	79.957625
1080.000000	80.357106
1079.000000	80.720900
1078.000000	81.042699
1077.000000	81.312868
1076.000000	81.516057
1075.000000	81.632224
1074.000000	81.631545
1073.000000	81.475166
1072.000000	81.096517
1071.000000	80.393325
1070.000000	79.231463
1069.000000	77.438697
1068.000000	74.853593
1067.000000	71.409663
1066.000000	67.265288
1065.000000	62.890273
1064.000000	58.982689
1063.000000	56.174627
1062.000000	54.660383
1061.000000	54.035779
1060.000000	53.527757
1059.000000	52.502489
1058.000000	50.871695
1057.000000	49.155922
1056.000000	48.146409
1055.000000	48.380688
1054.000000	49.860187
1053.000000	52.146592
1052.000000	54.703385
1051.000000	57.163437
1050.000000	59.361305
1049.000000	61.266432
1048.000000	62.912128
1047.000000	64.353672
1046.000000	65.632959
1045.000000	66.769633
1044.000000	67.771074
1043.000000	68.648811
1042.000000	69.417182
1041.000000	70.084003
1040.000000	70.660813
1039.000000	71.163580
1038.000000	71.605619
1037.000000	71.992692
1036.000000	72.327386
1035.000000	72.618230
1034.000000	72.873174
1033.000000	73.094488
1032.000000	73.285124
1031.000000	73.453199
1030.000000	73.607963
1029.000000	73.752512
1028.000000	73.886504
1027.000000	74.011327
1026.000000	74.125172
1025.000000	74.219278
1024.000000	74.282065
1023.000000	74.305445
1022.000000	74.284973
1021.000000	74.213631
1020.000000	74.084211
1019.000000	73.889127
1018.000000	73.611868
1017.000000	73.223303
1016.000000	72.683533
1015.000000	71.960702
1014.000000	71.051046
1013.000000	69.999409
1012.000000	68.912081
1011.000000	67.927433
1010.000000	67.142536
1009.000000	66.542285
1008.000000	66.005539
1007.000000	65.404733
1006.000000	64.742301
1005.000000	64.204913
1004.000000	64.071964
1003.000000	64.528568
1002.000000	65.522723
1001.000000	66.802825
1000.000000	68.068631
999.000000	69.098098
998.000000	69.780472
997.000000	70.092232
996.000000	70.081354
995.000000	69.861983
994.000000	69.594915
993.000000	69.444749
992.000000	69.534825
991.000000	69.908181
990.000000	70.513826
989.000000	71.240051
988.000000	71.980239
987.000000	72.672929
986.000000	73.299879
985.000000	73.862776
984.000000	74.367059
983.000000	74.816327
982.000000	75.209290
981.000000	75.540141
980.000000	75.806997
979.000000	76.021280
978.000000	76.202078
977.000000	76.368268
976.000000	76.536123
975.000000	76.718690
974.000000	76.920951
973.000000	77.134412
972.000000	77.342732
971.000000	77.531938
970.000000	77.694593
969.000000	77.829602
968.000000	77.943423
967.000000	78.050264
966.000000	78.164612
965.000000	78.291606
964.000000	78.427119
963.000000	78.563695
962.000000	78.693546
961.000000	78.808794
960.000000	78.905455
959.000000	78.988911
958.000000	79.072274
957.000000	79.168606
956.000000	79.285390
955.000000	79.422962
954.000000	79.573045
953.000000	79.718442
952.000000	79.839360
951.000000	79.923613
950.000000	79.971551
949.000000	79.994945
948.000000	80.014983
947.000000	80.058367
946.000000	80.146775
945.000000	80.285275
944.000000	80.460225
943.000000	80.646311
942.000000	80.814685
941.000000	80.939611
940.000000	81.006436
939.000000	81.019483
938.000000	81.001730
937.000000	80.984758
936.000000	80.997801
935.000000	81.060505
934.000000	81.176679
933.000000	81.330701
932.000000	81.493643
931.000000	81.637117
930.000000	81.743605
929.000000	81.808617
928.000000	81.839919
927.000000	81.856147
926.000000	81.880119
925.000000	81.927235
924.000000	81.999126
923.000000	82.087190
922.000000	82.179034
921.000000	82.262187
920.000000	82.328201
919.000000	82.378900
918.000000	82.427521
917.000000	82.490721
916.000000	82.578925
915.000000	82.692811
914.000000	82.823040
913.000000	82.950686
912.000000	83.051420
911.000000	83.106692
910.000000	83.111741
909.000000	83.071902
908.000000	82.993780
907.000000	82.877565
906.000000	82.714100
905.000000	82.478683
904.000000	82.133778
903.000000	81.658045
902.000000	81.087491
901.000000	80.531834
900.000000	80.137409
899.000000	80.011205
898.000000	80.160999
897.000000	80.506958
896.000000	80.943511
895.000000	81.395771
894.000000	81.832089
893.000000	82.237072
892.000000	82.591460
891.000000	82.873178
890.000000	83.072058
889.000000	83.197669
888.000000	83.276088
887.000000	83.334311
886.000000	83.380051
885.000000	83.390175
884.000000	83.323726
883.000000	83.161628
882.000000	82.931832
881.000000	82.690630
880.000000	82.470970
879.000000	82.251495
878.000000	81.988084
877.000000	81.681618
876.000000	81.415693
875.000000	81.313265
874.000000	81.447633
873.000000	81.786646
872.000000	82.219174
871.000000	82.629457
870.000000	82.952237
869.000000	83.179571
868.000000	83.337121
867.000000	83.463307
866.000000	83.594583
865.000000	83.753426
864.000000	83.941484
863.000000	84.143522
862.000000	84.335445
861.000000	84.490706
860.000000	84.588525
859.000000	84.623602
858.000000	84.611173
857.000000	84.580428
856.000000	84.562600
855.000000	84.583232
854.000000	84.656451
853.000000	84.779067
852.000000	84.929975
851.000000	85.079543
850.000000	85.202008
849.000000	85.282083
848.000000	85.317090
847.000000	85.318772
846.000000	85.310594
845.000000	85.317494
844.000000	85.355419
843.000000	85.428052
842.000000	85.528112
841.000000	85.638963
840.000000	85.739780
839.000000	85.815618
838.000000	85.864582
837.000000	85.895387
836.000000	85.921556
835.000000	85.958880
834.000000	86.021644
833.000000	86.113537
832.000000	86.222917
831.000000	86.330261
830.000000	86.419758
829.000000	86.483256
828.000000	86.519905
827.000000	86.539114
826.000000	86.561705
825.000000	86.610540
824.000000	86.698230
823.000000	86.823867
822.000000	86.976092
821.000000	87.134104
820.000000	87.271072
819.000000	87.366267
818.000000	87.415887
817.000000	87.430465
816.000000	87.425865
815.000000	87.420505
814.000000	87.433251
813.000000	87.472407
812.000000	87.526832
811.000000	87.571933
810.000000	87.584197
809.000000	87.547526
808.000000	87.450584
807.000000	87.289072
806.000000	87.067403
805.000000	86.789681
804.000000	86.448501
803.000000	86.021494
802.000000	85.478061
801.000000	84.778941
800.000000	83.879532
799.000000	82.750027
798.000000	81.391803
797.000000	79.841482
796.000000	78.161029
795.000000	76.432527
794.000000	74.750478
793.000000	73.205547
792.000000	71.871450
791.000000	70.802970
790.000000	70.039620
789.000000	69.598045
788.000000	69.468533
787.000000	69.614162
786.000000	69.982485
785.000000	70.518132
784.000000	71.162443
783.000000	71.855018
782.000000	72.533570
781.000000	73.136419
780.000000	73.604008
779.000000	73.890688
778.000000	73.981780
777.000000	73.897274
776.000000	73.675819
775.000000	73.356350
774.000000	72.977809
773.000000	72.587542
772.000000	72.248930
771.000000	72.036982
770.000000	72.022230
769.000000	72.243208
768.000000	72.687249
767.000000	73.298062
766.000000	74.007012
765.000000	74.761832
764.000000	75.529970
763.000000	76.292702
762.000000	77.040098
761.000000	77.763772
760.000000	78.446231
759.000000	79.062990
758.000000	79.599146
757.000000	80.058245
756.000000	80.455641
755.000000	80.812375
754.000000	81.157087
753.000000	81.518176
752.000000	81.905534
751.000000	82.304610
750.000000	82.688671
749.000000	83.030917
748.000000	83.306990
747.000000	83.503110
746.000000	83.630520
745.000000	83.723391
744.000000	83.818014
743.000000	83.939533
742.000000	84.104209
741.000000	84.315964
740.000000	84.553820
739.000000	84.777088
738.000000	84.951215
737.000000	85.061184
736.000000	85.102448
735.000000	85.077869
734.000000	85.009033
733.000000	84.931916
732.000000	84.872322
731.000000	84.836248
730.000000	84.824313
729.000000	84.834314
728.000000	84.849132
727.000000	84.840558
726.000000	84.789394
725.000000	84.693854
724.000000	84.552921
723.000000	84.351932
722.000000	84.064711
721.000000	83.656709
720.000000	83.084412
719.000000	82.314716
718.000000	81.361502
717.000000	80.301058
716.000000	79.251252
715.000000	78.339394
714.000000	77.681047
713.000000	77.353884
712.000000	77.367157
711.000000	77.659953
710.000000	78.143028
709.000000	78.735928
708.000000	79.368375
707.000000	79.981472
706.000000	80.544931
705.000000	81.064700
704.000000	81.559847
703.000000	82.039595
702.000000	82.513577
701.000000	82.998676
700.000000	83.491060
699.000000	83.958301
698.000000	84.369351
697.000000	84.717663
696.000000	85.006048
695.000000	85.228670
694.000000	85.397837
693.000000	85.556183
692.000000	85.733540
691.000000	85.924964
690.000000	86.120607
689.000000	86.329791
688.000000	86.548942
687.000000	86.736172
686.000000	86.864520
685.000000	86.958429
684.000000	87.042841
683.000000	87.107354
682.000000	87.153462
681.000000	87.223476
680.000000	87.337842
679.000000	87.458351
678.000000	87.558244
677.000000	87.647856
676.000000	87.720919
675.000000	87.768108
674.000000	87.806608
673.000000	87.884453
672.000000	88.074717
671.000000	88.461477
670.000000	89.074892
669.000000	89.770853
668.000000	90.136481
667.000000	89.904026
666.000000	89.353224
665.000000	88.844061
664.000000	88.530683
663.000000	88.414301
662.000000	88.421206
661.000000	88.480458
660.000000	88.553723
659.000000	88.635657
658.000000	88.725357
657.000000	88.795247
656.000000	88.816440
655.000000	88.817940
654.000000	88.825947
653.000000	88.813937
652.000000	88.777088
651.000000	88.769150
650.000000	88.821755
649.000000	88.890678
648.000000	88.931522
647.000000	88.955919
646.000000	88.969833
645.000000	88.938160
644.000000	88.845680
643.000000	88.732720
642.000000	88.644209
641.000000	88.581206
640.000000	88.539560
639.000000	88.544694
638.000000	88.602324
637.000000	88.664153
636.000000	88.683461
635.000000	88.656205
634.000000	88.585703
633.000000	88.458813
632.000000	88.285266
631.000000	88.119398
630.000000	88.007232
629.000000	87.944041
628.000000	87.910226
627.000000	87.905797
626.000000	87.913967
625.000000	87.885879
624.000000	87.788902
623.000000	87.637950
622.000000	87.458868
621.000000	87.255284
620.000000	87.035375
619.000000	86.826943
618.000000	86.639044
617.000000	86.440106
616.000000	86.202211
615.000000	85.931731
614.000000	85.631701
613.000000	85.278711
612.000000	84.864360
611.000000	84.418665
610.000000	83.963306
609.000000	83.473314
608.000000	82.913915
607.000000	82.280182
606.000000	81.566205
605.000000	80.746317
604.000000	79.816069
603.000000	78.817455
602.000000	77.790221
601.000000	76.735999
600.000000	75.656319
599.000000	74.583663
598.000000	73.529697
597.000000	72.450976
596.000000	71.314551
595.000000	70.148335
594.000000	68.987495
593.000000	67.822171
592.000000	66.657318
591.000000	65.564323
590.000000	64.613211
589.000000	63.804558
588.000000	63.116299
587.000000	62.545191
586.000000	62.039707
585.000000	61.471695
584.000000	60.747084
583.000000	59.894016
582.000000	58.992775
581.000000	58.101832
580.000000	57.305134
579.000000	56.751934
578.000000	56.550061
577.000000	56.685273
576.000000	57.087855
575.000000	57.687449
574.000000	58.369219
573.000000	58.972253
572.000000	59.413660
571.000000	59.761195
570.000000	60.146295
569.000000	60.651060
568.000000	61.304717
567.000000	62.100576
566.000000	62.957898
565.000000	63.745084
564.000000	64.395595
563.000000	64.951408
562.000000	65.467175
561.000000	65.942713
560.000000	66.378869
559.000000	66.817484
558.000000	67.276091
557.000000	67.711552
556.000000	68.088851
555.000000	68.432330
554.000000	68.768842
553.000000	69.084353
552.000000	69.376417
551.000000	69.689524
550.000000	70.054395
549.000000	70.443707
548.000000	70.829709
547.000000	71.228124
546.000000	71.647261
545.000000	72.048560
544.000000	72.402051
543.000000	72.725589
542.000000	73.034697
541.000000	73.305462
540.000000	73.526120
539.000000	73.734580
538.000000	73.966364
537.000000	74.212580
536.000000	74.460730
535.000000	74.733292
534.000000	75.041936
533.000000	75.360081
532.000000	75.656134
531.000000	75.919584
530.000000	76.133388
529.000000	76.261076
528.000000	76.281987
527.000000	76.218049
526.000000	76.088519
525.000000	75.874918
524.000000	75.574057
523.000000	75.233286
522.000000	74.909573
521.000000	74.625835
520.000000	74.382849
519.000000	74.161033
518.000000	73.864733
517.000000	73.320835
516.000000	72.395424
515.000000	71.102102
514.000000	69.580373
513.000000	68.024795
512.000000	66.654071
511.000000	65.680688
510.000000	65.222165
509.000000	65.262365
508.000000	65.727824
507.000000	66.540818
506.000000	67.584154
505.000000	68.706353
504.000000	69.805096
503.000000	70.850460
502.000000	71.803649
501.000000	72.598480
500.000000	73.220409
499.000000	73.738843
498.000000	74.229334
497.000000	74.720918
496.000000	75.226094
495.000000	75.765367
494.000000	76.340733
493.000000	76.908186
492.000000	77.411222
491.000000	77.830795
490.000000	78.168538
489.000000	78.429850
488.000000	78.637320
487.000000	78.839517
486.000000	79.075932
485.000000	79.343615
484.000000	79.622119
483.000000	79.908419
482.000000	80.198122
481.000000	80.459025
480.000000	80.667982
479.000000	80.845856
478.000000	81.005141
477.000000	81.115846
476.000000	81.156322
475.000000	81.145286
474.000000	81.074144
473.000000	80.857384
472.000000	80.419129
471.000000	79.819238
470.000000	79.193441
469.000000	78.651373
468.000000	78.298167
467.000000	78.219857
466.000000	78.343776
465.000000	78.416634
464.000000	78.181835
463.000000	77.551406
462.000000	76.655353
461.000000	75.762110
460.000000	75.185292
459.000000	75.188560
458.000000	75.822677
457.000000	76.837712
456.000000	77.913880
455.000000	78.927264
454.000000	79.855716
453.000000	80.621603
452.000000	81.147060
451.000000	81.472080
450.000000	81.666683
449.000000	81.716858
448.000000	81.577828
447.000000	81.259855
446.000000	80.796299
445.000000	80.208851
444.000000	79.582582
443.000000	79.104740
442.000000	78.929208
441.000000	79.041522
440.000000	79.358400
439.000000	79.829869
438.000000	80.382188
437.000000	80.880506
436.000000	81.232611
435.000000	81.466409
434.000000	81.630994
433.000000	81.709421
432.000000	81.695282
431.000000	81.659096
430.000000	81.671905
429.000000	81.715022
428.000000	81.750701
427.000000	81.806810
426.000000	81.895771
425.000000	81.923528
424.000000	81.794262
423.000000	81.565851
422.000000	81.354146
421.000000	81.160584
420.000000	80.943243
419.000000	80.812492
418.000000	80.904086
417.000000	81.080583
416.000000	81.191986
415.000000	81.281566
414.000000	81.393771
413.000000	81.454523
412.000000	81.413969
411.000000	81.359249
410.000000	81.386142
409.000000	81.429069
408.000000	81.410042
407.000000	81.432233
406.000000	81.620314
405.000000	81.895769
404.000000	82.129957
403.000000	82.359553
402.000000	82.659989
401.000000	82.944639
400.000000	83.087920
