PE IR       SUBTECH     SPECTRUM    ASCII       PEDS        4.00        
   -1
23ms151 trans.asc
24/09/23
16:03:13.00
24/09/23
16:03:13.00
Administrator
Sample 1184 By Administrator Date Monday, September 23 2024
400.000000
#HDR
-1
-1
#GR
cm-1
%T
1.0
0.0
4000.000000
-1.000000
3601
8
53.703895
0.532428
#DATA
4000.000000	15.016057
3999.000000	14.999122
3998.000000	14.980651
3997.000000	14.960905
3996.000000	14.940249
3995.000000	14.918688
3994.000000	14.895610
3993.000000	14.870056
3992.000000	14.841468
3991.000000	14.810298
3990.000000	14.778072
3989.000000	14.746996
3988.000000	14.719363
3987.000000	14.697025
3986.000000	14.680890
3985.000000	14.670624
3984.000000	14.664802
3983.000000	14.661483
3982.000000	14.658661
3981.000000	14.654496
3980.000000	14.647640
3979.000000	14.637699
3978.000000	14.625511
3977.000000	14.612750
3976.000000	14.601193
3975.000000	14.592239
3974.000000	14.587086
3973.000000	14.587202
3972.000000	14.594269
3971.000000	14.609537
3970.000000	14.633281
3969.000000	14.664626
3968.000000	14.702011
3967.000000	14.743943
3966.000000	14.789220
3965.000000	14.836599
3964.000000	14.884347
3963.000000	14.930647
3962.000000	14.974364
3961.000000	15.015179
3960.000000	15.053092
3959.000000	15.088028
3958.000000	15.120107
3957.000000	15.149716
3956.000000	15.177037
3955.000000	15.202151
3954.000000	15.225787
3953.000000	15.249335
3952.000000	15.273888
3951.000000	15.299436
3950.000000	15.325172
3949.000000	15.350357
3948.000000	15.374882
3947.000000	15.399251
3946.000000	15.424164
3945.000000	15.450189
3944.000000	15.477570
3943.000000	15.505757
3942.000000	15.533146
3941.000000	15.557852
3940.000000	15.579137
3939.000000	15.598192
3938.000000	15.617230
3937.000000	15.637317
3936.000000	15.657401
3935.000000	15.675985
3934.000000	15.692725
3933.000000	15.708077
3932.000000	15.722122
3931.000000	15.734439
3930.000000	15.745305
3929.000000	15.755967
3928.000000	15.767806
3927.000000	15.781258
3926.000000	15.795605
3925.000000	15.810087
3924.000000	15.824238
3923.000000	15.837120
3922.000000	15.848245
3921.000000	15.859442
3920.000000	15.873355
3919.000000	15.889573
3918.000000	15.904845
3917.000000	15.917493
3916.000000	15.928993
3915.000000	15.941036
3914.000000	15.953630
3913.000000	15.966636
3912.000000	15.980785
3911.000000	15.996179
3910.000000	16.012228
3909.000000	16.030010
3908.000000	16.052050
3907.000000	16.079658
3906.000000	16.110887
3905.000000	16.141281
3904.000000	16.167369
3903.000000	16.188821
3902.000000	16.207029
3901.000000	16.222859
3900.000000	16.237120
3899.000000	16.250493
3898.000000	16.261933
3897.000000	16.269475
3896.000000	16.274528
3895.000000	16.282437
3894.000000	16.296697
3893.000000	16.314414
3892.000000	16.329686
3891.000000	16.341839
3890.000000	16.356101
3889.000000	16.374947
3888.000000	16.394480
3887.000000	16.411114
3886.000000	16.424684
3885.000000	16.436074
3884.000000	16.446613
3883.000000	16.456059
3882.000000	16.463814
3881.000000	16.471556
3880.000000	16.479543
3879.000000	16.485629
3878.000000	16.489453
3877.000000	16.492818
3876.000000	16.498839
3875.000000	16.510010
3874.000000	16.526013
3873.000000	16.544782
3872.000000	16.562243
3871.000000	16.573871
3870.000000	16.581693
3869.000000	16.592884
3868.000000	16.608640
3867.000000	16.622500
3866.000000	16.632198
3865.000000	16.642951
3864.000000	16.655182
3863.000000	16.662415
3862.000000	16.663068
3861.000000	16.662606
3860.000000	16.666370
3859.000000	16.677881
3858.000000	16.702336
3857.000000	16.746370
3856.000000	16.808912
3855.000000	16.870552
3854.000000	16.902758
3853.000000	16.905059
3852.000000	16.909268
3851.000000	16.926954
3850.000000	16.933588
3849.000000	16.914875
3848.000000	16.883376
3847.000000	16.852287
3846.000000	16.829242
3845.000000	16.819674
3844.000000	16.823294
3843.000000	16.835961
3842.000000	16.854452
3841.000000	16.876629
3840.000000	16.898865
3839.000000	16.917481
3838.000000	16.930465
3837.000000	16.939430
3836.000000	16.949230
3835.000000	16.962421
3834.000000	16.976609
3833.000000	16.987742
3832.000000	16.994199
3831.000000	16.998006
3830.000000	17.002408
3829.000000	17.009025
3828.000000	17.018126
3827.000000	17.029686
3826.000000	17.044814
3825.000000	17.065323
3824.000000	17.090416
3823.000000	17.116063
3822.000000	17.137770
3821.000000	17.155561
3820.000000	17.175748
3819.000000	17.200335
3818.000000	17.220764
3817.000000	17.232212
3816.000000	17.239068
3815.000000	17.243583
3814.000000	17.245378
3813.000000	17.244558
3812.000000	17.244313
3811.000000	17.251382
3810.000000	17.267278
3809.000000	17.287068
3808.000000	17.305555
3807.000000	17.322147
3806.000000	17.342763
3805.000000	17.370852
3804.000000	17.400267
3803.000000	17.423455
3802.000000	17.437644
3801.000000	17.443680
3800.000000	17.446148
3799.000000	17.447381
3798.000000	17.445440
3797.000000	17.442578
3796.000000	17.441034
3795.000000	17.437893
3794.000000	17.433250
3793.000000	17.431854
3792.000000	17.437669
3791.000000	17.449572
3790.000000	17.462566
3789.000000	17.474256
3788.000000	17.486432
3787.000000	17.500527
3786.000000	17.515457
3785.000000	17.529740
3784.000000	17.543425
3783.000000	17.557043
3782.000000	17.570051
3781.000000	17.582011
3780.000000	17.593567
3779.000000	17.605323
3778.000000	17.617025
3777.000000	17.627566
3776.000000	17.635950
3775.000000	17.643869
3774.000000	17.654453
3773.000000	17.668083
3772.000000	17.682105
3771.000000	17.693904
3770.000000	17.703478
3769.000000	17.712363
3768.000000	17.719733
3767.000000	17.722682
3766.000000	17.721023
3765.000000	17.718051
3764.000000	17.715952
3763.000000	17.713824
3762.000000	17.711682
3761.000000	17.712781
3760.000000	17.719268
3759.000000	17.728513
3758.000000	17.737716
3757.000000	17.749787
3756.000000	17.769840
3755.000000	17.799926
3754.000000	17.839964
3753.000000	17.887624
3752.000000	17.934096
3751.000000	17.967733
3750.000000	17.988225
3749.000000	18.008196
3748.000000	18.035018
3747.000000	18.062868
3746.000000	18.083140
3745.000000	18.089784
3744.000000	18.084065
3743.000000	18.077666
3742.000000	18.074452
3741.000000	18.063694
3740.000000	18.045098
3739.000000	18.029959
3738.000000	18.021559
3737.000000	18.019760
3736.000000	18.027049
3735.000000	18.044028
3734.000000	18.065016
3733.000000	18.079903
3732.000000	18.086028
3731.000000	18.089748
3730.000000	18.093674
3729.000000	18.093903
3728.000000	18.088857
3727.000000	18.081709
3726.000000	18.075476
3725.000000	18.070378
3724.000000	18.065763
3723.000000	18.062614
3722.000000	18.063140
3721.000000	18.066827
3720.000000	18.070852
3719.000000	18.074098
3718.000000	18.077455
3717.000000	18.083198
3716.000000	18.093563
3715.000000	18.109036
3714.000000	18.128570
3713.000000	18.148630
3712.000000	18.163608
3711.000000	18.171793
3710.000000	18.176580
3709.000000	18.179160
3708.000000	18.176057
3707.000000	18.165659
3706.000000	18.151109
3705.000000	18.136421
3704.000000	18.124023
3703.000000	18.114458
3702.000000	18.106912
3701.000000	18.100854
3700.000000	18.095800
3699.000000	18.089609
3698.000000	18.080316
3697.000000	18.069393
3696.000000	18.059841
3695.000000	18.052041
3694.000000	18.045763
3693.000000	18.043818
3692.000000	18.048893
3691.000000	18.057180
3690.000000	18.059245
3689.000000	18.050126
3688.000000	18.035214
3687.000000	18.020937
3686.000000	18.004213
3685.000000	17.978421
3684.000000	17.943552
3683.000000	17.904554
3682.000000	17.865609
3681.000000	17.831153
3680.000000	17.807850
3679.000000	17.799680
3678.000000	17.800499
3677.000000	17.794159
3676.000000	17.770071
3675.000000	17.737825
3674.000000	17.712854
3673.000000	17.690292
3672.000000	17.654781
3671.000000	17.605967
3670.000000	17.549900
3669.000000	17.487687
3668.000000	17.421752
3667.000000	17.353561
3666.000000	17.283490
3665.000000	17.213283
3664.000000	17.142186
3663.000000	17.069041
3662.000000	16.996254
3661.000000	16.928566
3660.000000	16.868233
3659.000000	16.811715
3658.000000	16.751893
3657.000000	16.684115
3656.000000	16.611238
3655.000000	16.539770
3654.000000	16.470823
3653.000000	16.400200
3652.000000	16.325947
3651.000000	16.245670
3650.000000	16.151618
3649.000000	16.041449
3648.000000	15.925674
3647.000000	15.814393
3646.000000	15.705798
3645.000000	15.592934
3644.000000	15.473738
3643.000000	15.351621
3642.000000	15.230358
3641.000000	15.111021
3640.000000	14.992583
3639.000000	14.874531
3638.000000	14.757842
3637.000000	14.642403
3636.000000	14.525521
3635.000000	14.406115
3634.000000	14.289188
3633.000000	14.181159
3632.000000	14.080420
3631.000000	13.975329
3630.000000	13.852701
3629.000000	13.712625
3628.000000	13.571609
3627.000000	13.440952
3626.000000	13.312981
3625.000000	13.179465
3624.000000	13.044666
3623.000000	12.913259
3622.000000	12.784161
3621.000000	12.654836
3620.000000	12.523514
3619.000000	12.391213
3618.000000	12.260916
3617.000000	12.133580
3616.000000	12.006588
3615.000000	11.877349
3614.000000	11.746647
3613.000000	11.617392
3612.000000	11.491371
3611.000000	11.367157
3610.000000	11.241825
3609.000000	11.114940
3608.000000	10.988588
3607.000000	10.863707
3606.000000	10.739313
3605.000000	10.615382
3604.000000	10.493613
3603.000000	10.374581
3602.000000	10.256638
3601.000000	10.138930
3600.000000	10.023017
3599.000000	9.910257
3598.000000	9.799921
3597.000000	9.690686
3596.000000	9.581445
3595.000000	9.471023
3594.000000	9.360097
3593.000000	9.251948
3592.000000	9.149335
3591.000000	9.051337
3590.000000	8.953622
3589.000000	8.851498
3588.000000	8.743493
3587.000000	8.632654
3586.000000	8.523943
3585.000000	8.420511
3584.000000	8.322929
3583.000000	8.230345
3582.000000	8.140871
3581.000000	8.052920
3580.000000	7.966266
3579.000000	7.880598
3578.000000	7.795078
3577.000000	7.709724
3576.000000	7.625410
3575.000000	7.542266
3574.000000	7.459882
3573.000000	7.378968
3572.000000	7.301104
3571.000000	7.227140
3570.000000	7.156867
3569.000000	7.089726
3568.000000	7.024530
3567.000000	6.959017
3566.000000	6.891414
3565.000000	6.821892
3564.000000	6.751887
3563.000000	6.683279
3562.000000	6.617924
3561.000000	6.556907
3560.000000	6.499816
3559.000000	6.444563
3558.000000	6.389171
3557.000000	6.333715
3556.000000	6.279203
3555.000000	6.225250
3554.000000	6.170657
3553.000000	6.115753
3552.000000	6.061984
3551.000000	6.009356
3550.000000	5.956249
3549.000000	5.901422
3548.000000	5.844729
3547.000000	5.786612
3546.000000	5.728805
3545.000000	5.674728
3544.000000	5.626997
3543.000000	5.584998
3542.000000	5.546163
3541.000000	5.508097
3540.000000	5.468451
3539.000000	5.424976
3538.000000	5.377960
3537.000000	5.331490
3536.000000	5.289717
3535.000000	5.252481
3534.000000	5.216514
3533.000000	5.179766
3532.000000	5.142348
3531.000000	5.104405
3530.000000	5.065525
3529.000000	5.025674
3528.000000	4.984586
3527.000000	4.940827
3526.000000	4.893822
3525.000000	4.846414
3524.000000	4.803184
3523.000000	4.766200
3522.000000	4.733838
3521.000000	4.703225
3520.000000	4.672051
3519.000000	4.638641
3518.000000	4.602278
3517.000000	4.563489
3516.000000	4.523152
3515.000000	4.482132
3514.000000	4.442460
3513.000000	4.407073
3512.000000	4.376667
3511.000000	4.348024
3510.000000	4.317134
3509.000000	4.282856
3508.000000	4.246028
3507.000000	4.206582
3506.000000	4.164074
3505.000000	4.120160
3504.000000	4.078211
3503.000000	4.040589
3502.000000	4.007501
3501.000000	3.977679
3500.000000	3.948831
3499.000000	3.918638
3498.000000	3.886973
3497.000000	3.856321
3496.000000	3.828751
3495.000000	3.803487
3494.000000	3.778669
3493.000000	3.753900
3492.000000	3.729399
3491.000000	3.704278
3490.000000	3.677703
3489.000000	3.650642
3488.000000	3.624848
3487.000000	3.601122
3486.000000	3.579705
3485.000000	3.560648
3484.000000	3.542134
3483.000000	3.520436
3482.000000	3.493994
3481.000000	3.466388
3480.000000	3.443137
3479.000000	3.426346
3478.000000	3.414132
3477.000000	3.403600
3476.000000	3.392337
3475.000000	3.378302
3474.000000	3.360378
3473.000000	3.338573
3472.000000	3.312873
3471.000000	3.283428
3470.000000	3.252957
3469.000000	3.227027
3468.000000	3.209983
3467.000000	3.201518
3466.000000	3.198212
3465.000000	3.196477
3464.000000	3.192822
3463.000000	3.184056
3462.000000	3.169942
3461.000000	3.154342
3460.000000	3.141540
3459.000000	3.132261
3458.000000	3.124573
3457.000000	3.116918
3456.000000	3.108512
3455.000000	3.098516
3454.000000	3.086910
3453.000000	3.075077
3452.000000	3.063908
3451.000000	3.052501
3450.000000	3.040097
3449.000000	3.027836
3448.000000	3.017083
3447.000000	3.007468
3446.000000	2.998195
3445.000000	2.989702
3444.000000	2.982303
3443.000000	2.974590
3442.000000	2.964695
3441.000000	2.951847
3440.000000	2.935612
3439.000000	2.915573
3438.000000	2.893510
3437.000000	2.874175
3436.000000	2.861807
3435.000000	2.856611
3434.000000	2.855518
3433.000000	2.854971
3432.000000	2.852288
3431.000000	2.846560
3430.000000	2.839940
3429.000000	2.836372
3428.000000	2.837378
3427.000000	2.840427
3426.000000	2.842232
3425.000000	2.841719
3424.000000	2.838984
3423.000000	2.833880
3422.000000	2.827314
3421.000000	2.821757
3420.000000	2.818520
3419.000000	2.816046
3418.000000	2.812232
3417.000000	2.806553
3416.000000	2.799039
3415.000000	2.789645
3414.000000	2.779955
3413.000000	2.773042
3412.000000	2.769951
3411.000000	2.768495
3410.000000	2.766980
3409.000000	2.766730
3408.000000	2.769043
3407.000000	2.771933
3406.000000	2.771825
3405.000000	2.766648
3404.000000	2.756049
3403.000000	2.741217
3402.000000	2.726602
3401.000000	2.719206
3400.000000	2.723200
3399.000000	2.736006
3398.000000	2.751059
3397.000000	2.762794
3396.000000	2.767990
3395.000000	2.765368
3394.000000	2.757085
3393.000000	2.749271
3392.000000	2.748253
3391.000000	2.756174
3390.000000	2.770911
3389.000000	2.788605
3388.000000	2.805123
3387.000000	2.817332
3386.000000	2.825013
3385.000000	2.830492
3384.000000	2.835349
3383.000000	2.839080
3382.000000	2.841597
3381.000000	2.844704
3380.000000	2.849732
3379.000000	2.855883
3378.000000	2.862365
3377.000000	2.870044
3376.000000	2.879314
3375.000000	2.888135
3374.000000	2.893805
3373.000000	2.895373
3372.000000	2.893512
3371.000000	2.890085
3370.000000	2.888919
3369.000000	2.894642
3368.000000	2.908904
3367.000000	2.929072
3366.000000	2.951552
3365.000000	2.974247
3364.000000	2.995272
3363.000000	3.012365
3362.000000	3.025481
3361.000000	3.037760
3360.000000	3.051988
3359.000000	3.067792
3358.000000	3.083679
3357.000000	3.099545
3356.000000	3.115274
3355.000000	3.129087
3354.000000	3.139509
3353.000000	3.147802
3352.000000	3.157082
3351.000000	3.170146
3350.000000	3.188750
3349.000000	3.212852
3348.000000	3.239258
3347.000000	3.262973
3346.000000	3.281625
3345.000000	3.297312
3344.000000	3.313267
3343.000000	3.330381
3342.000000	3.347819
3341.000000	3.365085
3340.000000	3.382380
3339.000000	3.400598
3338.000000	3.421799
3337.000000	3.447718
3336.000000	3.476926
3335.000000	3.505459
3334.000000	3.531055
3333.000000	3.554806
3332.000000	3.578104
3331.000000	3.600338
3330.000000	3.620438
3329.000000	3.638465
3328.000000	3.654706
3327.000000	3.669461
3326.000000	3.684565
3325.000000	3.702641
3324.000000	3.723731
3323.000000	3.744735
3322.000000	3.763057
3321.000000	3.778621
3320.000000	3.791602
3319.000000	3.800943
3318.000000	3.806139
3317.000000	3.808074
3316.000000	3.806693
3315.000000	3.800008
3314.000000	3.786549
3313.000000	3.766473
3312.000000	3.739495
3311.000000	3.704216
3310.000000	3.660614
3309.000000	3.611360
3308.000000	3.559428
3307.000000	3.506749
3306.000000	3.455871
3305.000000	3.409918
3304.000000	3.369554
3303.000000	3.332304
3302.000000	3.296134
3301.000000	3.261463
3300.000000	3.229030
3299.000000	3.198534
3298.000000	3.170807
3297.000000	3.148474
3296.000000	3.132646
3295.000000	3.121524
3294.000000	3.113317
3293.000000	3.108073
3292.000000	3.105097
3291.000000	3.100957
3290.000000	3.092110
3289.000000	3.077375
3288.000000	3.056611
3287.000000	3.029230
3286.000000	2.995434
3285.000000	2.956440
3284.000000	2.912248
3283.000000	2.860909
3282.000000	2.801050
3281.000000	2.733176
3280.000000	2.657062
3279.000000	2.570796
3278.000000	2.473701
3277.000000	2.367853
3276.000000	2.255757
3275.000000	2.138367
3274.000000	2.017129
3273.000000	1.895986
3272.000000	1.779900
3271.000000	1.673348
3270.000000	1.581070
3269.000000	1.507747
3268.000000	1.455364
3267.000000	1.423646
3266.000000	1.412989
3265.000000	1.425362
3264.000000	1.460877
3263.000000	1.515343
3262.000000	1.583315
3261.000000	1.659436
3260.000000	1.736866
3259.000000	1.807038
3258.000000	1.862816
3257.000000	1.900038
3256.000000	1.915196
3255.000000	1.904035
3254.000000	1.863523
3253.000000	1.793741
3252.000000	1.695387
3251.000000	1.569910
3250.000000	1.422397
3249.000000	1.262323
3248.000000	1.100718
3247.000000	0.947066
3246.000000	0.810003
3245.000000	0.697065
3244.000000	0.612520
3243.000000	0.557222
3242.000000	0.532428
3241.000000	0.540100
3240.000000	0.578912
3239.000000	0.643358
3238.000000	0.726245
3237.000000	0.821567
3236.000000	0.923557
3235.000000	1.026879
3234.000000	1.129673
3233.000000	1.232424
3232.000000	1.333735
3231.000000	1.429305
3230.000000	1.516057
3229.000000	1.594232
3228.000000	1.664748
3227.000000	1.727603
3226.000000	1.783987
3225.000000	1.836963
3224.000000	1.888112
3223.000000	1.936252
3222.000000	1.980249
3221.000000	2.020615
3220.000000	2.057415
3219.000000	2.088984
3218.000000	2.114161
3217.000000	2.133019
3216.000000	2.144709
3215.000000	2.147516
3214.000000	2.141755
3213.000000	2.130432
3212.000000	2.115800
3211.000000	2.097865
3210.000000	2.077243
3209.000000	2.056319
3208.000000	2.036893
3207.000000	2.019075
3206.000000	2.003397
3205.000000	1.991343
3204.000000	1.982923
3203.000000	1.976417
3202.000000	1.971332
3201.000000	1.968964
3200.000000	1.969264
3199.000000	1.970131
3198.000000	1.970552
3197.000000	1.971610
3196.000000	1.973661
3195.000000	1.975385
3194.000000	1.976575
3193.000000	1.978772
3192.000000	1.982222
3191.000000	1.985191
3190.000000	1.987311
3189.000000	1.990799
3188.000000	1.997291
3187.000000	2.006206
3186.000000	2.017279
3185.000000	2.031677
3184.000000	2.049547
3183.000000	2.069108
3182.000000	2.089159
3181.000000	2.109941
3180.000000	2.130532
3179.000000	2.148285
3178.000000	2.161808
3177.000000	2.172038
3176.000000	2.179592
3175.000000	2.183985
3174.000000	2.186299
3173.000000	2.189812
3172.000000	2.196981
3171.000000	2.208461
3170.000000	2.225815
3169.000000	2.252204
3168.000000	2.289510
3167.000000	2.336959
3166.000000	2.393859
3165.000000	2.460880
3164.000000	2.538288
3163.000000	2.626171
3162.000000	2.726348
3161.000000	2.841865
3160.000000	2.972942
3159.000000	3.115898
3158.000000	3.266633
3157.000000	3.421450
3156.000000	3.574934
3155.000000	3.720208
3154.000000	3.852806
3153.000000	3.971843
3152.000000	4.077065
3151.000000	4.167509
3150.000000	4.243518
3149.000000	4.307370
3148.000000	4.360138
3147.000000	4.401014
3146.000000	4.429183
3145.000000	4.443695
3144.000000	4.441368
3143.000000	4.416625
3142.000000	4.365798
3141.000000	4.288725
3140.000000	4.186135
3139.000000	4.059292
3138.000000	3.911520
3137.000000	3.748742
3136.000000	3.576656
3135.000000	3.399997
3134.000000	3.225388
3133.000000	3.061115
3132.000000	2.913753
3131.000000	2.786995
3130.000000	2.684300
3129.000000	2.608517
3128.000000	2.558720
3127.000000	2.530020
3126.000000	2.517789
3125.000000	2.519722
3124.000000	2.532619
3123.000000	2.552147
3122.000000	2.576320
3121.000000	2.606360
3120.000000	2.643259
3119.000000	2.685711
3118.000000	2.732861
3117.000000	2.785207
3116.000000	2.841601
3115.000000	2.897936
3114.000000	2.949570
3113.000000	2.992565
3112.000000	3.022122
3111.000000	3.033758
3110.000000	3.026513
3109.000000	3.002927
3108.000000	2.964369
3107.000000	2.909319
3106.000000	2.837295
3105.000000	2.750666
3104.000000	2.652865
3103.000000	2.547371
3102.000000	2.440239
3101.000000	2.340315
3100.000000	2.255177
3099.000000	2.188740
3098.000000	2.143095
3097.000000	2.119946
3096.000000	2.118454
3095.000000	2.135589
3094.000000	2.169204
3093.000000	2.219061
3092.000000	2.284763
3091.000000	2.364554
3090.000000	2.457498
3089.000000	2.562773
3088.000000	2.676773
3087.000000	2.794246
3086.000000	2.912636
3085.000000	3.033073
3084.000000	3.155995
3083.000000	3.278995
3082.000000	3.399817
3081.000000	3.518328
3080.000000	3.634917
3079.000000	3.749550
3078.000000	3.863189
3077.000000	3.977227
3076.000000	4.090836
3075.000000	4.201298
3074.000000	4.307511
3073.000000	4.410674
3072.000000	4.511221
3071.000000	4.608093
3070.000000	4.701619
3069.000000	4.794465
3068.000000	4.888897
3067.000000	4.985267
3066.000000	5.083474
3065.000000	5.183334
3064.000000	5.283134
3063.000000	5.380435
3062.000000	5.474674
3061.000000	5.566827
3060.000000	5.656580
3059.000000	5.742480
3058.000000	5.824962
3057.000000	5.906298
3056.000000	5.987245
3055.000000	6.066232
3054.000000	6.142213
3053.000000	6.216050
3052.000000	6.288822
3051.000000	6.361071
3050.000000	6.433519
3049.000000	6.506000
3048.000000	6.575947
3047.000000	6.640400
3046.000000	6.699637
3045.000000	6.756444
3044.000000	6.812304
3043.000000	6.867082
3042.000000	6.921834
3041.000000	6.978555
3040.000000	7.036785
3039.000000	7.093412
3038.000000	7.146462
3037.000000	7.196781
3036.000000	7.246299
3035.000000	7.297166
3034.000000	7.352320
3033.000000	7.413748
3032.000000	7.479761
3031.000000	7.546621
3030.000000	7.612810
3029.000000	7.679242
3028.000000	7.745748
3027.000000	7.810830
3026.000000	7.875130
3025.000000	7.941794
3024.000000	8.012608
3023.000000	8.086307
3022.000000	8.161242
3021.000000	8.237156
3020.000000	8.313756
3019.000000	8.390066
3018.000000	8.465904
3017.000000	8.542049
3016.000000	8.618691
3015.000000	8.695619
3014.000000	8.774039
3013.000000	8.856036
3012.000000	8.941992
3011.000000	9.030265
3010.000000	9.119078
3009.000000	9.206895
3008.000000	9.291359
3007.000000	9.370331
3006.000000	9.443745
3005.000000	9.512482
3004.000000	9.575191
3003.000000	9.627625
3002.000000	9.664678
3001.000000	9.678664
3000.000000	9.654365
2999.000000	9.566699
2998.000000	9.389232
2997.000000	9.115348
2996.000000	8.780857
2995.000000	8.467644
2994.000000	8.270871
2993.000000	8.247937
2992.000000	8.387524
2991.000000	8.626968
2990.000000	8.895848
2989.000000	9.146759
2988.000000	9.359526
2987.000000	9.532062
2986.000000	9.673226
2985.000000	9.794715
2984.000000	9.904261
2983.000000	10.003418
2982.000000	10.091024
2981.000000	10.163205
2980.000000	10.209271
2979.000000	10.211305
2978.000000	10.152902
2977.000000	10.033441
2976.000000	9.878507
2975.000000	9.739018
2974.000000	9.672203
2973.000000	9.712750
2972.000000	9.855310
2971.000000	10.063500
2970.000000	10.294705
2969.000000	10.517154
2968.000000	10.712746
2967.000000	10.873985
2966.000000	11.001935
2965.000000	11.100972
2964.000000	11.173228
2963.000000	11.216336
2962.000000	11.224851
2961.000000	11.187738
2960.000000	11.080994
2959.000000	10.866703
2958.000000	10.505001
2957.000000	9.983170
2956.000000	9.347944
2955.000000	8.717142
2954.000000	8.241488
2953.000000	8.027251
2952.000000	8.075885
2951.000000	8.291838
2950.000000	8.549964
2949.000000	8.760379
2948.000000	8.895152
2947.000000	8.977471
2946.000000	9.055391
2945.000000	9.171375
2944.000000	9.341209
2943.000000	9.553834
2942.000000	9.787056
2941.000000	10.022074
2940.000000	10.247975
2939.000000	10.461941
2938.000000	10.669268
2937.000000	10.878548
2936.000000	11.094136
2935.000000	11.314023
2934.000000	11.534155
2933.000000	11.750851
2932.000000	11.959582
2931.000000	12.156450
2930.000000	12.341459
2929.000000	12.516810
2928.000000	12.681723
2927.000000	12.832835
2926.000000	12.969613
2925.000000	13.094882
2924.000000	13.210294
2923.000000	13.315250
2922.000000	13.410263
2921.000000	13.496949
2920.000000	13.574467
2919.000000	13.640241
2918.000000	13.694042
2917.000000	13.737738
2916.000000	13.771672
2915.000000	13.795450
2914.000000	13.812226
2913.000000	13.827685
2912.000000	13.844532
2911.000000	13.861446
2910.000000	13.877168
2909.000000	13.891932
2908.000000	13.904841
2907.000000	13.914121
2906.000000	13.920622
2905.000000	13.927716
2904.000000	13.937349
2903.000000	13.949149
2902.000000	13.963445
2901.000000	13.981657
2900.000000	14.003288
2899.000000	14.025480
2898.000000	14.045686
2897.000000	14.061791
2896.000000	14.070194
2895.000000	14.067389
2894.000000	14.054010
2893.000000	14.034480
2892.000000	14.012603
2891.000000	13.990377
2890.000000	13.970450
2889.000000	13.956097
2888.000000	13.948260
2887.000000	13.945882
2886.000000	13.949323
2885.000000	13.960373
2884.000000	13.978921
2883.000000	14.002745
2882.000000	14.030705
2881.000000	14.062888
2880.000000	14.097382
2879.000000	14.129686
2878.000000	14.155505
2877.000000	14.171243
2876.000000	14.172526
2875.000000	14.156564
2874.000000	14.126670
2873.000000	14.090908
2872.000000	14.055060
2871.000000	14.019746
2870.000000	13.985386
2869.000000	13.957833
2868.000000	13.948384
2867.000000	13.970216
2866.000000	14.034175
2865.000000	14.143373
2864.000000	14.290156
2863.000000	14.460110
2862.000000	14.639498
2861.000000	14.818151
2860.000000	14.988187
2859.000000	15.144322
2858.000000	15.285671
2857.000000	15.413858
2856.000000	15.528627
2855.000000	15.628260
2854.000000	15.713288
2853.000000	15.786508
2852.000000	15.849760
2851.000000	15.903936
2850.000000	15.951901
2849.000000	15.998202
2848.000000	16.045715
2847.000000	16.095076
2846.000000	16.147049
2845.000000	16.202219
2844.000000	16.258755
2843.000000	16.313481
2842.000000	16.365282
2841.000000	16.415280
2840.000000	16.464303
2839.000000	16.512845
2838.000000	16.562746
2837.000000	16.615842
2836.000000	16.671112
2835.000000	16.725927
2834.000000	16.779754
2833.000000	16.833987
2832.000000	16.888593
2831.000000	16.941968
2830.000000	16.993878
2829.000000	17.045681
2828.000000	17.097683
2827.000000	17.148980
2826.000000	17.199734
2825.000000	17.250915
2824.000000	17.301953
2823.000000	17.351204
2822.000000	17.398553
2821.000000	17.444965
2820.000000	17.489850
2819.000000	17.531692
2818.000000	17.571080
2817.000000	17.610316
2816.000000	17.649985
2815.000000	17.688478
2814.000000	17.724853
2813.000000	17.759698
2812.000000	17.793354
2811.000000	17.825892
2810.000000	17.858672
2809.000000	17.893286
2808.000000	17.928994
2807.000000	17.963588
2806.000000	17.996600
2805.000000	18.029263
2804.000000	18.061663
2803.000000	18.092682
2802.000000	18.122587
2801.000000	18.153037
2800.000000	18.184634
2799.000000	18.216932
2798.000000	18.250737
2797.000000	18.287710
2796.000000	18.327562
2795.000000	18.368117
2794.000000	18.408181
2793.000000	18.448134
2792.000000	18.487999
2791.000000	18.527304
2790.000000	18.566797
2789.000000	18.607830
2788.000000	18.650035
2787.000000	18.691761
2786.000000	18.732574
2785.000000	18.773210
2784.000000	18.813522
2783.000000	18.852841
2782.000000	18.892043
2781.000000	18.932757
2780.000000	18.974658
2779.000000	19.015797
2778.000000	19.055255
2777.000000	19.093293
2776.000000	19.129404
2775.000000	19.162674
2774.000000	19.193798
2773.000000	19.224442
2772.000000	19.254834
2771.000000	19.284240
2770.000000	19.313260
2769.000000	19.343170
2768.000000	19.373418
2767.000000	19.402102
2766.000000	19.428590
2765.000000	19.453253
2764.000000	19.475137
2763.000000	19.492583
2762.000000	19.505844
2761.000000	19.516629
2760.000000	19.525314
2759.000000	19.531055
2758.000000	19.534487
2757.000000	19.537813
2756.000000	19.542304
2755.000000	19.548098
2754.000000	19.556135
2753.000000	19.567839
2752.000000	19.583056
2751.000000	19.600620
2750.000000	19.620812
2749.000000	19.645021
2748.000000	19.673145
2747.000000	19.703726
2746.000000	19.736303
2745.000000	19.771126
2744.000000	19.806824
2743.000000	19.840647
2742.000000	19.870793
2741.000000	19.896403
2740.000000	19.915699
2739.000000	19.926691
2738.000000	19.929902
2737.000000	19.928552
2736.000000	19.926458
2735.000000	19.927827
2734.000000	19.938162
2733.000000	19.962153
2732.000000	20.000380
2731.000000	20.049752
2730.000000	20.106569
2729.000000	20.167349
2728.000000	20.227645
2727.000000	20.283338
2726.000000	20.333451
2725.000000	20.379458
2724.000000	20.422132
2723.000000	20.461182
2722.000000	20.497146
2721.000000	20.530956
2720.000000	20.561943
2719.000000	20.588628
2718.000000	20.611569
2717.000000	20.633414
2716.000000	20.656355
2715.000000	20.681616
2714.000000	20.710646
2713.000000	20.744170
2712.000000	20.780213
2711.000000	20.815312
2710.000000	20.847629
2709.000000	20.876975
2708.000000	20.902578
2707.000000	20.923276
2706.000000	20.939512
2705.000000	20.952936
2704.000000	20.964214
2703.000000	20.973287
2702.000000	20.981271
2701.000000	20.989675
2700.000000	20.998312
2699.000000	21.006229
2698.000000	21.014134
2697.000000	21.023700
2696.000000	21.035113
2695.000000	21.047815
2694.000000	21.063329
2693.000000	21.084761
2692.000000	21.113536
2691.000000	21.148800
2690.000000	21.189266
2689.000000	21.233175
2688.000000	21.277108
2687.000000	21.317478
2686.000000	21.353391
2685.000000	21.386055
2684.000000	21.415844
2683.000000	21.442167
2682.000000	21.465550
2681.000000	21.487018
2680.000000	21.505732
2679.000000	21.519696
2678.000000	21.528728
2677.000000	21.534889
2676.000000	21.540408
2675.000000	21.547431
2674.000000	21.559353
2673.000000	21.579751
2672.000000	21.609687
2671.000000	21.647876
2670.000000	21.692874
2669.000000	21.742956
2668.000000	21.794785
2667.000000	21.844599
2666.000000	21.890723
2665.000000	21.933184
2664.000000	21.971588
2663.000000	22.005649
2662.000000	22.036979
2661.000000	22.067776
2660.000000	22.098184
2659.000000	22.127222
2658.000000	22.155565
2657.000000	22.185083
2656.000000	22.216122
2655.000000	22.247619
2654.000000	22.279371
2653.000000	22.311581
2652.000000	22.342677
2651.000000	22.370024
2650.000000	22.392525
2649.000000	22.410464
2648.000000	22.423301
2647.000000	22.430319
2646.000000	22.433258
2645.000000	22.435880
2644.000000	22.441200
2643.000000	22.451171
2642.000000	22.468209
2641.000000	22.494208
2640.000000	22.527972
2639.000000	22.565776
2638.000000	22.604561
2637.000000	22.642643
2636.000000	22.678029
2635.000000	22.708695
2634.000000	22.734312
2633.000000	22.755406
2632.000000	22.771052
2631.000000	22.779780
2630.000000	22.782675
2629.000000	22.783811
2628.000000	22.787847
2627.000000	22.798710
2626.000000	22.819598
2625.000000	22.851472
2624.000000	22.891441
2623.000000	22.934826
2622.000000	22.978714
2621.000000	23.021864
2620.000000	23.062438
2619.000000	23.098368
2618.000000	23.129517
2617.000000	23.157073
2616.000000	23.181117
2615.000000	23.200867
2614.000000	23.216972
2613.000000	23.231209
2612.000000	23.244090
2611.000000	23.255132
2610.000000	23.264901
2609.000000	23.274571
2608.000000	23.283764
2607.000000	23.290875
2606.000000	23.295458
2605.000000	23.298066
2604.000000	23.298270
2603.000000	23.295213
2602.000000	23.289925
2601.000000	23.285066
2600.000000	23.282534
2599.000000	23.283241
2598.000000	23.288690
2597.000000	23.300480
2596.000000	23.318203
2595.000000	23.339926
2594.000000	23.364475
2593.000000	23.391279
2592.000000	23.418751
2591.000000	23.444879
2590.000000	23.469283
2589.000000	23.492832
2588.000000	23.515647
2587.000000	23.537469
2586.000000	23.559211
2585.000000	23.581852
2584.000000	23.604237
2583.000000	23.624253
2582.000000	23.641911
2581.000000	23.659339
2580.000000	23.678197
2579.000000	23.699063
2578.000000	23.722726
2577.000000	23.749799
2576.000000	23.779253
2575.000000	23.809332
2574.000000	23.839710
2573.000000	23.870979
2572.000000	23.902782
2571.000000	23.934269
2570.000000	23.965671
2569.000000	23.997396
2568.000000	24.028215
2567.000000	24.056341
2566.000000	24.081727
2565.000000	24.105415
2564.000000	24.127423
2563.000000	24.147486
2562.000000	24.166956
2561.000000	24.187635
2560.000000	24.209301
2559.000000	24.230553
2558.000000	24.251546
2557.000000	24.273722
2556.000000	24.297534
2555.000000	24.322646
2554.000000	24.349790
2553.000000	24.379964
2552.000000	24.412319
2551.000000	24.445091
2550.000000	24.478142
2549.000000	24.512511
2548.000000	24.547908
2547.000000	24.582882
2546.000000	24.616982
2545.000000	24.650571
2544.000000	24.682922
2543.000000	24.712630
2542.000000	24.739473
2541.000000	24.763769
2540.000000	24.784586
2539.000000	24.800449
2538.000000	24.811507
2537.000000	24.819022
2536.000000	24.823256
2535.000000	24.824247
2534.000000	24.823913
2533.000000	24.825299
2532.000000	24.830129
2531.000000	24.839059
2530.000000	24.853590
2529.000000	24.875400
2528.000000	24.904021
2527.000000	24.937162
2526.000000	24.973086
2525.000000	25.010524
2524.000000	25.047129
2523.000000	25.080325
2522.000000	25.109431
2521.000000	25.135098
2520.000000	25.157185
2519.000000	25.174964
2518.000000	25.188657
2517.000000	25.198777
2516.000000	25.204215
2515.000000	25.203425
2514.000000	25.196736
2513.000000	25.185571
2512.000000	25.170396
2511.000000	25.151383
2510.000000	25.130740
2509.000000	25.111885
2508.000000	25.096530
2507.000000	25.084651
2506.000000	25.076659
2505.000000	25.073280
2504.000000	25.073831
2503.000000	25.077096
2502.000000	25.083486
2501.000000	25.094541
2500.000000	25.110451
2499.000000	25.130076
2498.000000	25.152946
2497.000000	25.178729
2496.000000	25.205517
2495.000000	25.230856
2494.000000	25.254280
2493.000000	25.276988
2492.000000	25.299478
2491.000000	25.321541
2490.000000	25.343851
2489.000000	25.367158
2488.000000	25.390302
2487.000000	25.411278
2486.000000	25.430118
2485.000000	25.448905
2484.000000	25.469408
2483.000000	25.492645
2482.000000	25.519933
2481.000000	25.552092
2480.000000	25.587860
2479.000000	25.624909
2478.000000	25.661947
2477.000000	25.697951
2476.000000	25.730437
2475.000000	25.757056
2474.000000	25.778636
2473.000000	25.798658
2472.000000	25.820212
2471.000000	25.845117
2470.000000	25.874876
2469.000000	25.909808
2468.000000	25.947372
2467.000000	25.983598
2466.000000	26.016032
2465.000000	26.043666
2464.000000	26.065060
2463.000000	26.078663
2462.000000	26.084625
2461.000000	26.084184
2460.000000	26.077657
2459.000000	26.065460
2458.000000	26.050219
2457.000000	26.035856
2456.000000	26.024885
2455.000000	26.018433
2454.000000	26.018131
2453.000000	26.025508
2452.000000	26.039964
2451.000000	26.059628
2450.000000	26.084187
2449.000000	26.114360
2448.000000	26.149289
2447.000000	26.186553
2446.000000	26.224278
2445.000000	26.261380
2444.000000	26.296020
2443.000000	26.326354
2442.000000	26.352631
2441.000000	26.376634
2440.000000	26.399332
2439.000000	26.420883
2438.000000	26.442226
2437.000000	26.464465
2436.000000	26.487187
2435.000000	26.509350
2434.000000	26.531448
2433.000000	26.554591
2432.000000	26.577736
2431.000000	26.598007
2430.000000	26.613223
2429.000000	26.622408
2428.000000	26.624464
2427.000000	26.618639
2426.000000	26.606464
2425.000000	26.591053
2424.000000	26.574872
2423.000000	26.559690
2422.000000	26.547894
2421.000000	26.541650
2420.000000	26.540863
2419.000000	26.543978
2418.000000	26.550391
2417.000000	26.560440
2416.000000	26.573528
2415.000000	26.588649
2414.000000	26.606153
2413.000000	26.626785
2412.000000	26.649499
2411.000000	26.672033
2410.000000	26.693334
2409.000000	26.713401
2408.000000	26.731488
2407.000000	26.746695
2406.000000	26.759855
2405.000000	26.772604
2404.000000	26.784882
2403.000000	26.795517
2402.000000	26.804474
2401.000000	26.812312
2400.000000	26.817671
2399.000000	26.817558
2398.000000	26.810204
2397.000000	26.795136
2396.000000	26.771114
2395.000000	26.736170
2394.000000	26.689461
2393.000000	26.631561
2392.000000	26.562307
2391.000000	26.481021
2390.000000	26.388587
2389.000000	26.287008
2388.000000	26.177514
2387.000000	26.060371
2386.000000	25.937049
2385.000000	25.810518
2384.000000	25.683411
2383.000000	25.558179
2382.000000	25.438521
2381.000000	25.328462
2380.000000	25.229711
2379.000000	25.142100
2378.000000	25.066383
2377.000000	25.004404
2376.000000	24.956798
2375.000000	24.922976
2374.000000	24.904109
2373.000000	24.902471
2372.000000	24.917367
2371.000000	24.944188
2370.000000	24.977973
2369.000000	25.014973
2368.000000	25.050472
2367.000000	25.079204
2366.000000	25.099116
2365.000000	25.110585
2364.000000	25.113374
2363.000000	25.105806
2362.000000	25.088716
2361.000000	25.069507
2360.000000	25.056131
2359.000000	25.053035
2358.000000	25.060782
2357.000000	25.072992
2356.000000	25.082112
2355.000000	25.084923
2354.000000	25.089194
2353.000000	25.105219
2352.000000	25.132520
2351.000000	25.162248
2350.000000	25.182200
2349.000000	25.184146
2348.000000	25.170157
2347.000000	25.156971
2346.000000	25.172358
2345.000000	25.227481
2344.000000	25.307818
2343.000000	25.384035
2342.000000	25.434169
2341.000000	25.450458
2340.000000	25.434117
2339.000000	25.397425
2338.000000	25.357959
2337.000000	25.332821
2336.000000	25.328590
2335.000000	25.345047
2334.000000	25.377878
2333.000000	25.424832
2332.000000	25.479192
2331.000000	25.538753
2330.000000	25.601851
2329.000000	25.669361
2328.000000	25.735766
2327.000000	25.791327
2326.000000	25.832007
2325.000000	25.860227
2324.000000	25.884907
2323.000000	25.912758
2322.000000	25.946139
2321.000000	25.983176
2320.000000	26.017759
2319.000000	26.046504
2318.000000	26.065292
2317.000000	26.071411
2316.000000	26.058505
2315.000000	26.025477
2314.000000	25.975628
2313.000000	25.915833
2312.000000	25.847893
2311.000000	25.771589
2310.000000	25.686480
2309.000000	25.594628
2308.000000	25.496825
2307.000000	25.395281
2306.000000	25.294714
2305.000000	25.202804
2304.000000	25.126379
2303.000000	25.073537
2302.000000	25.053527
2301.000000	25.074794
2300.000000	25.138401
2299.000000	25.238214
2298.000000	25.363718
2297.000000	25.502245
2296.000000	25.639384
2295.000000	25.763063
2294.000000	25.867120
2293.000000	25.950268
2292.000000	26.012630
2291.000000	26.055258
2290.000000	26.080998
2289.000000	26.092133
2288.000000	26.086999
2287.000000	26.061105
2286.000000	26.011005
2285.000000	25.934420
2284.000000	25.829957
2283.000000	25.699741
2282.000000	25.554501
2281.000000	25.412398
2280.000000	25.292233
2279.000000	25.207457
2278.000000	25.163861
2277.000000	25.159386
2276.000000	25.186134
2275.000000	25.237835
2274.000000	25.314416
2273.000000	25.419233
2272.000000	25.551681
2271.000000	25.705309
2270.000000	25.871683
2269.000000	26.042268
2268.000000	26.208920
2267.000000	26.365565
2266.000000	26.509983
2265.000000	26.641887
2264.000000	26.760239
2263.000000	26.864478
2262.000000	26.956870
2261.000000	27.040793
2260.000000	27.117443
2259.000000	27.186692
2258.000000	27.250094
2257.000000	27.310857
2256.000000	27.371713
2255.000000	27.435472
2254.000000	27.506393
2253.000000	27.588196
2252.000000	27.680793
2251.000000	27.781126
2250.000000	27.886241
2249.000000	27.993534
2248.000000	28.099482
2247.000000	28.201258
2246.000000	28.298927
2245.000000	28.394191
2244.000000	28.487175
2243.000000	28.576767
2242.000000	28.662836
2241.000000	28.745779
2240.000000	28.824540
2239.000000	28.897470
2238.000000	28.964556
2237.000000	29.026574
2236.000000	29.082987
2235.000000	29.132689
2234.000000	29.176369
2233.000000	29.215934
2232.000000	29.252066
2231.000000	29.284347
2230.000000	29.312917
2229.000000	29.338033
2228.000000	29.358635
2227.000000	29.373338
2226.000000	29.382516
2225.000000	29.387526
2224.000000	29.388746
2223.000000	29.386414
2222.000000	29.382586
2221.000000	29.380166
2220.000000	29.380312
2219.000000	29.382715
2218.000000	29.387584
2217.000000	29.395218
2216.000000	29.404151
2215.000000	29.411808
2214.000000	29.416393
2213.000000	29.416349
2212.000000	29.408862
2211.000000	29.391562
2210.000000	29.365804
2209.000000	29.336843
2208.000000	29.311156
2207.000000	29.294525
2206.000000	29.290651
2205.000000	29.298364
2204.000000	29.310209
2203.000000	29.316291
2202.000000	29.310235
2201.000000	29.291776
2200.000000	29.266128
2199.000000	29.244030
2198.000000	29.240177
2197.000000	29.267001
2196.000000	29.327736
2195.000000	29.416028
2194.000000	29.521213
2193.000000	29.632451
2192.000000	29.740398
2191.000000	29.838865
2190.000000	29.925780
2189.000000	30.000940
2188.000000	30.063146
2187.000000	30.111267
2186.000000	30.146706
2185.000000	30.172887
2184.000000	30.192406
2183.000000	30.206506
2182.000000	30.216398
2181.000000	30.223190
2180.000000	30.226974
2179.000000	30.227940
2178.000000	30.228062
2177.000000	30.229803
2176.000000	30.233822
2175.000000	30.239551
2174.000000	30.247271
2173.000000	30.257832
2172.000000	30.271067
2171.000000	30.286632
2170.000000	30.305655
2169.000000	30.329611
2168.000000	30.358015
2167.000000	30.388959
2166.000000	30.421195
2165.000000	30.453932
2164.000000	30.485647
2163.000000	30.515397
2162.000000	30.544789
2161.000000	30.576637
2160.000000	30.612050
2159.000000	30.650438
2158.000000	30.691521
2157.000000	30.735379
2156.000000	30.781238
2155.000000	30.828152
2154.000000	30.876378
2153.000000	30.926214
2152.000000	30.976042
2151.000000	31.022967
2150.000000	31.064703
2149.000000	31.099471
2148.000000	31.124882
2147.000000	31.138987
2146.000000	31.141937
2145.000000	31.135267
2144.000000	31.120242
2143.000000	31.098487
2142.000000	31.073023
2141.000000	31.046670
2140.000000	31.019858
2139.000000	30.991254
2138.000000	30.960051
2137.000000	30.926573
2136.000000	30.892517
2135.000000	30.863042
2134.000000	30.847191
2133.000000	30.853656
2132.000000	30.885621
2131.000000	30.940453
2130.000000	31.012882
2129.000000	31.096235
2128.000000	31.182187
2127.000000	31.262682
2126.000000	31.332553
2125.000000	31.388900
2124.000000	31.429291
2123.000000	31.452213
2122.000000	31.458557
2121.000000	31.450873
2120.000000	31.431799
2119.000000	31.404853
2118.000000	31.375698
2117.000000	31.350210
2116.000000	31.331292
2115.000000	31.318925
2114.000000	31.312050
2113.000000	31.308753
2112.000000	31.305754
2111.000000	31.300169
2110.000000	31.291538
2109.000000	31.280574
2108.000000	31.266929
2107.000000	31.250292
2106.000000	31.232982
2105.000000	31.219529
2104.000000	31.214275
2103.000000	31.220800
2102.000000	31.242441
2101.000000	31.280605
2100.000000	31.332715
2099.000000	31.394026
2098.000000	31.460499
2097.000000	31.528800
2096.000000	31.594653
2095.000000	31.653094
2094.000000	31.700298
2093.000000	31.732999
2092.000000	31.747204
2091.000000	31.740155
2090.000000	31.713868
2089.000000	31.675528
2088.000000	31.635167
2087.000000	31.604124
2086.000000	31.593667
2085.000000	31.611689
2084.000000	31.659691
2083.000000	31.733694
2082.000000	31.827482
2081.000000	31.933747
2080.000000	32.044128
2079.000000	32.151654
2078.000000	32.252979
2077.000000	32.347066
2076.000000	32.432979
2075.000000	32.509889
2074.000000	32.578608
2073.000000	32.640401
2072.000000	32.695225
2071.000000	32.742275
2070.000000	32.781192
2069.000000	32.812298
2068.000000	32.835860
2067.000000	32.852975
2066.000000	32.866537
2065.000000	32.880619
2064.000000	32.898641
2063.000000	32.922479
2062.000000	32.952296
2061.000000	32.986270
2060.000000	33.021635
2059.000000	33.057134
2058.000000	33.093621
2057.000000	33.131593
2056.000000	33.169822
2055.000000	33.207288
2054.000000	33.244891
2053.000000	33.283644
2052.000000	33.322823
2051.000000	33.361239
2050.000000	33.398521
2049.000000	33.434577
2048.000000	33.468892
2047.000000	33.501442
2046.000000	33.533483
2045.000000	33.566633
2044.000000	33.601160
2043.000000	33.636390
2042.000000	33.671921
2041.000000	33.707405
2040.000000	33.741833
2039.000000	33.774288
2038.000000	33.804826
2037.000000	33.833866
2036.000000	33.861566
2035.000000	33.888598
2034.000000	33.916412
2033.000000	33.945762
2032.000000	33.975821
2031.000000	34.006026
2030.000000	34.037640
2029.000000	34.072018
2028.000000	34.108966
2027.000000	34.147233
2026.000000	34.185804
2025.000000	34.223297
2024.000000	34.256806
2023.000000	34.283577
2022.000000	34.301986
2021.000000	34.312510
2020.000000	34.316721
2019.000000	34.316975
2018.000000	34.316454
2017.000000	34.318916
2016.000000	34.327653
2015.000000	34.344387
2014.000000	34.368247
2013.000000	34.395573
2012.000000	34.422140
2011.000000	34.446519
2010.000000	34.470454
2009.000000	34.495749
2008.000000	34.522540
2007.000000	34.550704
2006.000000	34.581187
2005.000000	34.614400
2004.000000	34.649392
2003.000000	34.686526
2002.000000	34.727364
2001.000000	34.773140
2000.000000	34.822042
1999.000000	34.871448
1998.000000	34.919801
1997.000000	34.963558
1996.000000	34.999773
1995.000000	35.028242
1994.000000	35.049795
1993.000000	35.062752
1992.000000	35.066214
1991.000000	35.064680
1990.000000	35.064498
1989.000000	35.064975
1988.000000	35.058073
1987.000000	35.038824
1986.000000	35.012120
1985.000000	34.987425
1984.000000	34.971142
1983.000000	34.967045
1982.000000	34.978541
1981.000000	35.005646
1980.000000	35.040696
1979.000000	35.073160
1978.000000	35.097329
1977.000000	35.112233
1976.000000	35.121210
1975.000000	35.131279
1974.000000	35.151887
1973.000000	35.189033
1972.000000	35.242272
1971.000000	35.307348
1970.000000	35.379971
1969.000000	35.454987
1968.000000	35.525790
1967.000000	35.588243
1966.000000	35.643780
1965.000000	35.695460
1964.000000	35.741819
1963.000000	35.777618
1962.000000	35.799847
1961.000000	35.809709
1960.000000	35.808136
1959.000000	35.794066
1958.000000	35.766838
1957.000000	35.727626
1956.000000	35.678163
1955.000000	35.620105
1954.000000	35.557204
1953.000000	35.494646
1952.000000	35.437215
1951.000000	35.388852
1950.000000	35.354890
1949.000000	35.342299
1948.000000	35.352591
1947.000000	35.383701
1946.000000	35.435573
1945.000000	35.509129
1944.000000	35.599681
1943.000000	35.696890
1942.000000	35.794923
1941.000000	35.896757
1940.000000	36.006105
1939.000000	36.119023
1938.000000	36.226982
1937.000000	36.326566
1936.000000	36.420396
1935.000000	36.509414
1934.000000	36.589150
1933.000000	36.655020
1932.000000	36.707120
1931.000000	36.746000
1930.000000	36.771146
1929.000000	36.783973
1928.000000	36.784311
1927.000000	36.773961
1926.000000	36.756568
1925.000000	36.736488
1924.000000	36.714835
1923.000000	36.688716
1922.000000	36.666614
1921.000000	36.661946
1920.000000	36.673504
1919.000000	36.679531
1918.000000	36.661637
1917.000000	36.629210
1916.000000	36.606587
1915.000000	36.599602
1914.000000	36.594195
1913.000000	36.580438
1912.000000	36.565888
1911.000000	36.561215
1910.000000	36.567914
1909.000000	36.583339
1908.000000	36.608106
1907.000000	36.646700
1906.000000	36.696949
1905.000000	36.752181
1904.000000	36.807514
1903.000000	36.855718
1902.000000	36.892289
1901.000000	36.913501
1900.000000	36.918686
1899.000000	36.914487
1898.000000	36.911114
1897.000000	36.918017
1896.000000	36.941334
1895.000000	36.979851
1894.000000	37.031931
1893.000000	37.097810
1892.000000	37.175510
1891.000000	37.255883
1890.000000	37.327940
1889.000000	37.390951
1888.000000	37.455219
1887.000000	37.527688
1886.000000	37.602673
1885.000000	37.670384
1884.000000	37.730167
1883.000000	37.788833
1882.000000	37.849582
1881.000000	37.907915
1880.000000	37.959044
1879.000000	38.005769
1878.000000	38.050885
1877.000000	38.093006
1876.000000	38.132327
1875.000000	38.167742
1874.000000	38.196343
1873.000000	38.221525
1872.000000	38.251468
1871.000000	38.286591
1870.000000	38.315525
1869.000000	38.330523
1868.000000	38.340915
1867.000000	38.357595
1866.000000	38.371514
1865.000000	38.361474
1864.000000	38.317845
1863.000000	38.251209
1862.000000	38.181033
1861.000000	38.123908
1860.000000	38.092979
1859.000000	38.099832
1858.000000	38.148743
1857.000000	38.230684
1856.000000	38.330091
1855.000000	38.433878
1854.000000	38.533240
1853.000000	38.623520
1852.000000	38.704779
1851.000000	38.786678
1850.000000	38.873331
1849.000000	38.956284
1848.000000	39.039858
1847.000000	39.137300
1846.000000	39.243270
1845.000000	39.321936
1844.000000	39.348669
1843.000000	39.347502
1842.000000	39.360895
1841.000000	39.392412
1840.000000	39.412020
1839.000000	39.405637
1838.000000	39.389009
1837.000000	39.387100
1836.000000	39.406274
1835.000000	39.435516
1834.000000	39.474544
1833.000000	39.532451
1832.000000	39.609735
1831.000000	39.693231
1830.000000	39.765585
1829.000000	39.825998
1828.000000	39.891244
1827.000000	39.959779
1826.000000	40.005617
1825.000000	40.014292
1824.000000	40.013583
1823.000000	40.043706
1822.000000	40.108927
1821.000000	40.183728
1820.000000	40.253934
1819.000000	40.327772
1818.000000	40.410351
1817.000000	40.495999
1816.000000	40.578546
1815.000000	40.658194
1814.000000	40.738096
1813.000000	40.810885
1812.000000	40.871148
1811.000000	40.921696
1810.000000	40.966312
1809.000000	41.010041
1808.000000	41.052841
1807.000000	41.094603
1806.000000	41.136865
1805.000000	41.179145
1804.000000	41.220609
1803.000000	41.261615
1802.000000	41.302436
1801.000000	41.337316
1800.000000	41.366528
1799.000000	41.394200
1798.000000	41.413944
1797.000000	41.422984
1796.000000	41.429631
1795.000000	41.447317
1794.000000	41.468320
1793.000000	41.464365
1792.000000	41.433919
1791.000000	41.414886
1790.000000	41.432215
1789.000000	41.474554
1788.000000	41.519232
1787.000000	41.559703
1786.000000	41.597973
1785.000000	41.634929
1784.000000	41.673077
1783.000000	41.721201
1782.000000	41.780208
1781.000000	41.824997
1780.000000	41.845719
1779.000000	41.863261
1778.000000	41.888938
1777.000000	41.918961
1776.000000	41.953537
1775.000000	42.017662
1774.000000	42.115756
1773.000000	42.209601
1772.000000	42.278229
1771.000000	42.354405
1770.000000	42.459374
1769.000000	42.559441
1768.000000	42.611886
1767.000000	42.619702
1766.000000	42.633429
1765.000000	42.684536
1764.000000	42.751769
1763.000000	42.798339
1762.000000	42.814523
1761.000000	42.820363
1760.000000	42.841670
1759.000000	42.878131
1758.000000	42.903152
1757.000000	42.891021
1756.000000	42.849974
1755.000000	42.836685
1754.000000	42.878279
1753.000000	42.937559
1752.000000	42.966014
1751.000000	42.966232
1750.000000	42.982108
1749.000000	43.033371
1748.000000	43.082394
1747.000000	43.092680
1746.000000	43.068888
1745.000000	43.017168
1744.000000	42.946385
1743.000000	42.872187
1742.000000	42.806030
1741.000000	42.737236
1740.000000	42.639567
1739.000000	42.524724
1738.000000	42.459448
1737.000000	42.487261
1736.000000	42.562695
1735.000000	42.596382
1734.000000	42.550189
1733.000000	42.493173
1732.000000	42.501784
1731.000000	42.546685
1730.000000	42.556121
1729.000000	42.510306
1728.000000	42.441066
1727.000000	42.390396
1726.000000	42.359262
1725.000000	42.319887
1724.000000	42.269114
1723.000000	42.220670
1722.000000	42.189940
1721.000000	42.189593
1720.000000	42.208637
1719.000000	42.215763
1718.000000	42.183908
1717.000000	42.134895
1716.000000	42.110196
1715.000000	42.101296
1714.000000	42.069392
1713.000000	42.001407
1712.000000	41.917860
1711.000000	41.845151
1710.000000	41.790067
1709.000000	41.742251
1708.000000	41.702110
1707.000000	41.674212
1706.000000	41.630149
1705.000000	41.550206
1704.000000	41.480408
1703.000000	41.473145
1702.000000	41.487718
1701.000000	41.398204
1700.000000	41.183510
1699.000000	41.019265
1698.000000	41.001687
1697.000000	40.988482
1696.000000	40.824439
1695.000000	40.535583
1694.000000	40.278365
1693.000000	40.120584
1692.000000	39.987731
1691.000000	39.811701
1690.000000	39.600104
1689.000000	39.398344
1688.000000	39.241789
1687.000000	39.132497
1686.000000	39.006974
1685.000000	38.771126
1684.000000	38.438660
1683.000000	38.153576
1682.000000	37.965994
1681.000000	37.774354
1680.000000	37.514520
1679.000000	37.228500
1678.000000	36.979407
1677.000000	36.751660
1676.000000	36.476525
1675.000000	36.149440
1674.000000	35.849825
1673.000000	35.617511
1672.000000	35.410419
1671.000000	35.166389
1670.000000	34.861119
1669.000000	34.519362
1668.000000	34.181491
1667.000000	33.876728
1666.000000	33.598738
1665.000000	33.315175
1664.000000	32.994995
1663.000000	32.642314
1662.000000	32.299255
1661.000000	31.983160
1660.000000	31.675865
1659.000000	31.370443
1658.000000	31.075714
1657.000000	30.816420
1656.000000	30.607635
1655.000000	30.415921
1654.000000	30.124817
1653.000000	29.681164
1652.000000	29.226376
1651.000000	28.877401
1650.000000	28.598790
1649.000000	28.286855
1648.000000	27.851349
1647.000000	27.295415
1646.000000	26.708250
1645.000000	26.153509
1644.000000	25.625971
1643.000000	25.112782
1642.000000	24.612354
1641.000000	24.124632
1640.000000	23.679486
1639.000000	23.325276
1638.000000	23.072269
1637.000000	22.883526
1636.000000	22.731316
1635.000000	22.640940
1634.000000	22.620711
1633.000000	22.641676
1632.000000	22.683349
1631.000000	22.746287
1630.000000	22.845908
1629.000000	22.983959
1628.000000	23.149639
1627.000000	23.333160
1626.000000	23.532772
1625.000000	23.749279
1624.000000	23.989220
1623.000000	24.257700
1622.000000	24.540434
1621.000000	24.815454
1620.000000	25.087624
1619.000000	25.391321
1618.000000	25.764948
1617.000000	26.218538
1616.000000	26.700355
1615.000000	27.145889
1614.000000	27.541127
1613.000000	27.901901
1612.000000	28.236949
1611.000000	28.543905
1610.000000	28.812589
1609.000000	29.020600
1608.000000	29.134983
1607.000000	29.124929
1606.000000	28.969472
1605.000000	28.633070
1604.000000	28.070561
1603.000000	27.240999
1602.000000	26.106766
1601.000000	24.621831
1600.000000	22.706099
1599.000000	20.290475
1598.000000	17.392516
1597.000000	14.185254
1596.000000	11.031210
1595.000000	8.418580
1594.000000	6.724152
1593.000000	5.977483
1592.000000	5.933003
1591.000000	6.323132
1590.000000	6.987598
1589.000000	7.813215
1588.000000	8.679271
1587.000000	9.489366
1586.000000	10.216568
1585.000000	10.920348
1584.000000	11.689090
1583.000000	12.549317
1582.000000	13.420735
1581.000000	14.200519
1580.000000	14.895696
1579.000000	15.624714
1578.000000	16.495639
1577.000000	17.493544
1576.000000	18.446589
1575.000000	19.169472
1574.000000	19.649868
1573.000000	19.981347
1572.000000	20.246106
1571.000000	20.518301
1570.000000	20.862225
1569.000000	21.289088
1568.000000	21.768321
1567.000000	22.298295
1566.000000	22.887877
1565.000000	23.499306
1564.000000	24.070669
1563.000000	24.588485
1562.000000	25.091570
1561.000000	25.622969
1560.000000	26.235757
1559.000000	26.977260
1558.000000	27.742047
1557.000000	28.361405
1556.000000	28.848413
1555.000000	29.295933
1554.000000	29.734183
1553.000000	30.150698
1552.000000	30.549555
1551.000000	30.946855
1550.000000	31.335818
1549.000000	31.701370
1548.000000	32.029522
1547.000000	32.325479
1546.000000	32.601288
1545.000000	32.865431
1544.000000	33.131167
1543.000000	33.411793
1542.000000	33.707392
1541.000000	34.009097
1540.000000	34.293254
1539.000000	34.515651
1538.000000	34.663974
1537.000000	34.797138
1536.000000	34.964825
1535.000000	35.166629
1534.000000	35.394537
1533.000000	35.637053
1532.000000	35.883298
1531.000000	36.113151
1530.000000	36.315534
1529.000000	36.503001
1528.000000	36.687594
1527.000000	36.875827
1526.000000	37.069409
1525.000000	37.266847
1524.000000	37.474718
1523.000000	37.689743
1522.000000	37.885944
1521.000000	38.039694
1520.000000	38.160087
1519.000000	38.282796
1518.000000	38.413203
1517.000000	38.526380
1516.000000	38.615519
1515.000000	38.700592
1514.000000	38.794125
1513.000000	38.874414
1512.000000	38.927132
1511.000000	38.979125
1510.000000	39.074757
1509.000000	39.222592
1508.000000	39.395158
1507.000000	39.582706
1506.000000	39.771699
1505.000000	39.892785
1504.000000	39.937819
1503.000000	39.971356
1502.000000	40.019454
1501.000000	40.083619
1500.000000	40.168858
1499.000000	40.288696
1498.000000	40.440333
1497.000000	40.597751
1496.000000	40.733385
1495.000000	40.844473
1494.000000	40.962237
1493.000000	41.102314
1492.000000	41.252867
1491.000000	41.412698
1490.000000	41.607001
1489.000000	41.847984
1488.000000	42.101486
1487.000000	42.324469
1486.000000	42.514463
1485.000000	42.686983
1484.000000	42.849948
1483.000000	43.022993
1482.000000	43.210652
1481.000000	43.404525
1480.000000	43.599257
1479.000000	43.796010
1478.000000	43.992923
1477.000000	44.184189
1476.000000	44.380552
1475.000000	44.602977
1474.000000	44.857926
1473.000000	45.115753
1472.000000	45.348796
1471.000000	45.545945
1470.000000	45.699820
1469.000000	45.807929
1468.000000	45.878295
1467.000000	45.921358
1466.000000	45.911027
1465.000000	45.758967
1464.000000	45.391454
1463.000000	44.810323
1462.000000	44.042941
1461.000000	43.128368
1460.000000	42.121493
1459.000000	41.060641
1458.000000	39.909416
1457.000000	38.682339
1456.000000	37.555587
1455.000000	36.599016
1454.000000	35.628404
1453.000000	34.420426
1452.000000	32.936188
1451.000000	31.305976
1450.000000	29.601019
1449.000000	27.715880
1448.000000	25.568098
1447.000000	23.359370
1446.000000	21.530844
1445.000000	20.533170
1444.000000	20.687536
1443.000000	22.033135
1442.000000	24.218600
1441.000000	26.670356
1440.000000	28.910534
1439.000000	30.719956
1438.000000	32.074972
1437.000000	33.055352
1436.000000	33.814737
1435.000000	34.527120
1434.000000	35.300202
1433.000000	36.163362
1432.000000	37.086141
1431.000000	37.993889
1430.000000	38.816200
1429.000000	39.519898
1428.000000	40.092294
1427.000000	40.545552
1426.000000	40.927815
1425.000000	41.273402
1424.000000	41.589422
1423.000000	41.876682
1422.000000	42.149647
1421.000000	42.425970
1420.000000	42.704787
1419.000000	42.986685
1418.000000	43.283344
1417.000000	43.588381
1416.000000	43.864620
1415.000000	44.088882
1414.000000	44.280715
1413.000000	44.472515
1412.000000	44.669582
1411.000000	44.855286
1410.000000	45.025989
1409.000000	45.188917
1408.000000	45.328371
1407.000000	45.413966
1406.000000	45.436680
1405.000000	45.388473
1404.000000	45.253567
1403.000000	45.040975
1402.000000	44.796411
1401.000000	44.563712
1400.000000	44.356082
1399.000000	44.183058
1398.000000	44.060922
1397.000000	43.989934
1396.000000	43.953262
1395.000000	43.946635
1394.000000	43.961605
1393.000000	43.939863
1392.000000	43.809666
1391.000000	43.553226
1390.000000	43.220764
1389.000000	42.887667
1388.000000	42.618444
1387.000000	42.473111
1386.000000	42.504135
1385.000000	42.721513
1384.000000	43.096574
1383.000000	43.595035
1382.000000	44.184790
1381.000000	44.824586
1380.000000	45.453491
1379.000000	46.014705
1378.000000	46.483145
1377.000000	46.853314
1376.000000	47.102546
1375.000000	47.187184
1374.000000	47.059389
1373.000000	46.657247
1372.000000	45.875174
1371.000000	44.530015
1370.000000	42.371517
1369.000000	39.207706
1368.000000	35.181620
1367.000000	30.941180
1366.000000	27.410266
1365.000000	25.361064
1364.000000	25.152136
1363.000000	26.615625
1362.000000	29.098035
1361.000000	31.837307
1360.000000	34.366057
1359.000000	36.544646
1358.000000	38.388400
1357.000000	39.947973
1356.000000	41.268042
1355.000000	42.376489
1354.000000	43.296883
1353.000000	44.065962
1352.000000	44.721750
1351.000000	45.280884
1350.000000	45.751715
1349.000000	46.150028
1348.000000	46.494488
1347.000000	46.791909
1346.000000	47.047110
1345.000000	47.276037
1344.000000	47.495478
1343.000000	47.709352
1342.000000	47.919227
1341.000000	48.137374
1340.000000	48.373196
1339.000000	48.613211
1338.000000	48.828453
1337.000000	49.000752
1336.000000	49.130079
1335.000000	49.227904
1334.000000	49.316871
1333.000000	49.422967
1332.000000	49.554662
1331.000000	49.695781
1330.000000	49.823692
1329.000000	49.926028
1328.000000	49.993204
1327.000000	50.007212
1326.000000	49.946439
1325.000000	49.785226
1324.000000	49.485063
1323.000000	48.984289
1322.000000	48.212571
1321.000000	47.109604
1320.000000	45.615442
1319.000000	43.668510
1318.000000	41.259396
1317.000000	38.547664
1316.000000	35.948362
1315.000000	34.046761
1314.000000	33.295907
1313.000000	33.730754
1312.000000	34.983757
1311.000000	36.579462
1310.000000	38.218476
1309.000000	39.794498
1308.000000	41.267521
1307.000000	42.609900
1306.000000	43.826348
1305.000000	44.944193
1304.000000	45.963237
1303.000000	46.852251
1302.000000	47.595307
1301.000000	48.205502
1300.000000	48.688811
1299.000000	49.041978
1298.000000	49.280384
1297.000000	49.420951
1296.000000	49.442049
1295.000000	49.277800
1294.000000	48.834126
1293.000000	47.966021
1292.000000	46.507857
1291.000000	44.494076
1290.000000	42.381170
1289.000000	40.893254
1288.000000	40.498997
1287.000000	41.014557
1286.000000	41.772839
1285.000000	42.198193
1284.000000	42.161164
1283.000000	41.874384
1282.000000	41.616232
1281.000000	41.561368
1280.000000	41.750528
1279.000000	42.096245
1278.000000	42.400292
1277.000000	42.374523
1276.000000	41.651348
1275.000000	39.847085
1274.000000	36.831442
1273.000000	33.111924
1272.000000	29.910600
1271.000000	28.574837
1270.000000	29.692244
1269.000000	32.731375
1268.000000	36.507597
1267.000000	39.981824
1266.000000	42.687250
1265.000000	44.635202
1264.000000	46.023042
1263.000000	47.038711
1262.000000	47.816444
1261.000000	48.444155
1260.000000	48.968127
1259.000000	49.405736
1258.000000	49.774645
1257.000000	50.088623
1256.000000	50.348990
1255.000000	50.558007
1254.000000	50.731810
1253.000000	50.892730
1252.000000	51.051770
1251.000000	51.212981
1250.000000	51.385825
1249.000000	51.579034
1248.000000	51.788868
1247.000000	52.006643
1246.000000	52.232668
1245.000000	52.470341
1244.000000	52.711055
1243.000000	52.938383
1242.000000	53.143475
1241.000000	53.323369
1240.000000	53.469826
1239.000000	53.573959
1238.000000	53.640611
1237.000000	53.682604
1236.000000	53.703895
1235.000000	53.702107
1234.000000	53.680392
1233.000000	53.644049
1232.000000	53.587214
1231.000000	53.496508
1230.000000	53.366328
1229.000000	53.193066
1228.000000	52.960048
1227.000000	52.637669
1226.000000	52.190787
1225.000000	51.579135
1224.000000	50.748005
1223.000000	49.649585
1222.000000	48.276741
1221.000000	46.667885
1220.000000	44.897214
1219.000000	43.052833
1218.000000	41.212585
1217.000000	39.416010
1216.000000	37.651162
1215.000000	35.876586
1214.000000	34.052052
1213.000000	32.162705
1212.000000	30.234236
1211.000000	28.339732
1210.000000	26.582732
1209.000000	25.078104
1208.000000	23.930170
1207.000000	23.186073
1206.000000	22.795241
1205.000000	22.618866
1204.000000	22.530975
1203.000000	22.523227
1202.000000	22.707292
1201.000000	23.235064
1200.000000	24.177205
1199.000000	25.469046
1198.000000	26.952542
1197.000000	28.466556
1196.000000	29.925532
1195.000000	31.323494
1194.000000	32.697381
1193.000000	34.090389
1192.000000	35.525746
1191.000000	36.995416
1190.000000	38.465033
1189.000000	39.889134
1188.000000	41.221429
1187.000000	42.425685
1186.000000	43.482195
1185.000000	44.390310
1184.000000	45.160874
1183.000000	45.805026
1182.000000	46.338141
1181.000000	46.774520
1180.000000	47.122937
1179.000000	47.392476
1178.000000	47.598066
1177.000000	47.760519
1176.000000	47.895743
1175.000000	48.016277
1174.000000	48.139895
1173.000000	48.284183
1172.000000	48.454825
1171.000000	48.646570
1170.000000	48.855715
1169.000000	49.082212
1168.000000	49.320157
1167.000000	49.555989
1166.000000	49.776519
1165.000000	49.969549
1164.000000	50.119276
1163.000000	50.214725
1162.000000	50.267466
1161.000000	50.309959
1160.000000	50.373869
1159.000000	50.476711
1158.000000	50.625298
1157.000000	50.818632
1156.000000	51.044884
1155.000000	51.286575
1154.000000	51.531840
1153.000000	51.774659
1152.000000	52.004398
1151.000000	52.207157
1150.000000	52.378113
1149.000000	52.522155
1148.000000	52.639549
1147.000000	52.723497
1146.000000	52.771856
1145.000000	52.786785
1144.000000	52.764790
1143.000000	52.695090
1142.000000	52.571391
1141.000000	52.393775
1140.000000	52.153237
1139.000000	51.831464
1138.000000	51.408022
1137.000000	50.860805
1136.000000	50.163031
1135.000000	49.281929
1134.000000	48.195182
1133.000000	46.889108
1132.000000	45.353983
1131.000000	43.602329
1130.000000	41.685313
1129.000000	39.696087
1128.000000	37.747144
1127.000000	35.940132
1126.000000	34.336206
1125.000000	32.930339
1124.000000	31.641692
1123.000000	30.312453
1122.000000	28.710726
1121.000000	26.571957
1120.000000	23.680748
1119.000000	20.006330
1118.000000	15.812072
1117.000000	11.657580
1116.000000	8.231175
1115.000000	6.114616
1114.000000	5.589328
1113.000000	6.606443
1112.000000	8.879097
1111.000000	11.911326
1110.000000	15.089088
1109.000000	17.850193
1108.000000	19.825746
1107.000000	20.789661
1106.000000	20.548528
1105.000000	19.017191
1104.000000	16.503232
1103.000000	13.851763
1102.000000	12.146061
1101.000000	12.141642
1100.000000	13.914610
1099.000000	16.950374
1098.000000	20.509073
1097.000000	24.000260
1096.000000	27.113299
1095.000000	29.771221
1094.000000	32.018351
1093.000000	33.934035
1092.000000	35.588611
1091.000000	37.037987
1090.000000	38.329181
1089.000000	39.499770
1088.000000	40.583652
1087.000000	41.604503
1086.000000	42.581671
1085.000000	43.523646
1084.000000	44.419217
1083.000000	45.250593
1082.000000	46.007638
1081.000000	46.691751
1080.000000	47.306804
1079.000000	47.856633
1078.000000	48.353647
1077.000000	48.808619
1076.000000	49.217638
1075.000000	49.566930
1074.000000	49.843453
1073.000000	50.036373
1072.000000	50.119928
1071.000000	50.053901
1070.000000	49.798703
1069.000000	49.303297
1068.000000	48.505095
1067.000000	47.335951
1066.000000	45.748804
1065.000000	43.742357
1064.000000	41.353795
1063.000000	38.670572
1062.000000	35.802060
1061.000000	32.826874
1060.000000	29.763420
1059.000000	26.574201
1058.000000	23.221752
1057.000000	19.736303
1056.000000	16.279506
1055.000000	13.128849
1054.000000	10.604546
1053.000000	8.958171
1052.000000	8.322972
1051.000000	8.713944
1050.000000	10.001346
1049.000000	11.963200
1048.000000	14.329469
1047.000000	16.840330
1046.000000	19.304729
1045.000000	21.618664
1044.000000	23.763081
1043.000000	25.750693
1042.000000	27.583361
1041.000000	29.241342
1040.000000	30.706838
1039.000000	31.975037
1038.000000	33.058553
1037.000000	33.984032
1036.000000	34.779378
1035.000000	35.475642
1034.000000	36.101741
1033.000000	36.682280
1032.000000	37.236748
1031.000000	37.777742
1030.000000	38.314616
1029.000000	38.851798
1028.000000	39.391787
1027.000000	39.944202
1026.000000	40.531403
1025.000000	41.177341
1024.000000	41.890040
1023.000000	42.654499
1022.000000	43.440198
1021.000000	44.209789
1020.000000	44.924170
1019.000000	45.547268
1018.000000	46.043783
1017.000000	46.372705
1016.000000	46.463131
1015.000000	46.221273
1014.000000	45.546838
1013.000000	44.333871
1012.000000	42.498613
1011.000000	39.964739
1010.000000	36.671812
1009.000000	32.591806
1008.000000	27.827731
1007.000000	22.776256
1006.000000	18.178571
1005.000000	14.920895
1004.000000	13.648453
1003.000000	14.446383
1002.000000	16.775217
1001.000000	19.741404
1000.000000	22.424191
999.000000	24.075600
998.000000	24.254169
997.000000	22.978081
996.000000	20.855455
995.000000	18.931295
994.000000	18.182658
993.000000	18.989690
992.000000	21.034375
991.000000	23.643348
990.000000	26.243803
989.000000	28.573152
988.000000	30.616538
987.000000	32.432241
986.000000	34.066257
985.000000	35.533400
984.000000	36.831995
983.000000	37.957282
982.000000	38.926904
981.000000	39.776214
980.000000	40.532971
979.000000	41.213953
978.000000	41.833074
977.000000	42.407154
976.000000	42.944176
975.000000	43.442407
974.000000	43.907615
973.000000	44.350435
972.000000	44.770944
971.000000	45.157597
970.000000	45.503697
969.000000	45.813630
968.000000	46.089084
967.000000	46.328796
966.000000	46.542455
965.000000	46.748689
964.000000	46.957980
963.000000	47.169062
962.000000	47.382986
961.000000	47.605173
960.000000	47.832274
959.000000	48.054327
958.000000	48.271804
957.000000	48.495916
956.000000	48.729201
955.000000	48.959809
954.000000	49.176984
953.000000	49.375409
952.000000	49.544167
951.000000	49.670011
950.000000	49.754790
949.000000	49.815900
948.000000	49.866478
947.000000	49.909890
946.000000	49.953673
945.000000	50.008832
944.000000	50.074692
943.000000	50.141084
942.000000	50.209789
941.000000	50.297226
940.000000	50.414562
939.000000	50.560076
938.000000	50.731440
937.000000	50.926038
936.000000	51.125085
935.000000	51.296922
934.000000	51.422254
933.000000	51.502676
932.000000	51.543133
931.000000	51.547130
930.000000	51.529495
929.000000	51.513068
928.000000	51.505929
927.000000	51.498717
926.000000	51.488784
925.000000	51.487947
924.000000	51.505958
923.000000	51.545428
922.000000	51.617077
921.000000	51.735985
920.000000	51.897749
919.000000	52.075183
918.000000	52.244039
917.000000	52.393307
916.000000	52.508691
915.000000	52.572556
914.000000	52.588062
913.000000	52.580921
912.000000	52.567283
911.000000	52.543548
910.000000	52.509333
909.000000	52.475753
908.000000	52.444448
907.000000	52.405503
906.000000	52.364867
905.000000	52.345663
904.000000	52.350486
903.000000	52.348880
902.000000	52.314844
901.000000	52.253474
900.000000	52.180738
899.000000	52.094172
898.000000	51.967169
897.000000	51.738839
896.000000	51.326001
895.000000	50.696807
894.000000	49.917286
893.000000	49.041540
892.000000	47.934704
891.000000	46.357323
890.000000	44.352782
889.000000	42.500555
888.000000	41.587887
887.000000	41.978996
886.000000	43.327847
885.000000	44.927463
884.000000	46.278660
883.000000	47.272906
882.000000	48.002889
881.000000	48.550979
880.000000	48.959860
879.000000	49.284329
878.000000	49.588272
877.000000	49.902824
876.000000	50.216940
875.000000	50.499787
874.000000	50.717125
873.000000	50.848552
872.000000	50.901495
871.000000	50.908830
870.000000	50.907834
869.000000	50.921656
868.000000	50.959152
867.000000	51.017867
866.000000	51.082884
865.000000	51.132029
864.000000	51.149878
863.000000	51.138487
862.000000	51.114532
861.000000	51.097940
860.000000	51.101736
859.000000	51.124891
858.000000	51.150091
857.000000	51.150975
856.000000	51.107712
855.000000	51.019367
854.000000	50.902658
853.000000	50.781784
852.000000	50.679353
851.000000	50.612296
850.000000	50.588695
849.000000	50.605307
848.000000	50.649813
847.000000	50.708555
846.000000	50.774343
845.000000	50.846373
844.000000	50.925488
843.000000	51.009701
842.000000	51.092180
841.000000	51.158980
840.000000	51.189741
839.000000	51.164797
838.000000	51.075551
837.000000	50.928358
836.000000	50.739375
835.000000	50.531483
834.000000	50.333135
833.000000	50.171921
832.000000	50.062439
831.000000	50.000602
830.000000	49.971253
829.000000	49.961552
828.000000	49.968344
827.000000	49.995897
826.000000	50.051090
825.000000	50.135293
824.000000	50.235388
823.000000	50.322001
822.000000	50.361925
821.000000	50.332218
820.000000	50.224098
819.000000	50.040726
818.000000	49.794867
817.000000	49.505540
816.000000	49.182086
815.000000	48.809477
814.000000	48.342361
813.000000	47.693141
812.000000	46.724387
811.000000	45.275055
810.000000	43.278240
809.000000	40.915064
808.000000	38.651957
807.000000	37.048014
806.000000	36.448492
805.000000	36.816832
804.000000	37.833831
803.000000	39.133166
802.000000	40.445279
801.000000	41.615556
800.000000	42.569812
799.000000	43.291411
798.000000	43.804089
797.000000	44.141467
796.000000	44.327140
795.000000	44.378972
794.000000	44.321296
793.000000	44.180324
792.000000	43.982345
791.000000	43.759735
790.000000	43.551682
789.000000	43.390332
788.000000	43.287534
787.000000	43.238709
786.000000	43.232022
785.000000	43.250772
784.000000	43.273543
783.000000	43.280467
782.000000	43.258580
781.000000	43.199800
780.000000	43.099736
779.000000	42.964581
778.000000	42.816760
777.000000	42.689006
776.000000	42.613200
775.000000	42.614477
774.000000	42.706966
773.000000	42.888719
772.000000	43.140758
771.000000	43.435136
770.000000	43.744299
769.000000	44.042188
768.000000	44.303781
767.000000	44.510917
766.000000	44.658834
765.000000	44.750937
764.000000	44.789194
763.000000	44.773447
762.000000	44.707465
761.000000	44.599889
760.000000	44.461038
759.000000	44.305837
758.000000	44.157056
757.000000	44.039555
756.000000	43.969920
755.000000	43.953563
754.000000	43.987530
753.000000	44.060433
752.000000	44.152120
751.000000	44.240899
750.000000	44.313404
749.000000	44.364169
748.000000	44.387956
747.000000	44.377539
746.000000	44.327503
745.000000	44.233035
744.000000	44.086555
743.000000	43.883024
742.000000	43.630061
741.000000	43.348836
740.000000	43.065292
739.000000	42.804139
738.000000	42.586350
737.000000	42.422573
736.000000	42.305112
735.000000	42.209430
734.000000	42.104687
733.000000	41.960839
732.000000	41.748397
731.000000	41.440560
730.000000	41.019304
729.000000	40.478237
728.000000	39.824607
727.000000	39.090616
726.000000	38.347279
725.000000	37.698414
724.000000	37.249240
723.000000	37.069555
722.000000	37.175769
721.000000	37.531013
720.000000	38.053989
719.000000	38.640947
718.000000	39.201412
717.000000	39.684153
716.000000	40.076080
715.000000	40.387692
714.000000	40.640056
713.000000	40.853888
712.000000	41.038393
711.000000	41.189142
710.000000	41.297088
709.000000	41.354917
708.000000	41.355878
707.000000	41.296727
706.000000	41.187177
705.000000	41.050411
704.000000	40.910613
703.000000	40.783064
702.000000	40.677042
701.000000	40.599760
700.000000	40.551956
699.000000	40.527485
698.000000	40.522572
697.000000	40.540191
696.000000	40.581879
695.000000	40.641568
694.000000	40.711408
693.000000	40.784561
692.000000	40.846609
691.000000	40.876116
690.000000	40.860915
689.000000	40.805716
688.000000	40.718946
687.000000	40.602580
686.000000	40.463762
685.000000	40.322487
684.000000	40.195050
683.000000	40.082084
682.000000	39.983663
681.000000	39.913742
680.000000	39.886646
679.000000	39.902052
678.000000	39.957266
677.000000	40.056193
676.000000	40.190409
675.000000	40.331703
674.000000	40.457434
673.000000	40.545359
672.000000	40.529526
671.000000	40.317701
670.000000	39.893518
669.000000	39.439431
668.000000	39.273026
667.000000	39.517206
666.000000	39.928075
665.000000	40.178112
664.000000	40.199818
663.000000	40.121060
662.000000	40.056205
661.000000	40.044707
660.000000	40.079900
659.000000	40.159308
658.000000	40.273163
657.000000	40.393722
656.000000	40.496540
655.000000	40.577029
654.000000	40.638268
653.000000	40.675765
652.000000	40.685623
651.000000	40.674107
650.000000	40.645949
649.000000	40.595243
648.000000	40.518032
647.000000	40.424770
646.000000	40.331970
645.000000	40.252680
644.000000	40.201340
643.000000	40.196079
642.000000	40.245808
641.000000	40.340095
640.000000	40.458809
639.000000	40.584864
638.000000	40.704316
637.000000	40.805557
636.000000	40.885363
635.000000	40.948827
634.000000	40.998566
633.000000	41.028555
632.000000	41.030396
631.000000	41.000976
630.000000	40.940860
629.000000	40.852632
628.000000	40.747380
627.000000	40.648749
626.000000	40.583040
625.000000	40.564484
624.000000	40.592704
623.000000	40.659413
622.000000	40.750810
621.000000	40.846805
620.000000	40.929257
619.000000	40.995404
618.000000	41.059823
617.000000	41.137962
616.000000	41.226731
615.000000	41.303683
614.000000	41.344586
613.000000	41.339157
612.000000	41.290692
611.000000	41.210047
610.000000	41.114967
609.000000	41.028346
608.000000	40.969092
607.000000	40.943439
606.000000	40.947084
605.000000	40.972709
604.000000	41.010755
603.000000	41.047356
602.000000	41.069383
601.000000	41.070717
600.000000	41.046050
599.000000	40.977817
598.000000	40.836843
597.000000	40.583182
596.000000	40.165539
595.000000	39.508976
594.000000	38.477876
593.000000	36.835407
592.000000	34.279958
591.000000	30.688515
590.000000	26.454933
589.000000	22.569998
588.000000	20.230708
587.000000	20.183142
586.000000	22.236856
585.000000	25.401357
584.000000	28.603729
583.000000	31.260350
582.000000	33.290665
581.000000	34.830692
580.000000	36.018016
579.000000	36.943118
578.000000	37.663878
577.000000	38.212677
576.000000	38.610746
575.000000	38.891650
574.000000	39.092527
573.000000	39.240564
572.000000	39.355684
571.000000	39.456260
570.000000	39.553124
569.000000	39.640825
568.000000	39.712675
567.000000	39.772254
566.000000	39.818092
565.000000	39.828344
564.000000	39.772035
563.000000	39.634619
562.000000	39.425887
561.000000	39.170866
560.000000	38.901594
559.000000	38.644815
558.000000	38.403658
557.000000	38.162756
556.000000	37.930325
555.000000	37.763235
554.000000	37.730588
553.000000	37.857866
552.000000	38.119043
551.000000	38.464437
550.000000	38.838415
549.000000	39.195865
548.000000	39.520127
547.000000	39.818778
546.000000	40.097261
545.000000	40.344511
544.000000	40.547223
543.000000	40.704502
542.000000	40.822760
541.000000	40.904626
540.000000	40.952050
539.000000	40.970828
538.000000	40.963591
537.000000	40.924048
536.000000	40.844358
535.000000	40.728724
534.000000	40.593801
533.000000	40.460255
532.000000	40.349278
531.000000	40.278687
530.000000	40.252542
529.000000	40.256669
528.000000	40.266997
527.000000	40.256540
526.000000	40.190648
525.000000	40.032531
524.000000	39.761630
523.000000	39.374213
522.000000	38.865492
521.000000	38.212601
520.000000	37.381934
519.000000	36.343761
518.000000	35.084295
517.000000	33.641856
516.000000	32.155942
515.000000	30.854306
514.000000	29.955943
513.000000	29.590736
512.000000	29.783781
511.000000	30.468421
510.000000	31.493244
509.000000	32.672592
508.000000	33.869135
507.000000	35.001310
506.000000	36.012904
505.000000	36.880692
504.000000	37.632126
503.000000	38.311110
502.000000	38.920973
501.000000	39.423748
500.000000	39.797374
499.000000	40.065977
498.000000	40.267472
497.000000	40.429084
496.000000	40.571668
495.000000	40.712326
494.000000	40.857535
493.000000	41.000809
492.000000	41.134997
491.000000	41.258018
490.000000	41.363461
489.000000	41.441468
488.000000	41.485972
487.000000	41.487346
486.000000	41.409387
485.000000	41.180283
484.000000	40.724530
483.000000	39.987501
482.000000	38.940401
481.000000	37.574917
480.000000	35.895727
479.000000	33.918845
478.000000	31.684462
477.000000	29.323152
476.000000	27.127794
475.000000	25.521059
474.000000	24.871883
473.000000	25.316279
472.000000	26.680234
471.000000	28.566664
470.000000	30.606095
469.000000	32.592859
468.000000	34.427944
467.000000	36.033502
466.000000	37.356532
465.000000	38.408135
464.000000	39.245636
463.000000	39.926738
462.000000	40.492336
461.000000	40.973371
460.000000	41.390921
459.000000	41.768775
458.000000	42.133344
457.000000	42.482250
456.000000	42.787565
455.000000	43.050175
454.000000	43.319080
453.000000	43.640024
452.000000	43.998526
451.000000	44.331109
450.000000	44.592570
449.000000	44.783242
448.000000	44.917494
447.000000	45.009391
446.000000	45.087185
445.000000	45.182228
444.000000	45.298740
443.000000	45.415429
442.000000	45.518420
441.000000	45.611213
440.000000	45.695522
439.000000	45.773765
438.000000	45.871389
437.000000	46.025748
436.000000	46.238797
435.000000	46.464885
434.000000	46.658154
433.000000	46.798326
432.000000	46.863548
431.000000	46.834669
430.000000	46.739207
429.000000	46.638435
428.000000	46.561272
427.000000	46.498468
426.000000	46.457774
425.000000	46.466310
424.000000	46.513320
423.000000	46.549611
422.000000	46.568767
421.000000	46.634924
420.000000	46.820378
419.000000	47.140277
418.000000	47.507610
417.000000	47.818251
416.000000	48.055012
415.000000	48.242212
414.000000	48.416469
413.000000	48.621252
412.000000	48.843526
411.000000	49.005985
410.000000	49.052275
409.000000	48.966911
408.000000	48.698506
407.000000	48.200118
406.000000	47.618657
405.000000	47.265865
404.000000	47.339406
403.000000	47.744171
402.000000	48.273656
401.000000	48.785626
400.000000	49.261805
