PE IR       SUBTECH     SPECTRUM    ASCII       PEDS        4.00        
   -1
23ms195-trans.asc
24/09/23
16:44:18.00
24/09/23
16:44:18.00
Administrator
Sample 1192 By Administrator Date Monday, September 23 2024
400.000000
#HDR
-1
-1
#GR
cm-1
%T
1.0
0.0
4000.000000
-1.000000
3601
8
64.551530
4.994508
#DATA
4000.000000	31.965747
3999.000000	31.939975
3998.000000	31.914334
3997.000000	31.888002
3996.000000	31.861055
3995.000000	31.834670
3994.000000	31.809260
3993.000000	31.782623
3992.000000	31.751159
3991.000000	31.713235
3990.000000	31.671002
3989.000000	31.628588
3988.000000	31.588975
3987.000000	31.553081
3986.000000	31.520900
3985.000000	31.492536
3984.000000	31.468239
3983.000000	31.448525
3982.000000	31.434514
3981.000000	31.427520
3980.000000	31.427874
3979.000000	31.434230
3978.000000	31.444503
3977.000000	31.457333
3976.000000	31.472829
3975.000000	31.492477
3974.000000	31.518154
3973.000000	31.550934
3972.000000	31.590228
3971.000000	31.634134
3970.000000	31.681101
3969.000000	31.731262
3968.000000	31.786385
3967.000000	31.847990
3966.000000	31.915292
3965.000000	31.984393
3964.000000	32.049550
3963.000000	32.106691
3962.000000	32.155954
3961.000000	32.200605
3960.000000	32.243391
3959.000000	32.284573
3958.000000	32.323485
3957.000000	32.360963
3956.000000	32.399572
3955.000000	32.441590
3954.000000	32.487834
3953.000000	32.537031
3952.000000	32.584809
3951.000000	32.623955
3950.000000	32.648416
3949.000000	32.660383
3948.000000	32.671878
3947.000000	32.695412
3946.000000	32.732375
3945.000000	32.771039
3944.000000	32.797060
3943.000000	32.808324
3942.000000	32.816280
3941.000000	32.830892
3940.000000	32.850695
3939.000000	32.871586
3938.000000	32.898686
3937.000000	32.942449
3936.000000	33.003711
3935.000000	33.066765
3934.000000	33.109715
3933.000000	33.122289
3932.000000	33.113155
3931.000000	33.101542
3930.000000	33.103876
3929.000000	33.126149
3928.000000	33.162139
3927.000000	33.196875
3926.000000	33.218006
3925.000000	33.227906
3924.000000	33.241877
3923.000000	33.270873
3922.000000	33.311679
3921.000000	33.353983
3920.000000	33.387504
3919.000000	33.401802
3918.000000	33.389997
3917.000000	33.357705
3916.000000	33.322799
3915.000000	33.301753
3914.000000	33.297509
3913.000000	33.303927
3912.000000	33.318496
3911.000000	33.348371
3910.000000	33.406151
3909.000000	33.500093
3908.000000	33.627802
3907.000000	33.772495
3906.000000	33.905773
3905.000000	34.001826
3904.000000	34.053806
3903.000000	34.069636
3902.000000	34.048907
3901.000000	33.982581
3900.000000	33.880155
3899.000000	33.777870
3898.000000	33.712671
3897.000000	33.699072
3896.000000	33.734275
3895.000000	33.809174
3894.000000	33.898929
3893.000000	33.960215
3892.000000	33.971246
3891.000000	33.968434
3890.000000	34.006338
3889.000000	34.088049
3888.000000	34.164216
3887.000000	34.182330
3886.000000	34.144870
3885.000000	34.117515
3884.000000	34.144705
3883.000000	34.189515
3882.000000	34.188926
3881.000000	34.130475
3880.000000	34.066175
3879.000000	34.055066
3878.000000	34.097693
3877.000000	34.152378
3876.000000	34.194262
3875.000000	34.240977
3874.000000	34.332454
3873.000000	34.471247
3872.000000	34.587951
3871.000000	34.603332
3870.000000	34.532003
3869.000000	34.474105
3868.000000	34.483525
3867.000000	34.516271
3866.000000	34.515826
3865.000000	34.476581
3864.000000	34.431160
3863.000000	34.401677
3862.000000	34.375880
3861.000000	34.347335
3860.000000	34.351899
3859.000000	34.446681
3858.000000	34.673314
3857.000000	35.023780
3856.000000	35.403597
3855.000000	35.627960
3854.000000	35.560526
3853.000000	35.307715
3852.000000	35.064279
3851.000000	34.843850
3850.000000	34.612237
3849.000000	34.428486
3848.000000	34.352838
3847.000000	34.382826
3846.000000	34.474133
3845.000000	34.580497
3844.000000	34.686428
3843.000000	34.805451
3842.000000	34.946851
3841.000000	35.091165
3840.000000	35.196102
3839.000000	35.225486
3838.000000	35.184097
3837.000000	35.112525
3836.000000	35.043630
3835.000000	34.980908
3834.000000	34.916236
3833.000000	34.849869
3832.000000	34.795107
3831.000000	34.770505
3830.000000	34.778729
3829.000000	34.798187
3828.000000	34.810204
3827.000000	34.831466
3826.000000	34.908999
3825.000000	35.069850
3824.000000	35.274824
3823.000000	35.425873
3822.000000	35.452468
3821.000000	35.413843
3820.000000	35.428131
3819.000000	35.493844
3818.000000	35.507769
3817.000000	35.409601
3816.000000	35.243041
3815.000000	35.104494
3814.000000	35.028319
3813.000000	34.982322
3812.000000	34.966680
3811.000000	35.023702
3810.000000	35.160626
3809.000000	35.312885
3808.000000	35.400441
3807.000000	35.428008
3806.000000	35.482114
3805.000000	35.603014
3804.000000	35.732202
3803.000000	35.777581
3802.000000	35.710819
3801.000000	35.614165
3800.000000	35.569928
3799.000000	35.541581
3798.000000	35.463149
3797.000000	35.346256
3796.000000	35.247525
3795.000000	35.200231
3794.000000	35.187592
3793.000000	35.178429
3792.000000	35.167240
3791.000000	35.169792
3790.000000	35.196737
3789.000000	35.243528
3788.000000	35.296654
3787.000000	35.340959
3786.000000	35.368707
3785.000000	35.390157
3784.000000	35.427448
3783.000000	35.489053
3782.000000	35.554431
3781.000000	35.589553
3780.000000	35.580661
3779.000000	35.548752
3778.000000	35.521190
3777.000000	35.500677
3776.000000	35.484117
3775.000000	35.489850
3774.000000	35.543873
3773.000000	35.643559
3772.000000	35.746484
3771.000000	35.805539
3770.000000	35.818855
3769.000000	35.822412
3768.000000	35.825472
3767.000000	35.798196
3766.000000	35.733073
3765.000000	35.675054
3764.000000	35.674406
3763.000000	35.730792
3762.000000	35.802104
3761.000000	35.851820
3760.000000	35.873832
3759.000000	35.885203
3758.000000	35.908748
3757.000000	35.967281
3756.000000	36.088137
3755.000000	36.285775
3754.000000	36.533782
3753.000000	36.760629
3752.000000	36.883884
3751.000000	36.880024
3750.000000	36.819689
3749.000000	36.799515
3748.000000	36.855872
3747.000000	36.949240
3746.000000	36.970473
3745.000000	36.824190
3744.000000	36.595101
3743.000000	36.439263
3742.000000	36.354158
3741.000000	36.295655
3740.000000	36.308814
3739.000000	36.427675
3738.000000	36.601129
3737.000000	36.731870
3736.000000	36.770090
3735.000000	36.743850
3734.000000	36.683497
3733.000000	36.583464
3732.000000	36.456846
3731.000000	36.354453
3730.000000	36.307387
3729.000000	36.298580
3728.000000	36.295394
3727.000000	36.286779
3726.000000	36.287009
3725.000000	36.303267
3724.000000	36.315456
3723.000000	36.304372
3722.000000	36.278133
3721.000000	36.254626
3720.000000	36.235362
3719.000000	36.216292
3718.000000	36.213869
3717.000000	36.259688
3716.000000	36.374201
3715.000000	36.543290
3714.000000	36.714089
3713.000000	36.821510
3712.000000	36.835088
3711.000000	36.779581
3710.000000	36.689761
3709.000000	36.576235
3708.000000	36.455654
3707.000000	36.364111
3706.000000	36.331207
3705.000000	36.355044
3704.000000	36.401046
3703.000000	36.426730
3702.000000	36.414570
3701.000000	36.382403
3700.000000	36.351881
3699.000000	36.322495
3698.000000	36.290545
3697.000000	36.270995
3696.000000	36.291740
3695.000000	36.371986
3694.000000	36.507265
3693.000000	36.677771
3692.000000	36.855459
3691.000000	36.991268
3690.000000	37.019667
3689.000000	36.916515
3688.000000	36.737085
3687.000000	36.550452
3686.000000	36.382877
3685.000000	36.248262
3684.000000	36.168642
3683.000000	36.155249
3682.000000	36.200216
3681.000000	36.294194
3680.000000	36.447325
3679.000000	36.667536
3678.000000	36.899830
3677.000000	37.016580
3676.000000	36.946953
3675.000000	36.810126
3674.000000	36.753207
3673.000000	36.747050
3672.000000	36.690433
3671.000000	36.538880
3670.000000	36.325813
3669.000000	36.133137
3668.000000	35.983662
3667.000000	35.835722
3666.000000	35.685077
3665.000000	35.566393
3664.000000	35.494184
3663.000000	35.455424
3662.000000	35.438803
3661.000000	35.449536
3660.000000	35.492083
3659.000000	35.542938
3658.000000	35.551263
3657.000000	35.487892
3656.000000	35.395525
3655.000000	35.353997
3654.000000	35.398228
3653.000000	35.506152
3652.000000	35.620508
3651.000000	35.659866
3650.000000	35.565592
3649.000000	35.350471
3648.000000	35.069098
3647.000000	34.767142
3646.000000	34.481381
3645.000000	34.239683
3644.000000	34.047556
3643.000000	33.895313
3642.000000	33.774878
3641.000000	33.678446
3640.000000	33.591755
3639.000000	33.502572
3638.000000	33.412934
3637.000000	33.328269
3636.000000	33.241992
3635.000000	33.153554
3634.000000	33.094759
3633.000000	33.107826
3632.000000	33.182345
3631.000000	33.222867
3630.000000	33.105489
3629.000000	32.820474
3628.000000	32.499645
3627.000000	32.227263
3626.000000	31.981432
3625.000000	31.764062
3624.000000	31.618574
3623.000000	31.558242
3622.000000	31.541407
3621.000000	31.496113
3620.000000	31.373260
3619.000000	31.188844
3618.000000	30.996417
3617.000000	30.822792
3616.000000	30.659345
3615.000000	30.494449
3614.000000	30.329840
3613.000000	30.179533
3612.000000	30.050423
3611.000000	29.921622
3610.000000	29.757479
3609.000000	29.544662
3608.000000	29.309094
3607.000000	29.088832
3606.000000	28.899111
3605.000000	28.734457
3604.000000	28.587837
3603.000000	28.453139
3602.000000	28.321289
3601.000000	28.185724
3600.000000	28.048106
3599.000000	27.913461
3598.000000	27.779851
3597.000000	27.637465
3596.000000	27.477984
3595.000000	27.304544
3594.000000	27.133524
3593.000000	26.986764
3592.000000	26.876529
3591.000000	26.794549
3590.000000	26.709414
3589.000000	26.579814
3588.000000	26.389786
3587.000000	26.167377
3586.000000	25.950900
3585.000000	25.753446
3584.000000	25.573632
3583.000000	25.411669
3582.000000	25.266142
3581.000000	25.130986
3580.000000	24.999811
3579.000000	24.869390
3578.000000	24.738477
3577.000000	24.606375
3576.000000	24.473083
3575.000000	24.340606
3574.000000	24.214210
3573.000000	24.103218
3572.000000	24.017197
3571.000000	23.955916
3570.000000	23.901184
3569.000000	23.821136
3568.000000	23.693570
3567.000000	23.529428
3566.000000	23.360583
3565.000000	23.205942
3564.000000	23.065331
3563.000000	22.935156
3562.000000	22.813765
3561.000000	22.699562
3560.000000	22.590986
3559.000000	22.487414
3558.000000	22.389600
3557.000000	22.298723
3556.000000	22.213809
3555.000000	22.129541
3554.000000	22.038765
3553.000000	21.939542
3552.000000	21.838789
3551.000000	21.745348
3550.000000	21.660317
3549.000000	21.575976
3548.000000	21.482358
3547.000000	21.374528
3546.000000	21.256321
3545.000000	21.137140
3544.000000	21.025146
3543.000000	20.923749
3542.000000	20.832980
3541.000000	20.751508
3540.000000	20.676280
3539.000000	20.601816
3538.000000	20.522544
3537.000000	20.437233
3536.000000	20.350593
3535.000000	20.269001
3534.000000	20.195096
3533.000000	20.127268
3532.000000	20.062202
3531.000000	19.996689
3530.000000	19.927961
3529.000000	19.854437
3528.000000	19.776225
3527.000000	19.693901
3526.000000	19.607002
3525.000000	19.515203
3524.000000	19.421360
3523.000000	19.331766
3522.000000	19.251611
3521.000000	19.180164
3520.000000	19.111669
3519.000000	19.040924
3518.000000	18.967220
3517.000000	18.892663
3516.000000	18.818431
3515.000000	18.744512
3514.000000	18.671887
3513.000000	18.602152
3512.000000	18.534141
3511.000000	18.463599
3510.000000	18.387966
3509.000000	18.310042
3508.000000	18.234748
3507.000000	18.163287
3506.000000	18.092179
3505.000000	18.017004
3504.000000	17.936207
3503.000000	17.852340
3502.000000	17.770395
3501.000000	17.694352
3500.000000	17.624658
3499.000000	17.558696
3498.000000	17.493641
3497.000000	17.428796
3496.000000	17.364908
3495.000000	17.302305
3494.000000	17.240905
3493.000000	17.181196
3492.000000	17.123582
3491.000000	17.066985
3490.000000	17.009575
3489.000000	16.950816
3488.000000	16.892061
3487.000000	16.835537
3486.000000	16.783123
3485.000000	16.735185
3484.000000	16.689441
3483.000000	16.641811
3482.000000	16.589921
3481.000000	16.535617
3480.000000	16.483185
3479.000000	16.435710
3478.000000	16.393730
3477.000000	16.355834
3476.000000	16.319201
3475.000000	16.280758
3474.000000	16.238993
3473.000000	16.194166
3472.000000	16.146513
3471.000000	16.095667
3470.000000	16.042755
3469.000000	15.991656
3468.000000	15.946769
3467.000000	15.910042
3466.000000	15.880678
3465.000000	15.856130
3464.000000	15.832406
3463.000000	15.805242
3462.000000	15.772957
3461.000000	15.737668
3460.000000	15.702745
3459.000000	15.669911
3458.000000	15.639394
3457.000000	15.611109
3456.000000	15.584173
3455.000000	15.556614
3454.000000	15.527447
3453.000000	15.498374
3452.000000	15.471944
3451.000000	15.448558
3450.000000	15.426210
3449.000000	15.402657
3448.000000	15.376998
3447.000000	15.349946
3446.000000	15.323175
3445.000000	15.297814
3444.000000	15.273444
3443.000000	15.249077
3442.000000	15.224900
3441.000000	15.201564
3440.000000	15.177788
3439.000000	15.150867
3438.000000	15.120505
3437.000000	15.090231
3436.000000	15.063918
3435.000000	15.042569
3434.000000	15.025214
3433.000000	15.010654
3432.000000	14.997027
3431.000000	14.982095
3430.000000	14.965815
3429.000000	14.951113
3428.000000	14.940389
3427.000000	14.932921
3426.000000	14.926864
3425.000000	14.921621
3424.000000	14.916645
3423.000000	14.910002
3422.000000	14.900443
3421.000000	14.889401
3420.000000	14.878987
3419.000000	14.869297
3418.000000	14.859353
3417.000000	14.849004
3416.000000	14.838187
3415.000000	14.826155
3414.000000	14.813365
3413.000000	14.802487
3412.000000	14.795687
3411.000000	14.792268
3410.000000	14.790613
3409.000000	14.790922
3408.000000	14.794119
3407.000000	14.799417
3406.000000	14.804607
3405.000000	14.807533
3404.000000	14.806278
3403.000000	14.799885
3402.000000	14.790748
3401.000000	14.784658
3400.000000	14.786456
3399.000000	14.796426
3398.000000	14.811508
3397.000000	14.828056
3396.000000	14.842261
3395.000000	14.850575
3394.000000	14.852556
3393.000000	14.852344
3392.000000	14.855587
3391.000000	14.865547
3390.000000	14.882693
3389.000000	14.905914
3388.000000	14.932328
3387.000000	14.957821
3386.000000	14.979969
3385.000000	14.999534
3384.000000	15.018095
3383.000000	15.035768
3382.000000	15.052374
3381.000000	15.069004
3380.000000	15.086822
3379.000000	15.105826
3378.000000	15.126034
3377.000000	15.148365
3376.000000	15.173057
3375.000000	15.198576
3374.000000	15.223226
3373.000000	15.246480
3372.000000	15.268168
3371.000000	15.288392
3370.000000	15.309270
3369.000000	15.334753
3368.000000	15.367258
3367.000000	15.405787
3366.000000	15.448031
3365.000000	15.492144
3364.000000	15.535766
3363.000000	15.575965
3362.000000	15.611975
3361.000000	15.646432
3360.000000	15.682437
3359.000000	15.720771
3358.000000	15.760860
3357.000000	15.802414
3356.000000	15.844775
3355.000000	15.886406
3354.000000	15.926417
3353.000000	15.965504
3352.000000	16.004855
3351.000000	16.045785
3350.000000	16.090615
3349.000000	16.141458
3348.000000	16.197082
3347.000000	16.252971
3346.000000	16.305633
3345.000000	16.355117
3344.000000	16.402966
3343.000000	16.450142
3342.000000	16.497690
3341.000000	16.546916
3340.000000	16.597681
3339.000000	16.648612
3338.000000	16.700018
3337.000000	16.754329
3336.000000	16.812564
3335.000000	16.872588
3334.000000	16.931978
3333.000000	16.990311
3332.000000	17.047595
3331.000000	17.102721
3330.000000	17.154779
3329.000000	17.203812
3328.000000	17.249076
3327.000000	17.288806
3326.000000	17.322872
3325.000000	17.353529
3324.000000	17.382475
3323.000000	17.408959
3322.000000	17.431956
3321.000000	17.451968
3320.000000	17.469448
3319.000000	17.483742
3318.000000	17.494474
3317.000000	17.501991
3316.000000	17.505132
3315.000000	17.500452
3314.000000	17.484911
3313.000000	17.456857
3312.000000	17.413955
3311.000000	17.352811
3310.000000	17.272084
3309.000000	17.174581
3308.000000	17.064216
3307.000000	16.943515
3306.000000	16.815531
3305.000000	16.685257
3304.000000	16.557480
3303.000000	16.434152
3302.000000	16.315599
3301.000000	16.202637
3300.000000	16.096109
3299.000000	15.996290
3298.000000	15.904294
3297.000000	15.822267
3296.000000	15.750422
3295.000000	15.685360
3294.000000	15.621952
3293.000000	15.555122
3292.000000	15.479198
3291.000000	15.388147
3290.000000	15.277976
3289.000000	15.147862
3288.000000	14.997463
3287.000000	14.825214
3286.000000	14.630380
3285.000000	14.413327
3284.000000	14.173674
3283.000000	13.909493
3282.000000	13.619798
3281.000000	13.306782
3280.000000	12.973584
3279.000000	12.623430
3278.000000	12.261982
3277.000000	11.898021
3276.000000	11.540479
3275.000000	11.195834
3274.000000	10.869307
3273.000000	10.566168
3272.000000	10.291141
3271.000000	10.048361
3270.000000	9.844571
3269.000000	9.688935
3268.000000	9.587714
3267.000000	9.543204
3266.000000	9.555429
3265.000000	9.623432
3264.000000	9.741458
3263.000000	9.895716
3262.000000	10.068754
3261.000000	10.242198
3260.000000	10.395812
3259.000000	10.507785
3258.000000	10.559040
3257.000000	10.534982
3256.000000	10.424669
3255.000000	10.219727
3254.000000	9.916933
3253.000000	9.521819
3252.000000	9.044485
3251.000000	8.500148
3250.000000	7.912178
3249.000000	7.311355
3248.000000	6.730413
3247.000000	6.197911
3246.000000	5.738328
3245.000000	5.373346
3244.000000	5.121159
3243.000000	4.994508
3242.000000	5.004666
3241.000000	5.157388
3240.000000	5.442908
3239.000000	5.835234
3238.000000	6.297436
3237.000000	6.793252
3236.000000	7.291504
3235.000000	7.768043
3234.000000	8.210501
3233.000000	8.615676
3232.000000	8.982788
3231.000000	9.309756
3230.000000	9.596264
3229.000000	9.845635
3228.000000	10.062515
3227.000000	10.250503
3226.000000	10.413571
3225.000000	10.557388
3224.000000	10.685658
3223.000000	10.799176
3222.000000	10.898084
3221.000000	10.982822
3220.000000	11.052500
3219.000000	11.104185
3218.000000	11.136478
3217.000000	11.150092
3216.000000	11.144819
3215.000000	11.119557
3214.000000	11.075533
3213.000000	11.017683
3212.000000	10.950845
3211.000000	10.877713
3210.000000	10.801681
3209.000000	10.727426
3208.000000	10.657900
3207.000000	10.593422
3206.000000	10.534972
3205.000000	10.485227
3204.000000	10.445081
3203.000000	10.412455
3202.000000	10.385893
3201.000000	10.366259
3200.000000	10.353265
3199.000000	10.344062
3198.000000	10.336689
3197.000000	10.331892
3196.000000	10.330184
3195.000000	10.329892
3194.000000	10.329947
3193.000000	10.331262
3192.000000	10.333867
3191.000000	10.335881
3190.000000	10.336724
3189.000000	10.338888
3188.000000	10.345131
3187.000000	10.356685
3186.000000	10.375278
3185.000000	10.403261
3184.000000	10.440335
3183.000000	10.482846
3182.000000	10.527483
3181.000000	10.572856
3180.000000	10.616317
3179.000000	10.652899
3178.000000	10.679202
3177.000000	10.695725
3176.000000	10.704507
3175.000000	10.707738
3174.000000	10.709876
3173.000000	10.717807
3172.000000	10.736986
3171.000000	10.770473
3170.000000	10.822333
3169.000000	10.898685
3168.000000	11.004050
3167.000000	11.138609
3166.000000	11.301512
3165.000000	11.492896
3164.000000	11.712050
3163.000000	11.957460
3162.000000	12.228663
3161.000000	12.526625
3160.000000	12.849171
3159.000000	13.188780
3158.000000	13.536060
3157.000000	13.881586
3156.000000	14.214958
3155.000000	14.525252
3154.000000	14.804638
3153.000000	15.049480
3152.000000	15.258294
3151.000000	15.430470
3150.000000	15.567599
3149.000000	15.673560
3148.000000	15.750361
3147.000000	15.797642
3146.000000	15.814377
3145.000000	15.798822
3144.000000	15.747190
3143.000000	15.652866
3142.000000	15.511003
3141.000000	15.320194
3140.000000	15.080500
3139.000000	14.794664
3138.000000	14.469674
3137.000000	14.116668
3136.000000	13.746354
3135.000000	13.367306
3134.000000	12.990177
3133.000000	12.628726
3132.000000	12.295975
3131.000000	12.001448
3130.000000	11.753136
3129.000000	11.557200
3128.000000	11.414676
3127.000000	11.320343
3126.000000	11.266958
3125.000000	11.248980
3124.000000	11.259785
3123.000000	11.291722
3122.000000	11.339561
3121.000000	11.401595
3120.000000	11.476770
3119.000000	11.562077
3118.000000	11.655144
3117.000000	11.754909
3116.000000	11.858442
3115.000000	11.959714
3114.000000	12.052194
3113.000000	12.129836
3112.000000	12.184834
3111.000000	12.208817
3110.000000	12.196789
3109.000000	12.148487
3108.000000	12.063802
3107.000000	11.940459
3106.000000	11.778168
3105.000000	11.580495
3104.000000	11.353263
3103.000000	11.103156
3102.000000	10.840489
3101.000000	10.580444
3100.000000	10.338822
3099.000000	10.128342
3098.000000	9.958968
3097.000000	9.838580
3096.000000	9.769924
3095.000000	9.751006
3094.000000	9.778438
3093.000000	9.848834
3092.000000	9.957340
3091.000000	10.096781
3090.000000	10.261531
3089.000000	10.447263
3088.000000	10.647029
3087.000000	10.851902
3086.000000	11.055710
3085.000000	11.257391
3084.000000	11.456807
3083.000000	11.651914
3082.000000	11.841058
3081.000000	12.024430
3080.000000	12.202406
3079.000000	12.375301
3078.000000	12.545634
3077.000000	12.717174
3076.000000	12.890842
3075.000000	13.064253
3074.000000	13.235981
3073.000000	13.407222
3072.000000	13.578652
3071.000000	13.749039
3070.000000	13.917781
3069.000000	14.085899
3068.000000	14.253737
3067.000000	14.420450
3066.000000	14.586294
3065.000000	14.752317
3064.000000	14.917245
3063.000000	15.077915
3062.000000	15.233184
3061.000000	15.384448
3060.000000	15.531876
3059.000000	15.673484
3058.000000	15.808697
3057.000000	15.939435
3056.000000	16.067068
3055.000000	16.191150
3054.000000	16.311729
3053.000000	16.430125
3052.000000	16.546613
3051.000000	16.660353
3050.000000	16.771853
3049.000000	16.882359
3048.000000	16.990519
3047.000000	17.092664
3046.000000	17.187298
3045.000000	17.276361
3044.000000	17.361644
3043.000000	17.443327
3042.000000	17.522394
3041.000000	17.601228
3040.000000	17.680575
3039.000000	17.758583
3038.000000	17.833945
3037.000000	17.907509
3036.000000	17.980550
3035.000000	18.054065
3034.000000	18.130098
3033.000000	18.210849
3032.000000	18.295689
3031.000000	18.381687
3030.000000	18.467456
3029.000000	18.553984
3028.000000	18.641530
3027.000000	18.728754
3026.000000	18.815493
3025.000000	18.903525
3024.000000	18.993832
3023.000000	19.085433
3022.000000	19.177526
3021.000000	19.270407
3020.000000	19.363819
3019.000000	19.456779
3018.000000	19.549410
3017.000000	19.642793
3016.000000	19.737000
3015.000000	19.831509
3014.000000	19.927672
3013.000000	20.028230
3012.000000	20.134324
3011.000000	20.245270
3010.000000	20.360979
3009.000000	20.481868
3008.000000	20.605967
3007.000000	20.728564
3006.000000	20.844228
3005.000000	20.947013
3004.000000	21.027753
3003.000000	21.073535
3002.000000	21.071583
3001.000000	21.012730
3000.000000	20.893250
2999.000000	20.714225
2998.000000	20.481547
2997.000000	20.209792
2996.000000	19.931669
2995.000000	19.703931
2994.000000	19.592070
2993.000000	19.636194
2992.000000	19.824267
2991.000000	20.101480
2990.000000	20.404522
2989.000000	20.688728
2988.000000	20.933084
2987.000000	21.133070
2986.000000	21.293943
2985.000000	21.422747
2984.000000	21.521646
2983.000000	21.588068
2982.000000	21.621973
2981.000000	21.629212
2980.000000	21.617132
2979.000000	21.589166
2978.000000	21.545483
2977.000000	21.489216
2976.000000	21.433410
2975.000000	21.404926
2974.000000	21.437153
2973.000000	21.552145
2972.000000	21.745510
2971.000000	21.989691
2970.000000	22.251047
2969.000000	22.503454
2968.000000	22.730816
2967.000000	22.924931
2966.000000	23.083611
2965.000000	23.204944
2964.000000	23.280687
2963.000000	23.293058
2962.000000	23.219464
2961.000000	23.039672
2960.000000	22.741954
2959.000000	22.327081
2958.000000	21.807205
2957.000000	21.207233
2956.000000	20.574453
2955.000000	19.992693
2954.000000	19.570466
2953.000000	19.391835
2952.000000	19.463370
2951.000000	19.708358
2950.000000	20.016073
2949.000000	20.298753
2948.000000	20.520940
2947.000000	20.695432
2946.000000	20.862109
2945.000000	21.059704
2944.000000	21.303847
2943.000000	21.585516
2942.000000	21.885052
2941.000000	22.185732
2940.000000	22.477067
2939.000000	22.754815
2938.000000	23.021898
2937.000000	23.284979
2936.000000	23.547580
2935.000000	23.808055
2934.000000	24.063925
2933.000000	24.313628
2932.000000	24.553716
2931.000000	24.779603
2930.000000	24.990279
2929.000000	25.188628
2928.000000	25.375840
2927.000000	25.549601
2926.000000	25.708541
2925.000000	25.853931
2924.000000	25.986407
2923.000000	26.104827
2922.000000	26.209283
2921.000000	26.301208
2920.000000	26.379559
2919.000000	26.441141
2918.000000	26.485130
2917.000000	26.513747
2916.000000	26.528430
2915.000000	26.529527
2914.000000	26.520696
2913.000000	26.509200
2912.000000	26.500622
2911.000000	26.496171
2910.000000	26.495482
2909.000000	26.498551
2908.000000	26.504029
2907.000000	26.509397
2906.000000	26.513997
2905.000000	26.519485
2904.000000	26.526515
2903.000000	26.534168
2902.000000	26.542556
2901.000000	26.552896
2900.000000	26.564927
2899.000000	26.576332
2898.000000	26.585500
2897.000000	26.591807
2896.000000	26.593523
2895.000000	26.588803
2894.000000	26.579357
2893.000000	26.570098
2892.000000	26.564793
2891.000000	26.564806
2890.000000	26.571770
2889.000000	26.587991
2888.000000	26.613590
2887.000000	26.646523
2886.000000	26.685918
2885.000000	26.732432
2884.000000	26.785031
2883.000000	26.840619
2882.000000	26.897193
2881.000000	26.954272
2880.000000	27.009892
2879.000000	27.059942
2878.000000	27.100950
2877.000000	27.130619
2876.000000	27.145933
2875.000000	27.144831
2874.000000	27.130861
2873.000000	27.112875
2872.000000	27.098768
2871.000000	27.092006
2870.000000	27.095072
2869.000000	27.113991
2868.000000	27.158244
2867.000000	27.238034
2866.000000	27.361270
2865.000000	27.529071
2864.000000	27.732733
2863.000000	27.957202
2862.000000	28.188354
2861.000000	28.416255
2860.000000	28.634080
2859.000000	28.837776
2858.000000	29.027144
2857.000000	29.204045
2856.000000	29.368565
2855.000000	29.519397
2854.000000	29.656641
2853.000000	29.780939
2852.000000	29.890245
2851.000000	29.980621
2850.000000	30.050545
2849.000000	30.102254
2848.000000	30.139715
2847.000000	30.168207
2846.000000	30.195208
2845.000000	30.227578
2844.000000	30.267351
2843.000000	30.312383
2842.000000	30.360646
2841.000000	30.411507
2840.000000	30.463666
2839.000000	30.515578
2838.000000	30.568038
2837.000000	30.623221
2836.000000	30.681021
2835.000000	30.739140
2834.000000	30.796623
2833.000000	30.854485
2832.000000	30.912866
2831.000000	30.970559
2830.000000	31.027545
2829.000000	31.085181
2828.000000	31.143632
2827.000000	31.201757
2826.000000	31.259575
2825.000000	31.318140
2824.000000	31.376907
2823.000000	31.433884
2822.000000	31.488558
2821.000000	31.542059
2820.000000	31.594407
2819.000000	31.644271
2818.000000	31.691509
2817.000000	31.737329
2816.000000	31.781856
2815.000000	31.824167
2814.000000	31.864793
2813.000000	31.905430
2812.000000	31.946023
2811.000000	31.984832
2810.000000	32.021617
2809.000000	32.058087
2808.000000	32.095009
2807.000000	32.131525
2806.000000	32.167626
2805.000000	32.204687
2804.000000	32.243130
2803.000000	32.282026
2802.000000	32.321318
2801.000000	32.362054
2800.000000	32.404274
2799.000000	32.447091
2798.000000	32.491107
2797.000000	32.538285
2796.000000	32.589108
2795.000000	32.642277
2794.000000	32.697339
2793.000000	32.755134
2792.000000	32.815439
2791.000000	32.876589
2790.000000	32.937845
2789.000000	32.999880
2788.000000	33.062639
2787.000000	33.124993
2786.000000	33.186667
2785.000000	33.248329
2784.000000	33.309682
2783.000000	33.369514
2782.000000	33.427683
2781.000000	33.484895
2780.000000	33.540587
2779.000000	33.593252
2778.000000	33.642732
2777.000000	33.689874
2776.000000	33.734198
2775.000000	33.774441
2774.000000	33.811407
2773.000000	33.847790
2772.000000	33.884891
2771.000000	33.921868
2770.000000	33.958216
2769.000000	33.994379
2768.000000	34.029790
2767.000000	34.062752
2766.000000	34.092703
2765.000000	34.120400
2764.000000	34.145690
2763.000000	34.167514
2762.000000	34.186381
2761.000000	34.204619
2760.000000	34.223895
2759.000000	34.244560
2758.000000	34.267468
2757.000000	34.294083
2756.000000	34.324494
2755.000000	34.357548
2754.000000	34.393129
2753.000000	34.432011
2752.000000	34.473432
2751.000000	34.515160
2750.000000	34.556188
2749.000000	34.597180
2748.000000	34.638069
2747.000000	34.677546
2746.000000	34.715172
2745.000000	34.751555
2744.000000	34.786002
2743.000000	34.816292
2742.000000	34.841175
2741.000000	34.861209
2740.000000	34.877055
2739.000000	34.889138
2738.000000	34.899432
2737.000000	34.911552
2736.000000	34.928538
2735.000000	34.952222
2734.000000	34.984631
2733.000000	35.027459
2732.000000	35.079883
2731.000000	35.138815
2730.000000	35.201377
2729.000000	35.265446
2728.000000	35.327961
2727.000000	35.385366
2726.000000	35.436308
2725.000000	35.481890
2724.000000	35.523018
2723.000000	35.559656
2722.000000	35.592714
2721.000000	35.624304
2720.000000	35.655670
2719.000000	35.686723
2718.000000	35.717999
2717.000000	35.751232
2716.000000	35.787559
2715.000000	35.826916
2714.000000	35.869228
2713.000000	35.914182
2712.000000	35.959603
2711.000000	36.002096
2710.000000	36.039747
2709.000000	36.072623
2708.000000	36.100781
2707.000000	36.123751
2706.000000	36.141981
2705.000000	36.157004
2704.000000	36.169912
2703.000000	36.181431
2702.000000	36.193461
2701.000000	36.208432
2700.000000	36.226995
2699.000000	36.248180
2698.000000	36.271700
2697.000000	36.298148
2696.000000	36.327110
2695.000000	36.357309
2694.000000	36.388877
2693.000000	36.423466
2692.000000	36.461704
2691.000000	36.502466
2690.000000	36.544606
2689.000000	36.587419
2688.000000	36.629392
2687.000000	36.668599
2686.000000	36.704659
2685.000000	36.738537
2684.000000	36.770294
2683.000000	36.798899
2682.000000	36.824363
2681.000000	36.847913
2680.000000	36.869931
2679.000000	36.889690
2678.000000	36.907394
2677.000000	36.924805
2676.000000	36.943703
2675.000000	36.965492
2674.000000	36.992280
2673.000000	37.026299
2672.000000	37.067703
2671.000000	37.114635
2670.000000	37.165447
2669.000000	37.218994
2668.000000	37.273079
2667.000000	37.324713
2666.000000	37.372390
2665.000000	37.416545
2664.000000	37.457705
2663.000000	37.496034
2662.000000	37.532709
2661.000000	37.569713
2660.000000	37.607855
2659.000000	37.646508
2658.000000	37.685189
2657.000000	37.723808
2656.000000	37.761459
2655.000000	37.796793
2654.000000	37.829737
2653.000000	37.860983
2652.000000	37.889958
2651.000000	37.915104
2650.000000	37.936150
2649.000000	37.954408
2648.000000	37.970758
2647.000000	37.985324
2646.000000	37.999358
2645.000000	38.015506
2644.000000	38.035912
2643.000000	38.061593
2642.000000	38.093365
2641.000000	38.131357
2640.000000	38.173423
2639.000000	38.215806
2638.000000	38.255861
2637.000000	38.292738
2636.000000	38.325617
2635.000000	38.353159
2634.000000	38.374915
2633.000000	38.391610
2632.000000	38.403968
2631.000000	38.412952
2630.000000	38.420998
2629.000000	38.431425
2628.000000	38.446504
2627.000000	38.467397
2626.000000	38.495448
2625.000000	38.531399
2624.000000	38.573244
2623.000000	38.616973
2622.000000	38.659754
2621.000000	38.700725
2620.000000	38.739004
2619.000000	38.772969
2618.000000	38.801730
2617.000000	38.825530
2616.000000	38.844523
2615.000000	38.858665
2614.000000	38.869016
2613.000000	38.877441
2612.000000	38.884692
2611.000000	38.890511
2610.000000	38.895356
2609.000000	38.900380
2608.000000	38.905701
2607.000000	38.910323
2606.000000	38.913995
2605.000000	38.917432
2604.000000	38.920778
2603.000000	38.923616
2602.000000	38.926623
2601.000000	38.931468
2600.000000	38.939088
2599.000000	38.949647
2598.000000	38.964014
2597.000000	38.983471
2596.000000	39.007625
2595.000000	39.034487
2594.000000	39.062720
2593.000000	39.092127
2592.000000	39.122214
2591.000000	39.151991
2590.000000	39.181372
2589.000000	39.211052
2588.000000	39.240841
2587.000000	39.269875
2586.000000	39.298413
2585.000000	39.327671
2584.000000	39.357812
2583.000000	39.387752
2582.000000	39.416977
2581.000000	39.445920
2580.000000	39.474605
2579.000000	39.502705
2578.000000	39.530919
2577.000000	39.560492
2576.000000	39.591274
2575.000000	39.621879
2574.000000	39.651852
2573.000000	39.682055
2572.000000	39.713003
2571.000000	39.744479
2570.000000	39.776629
2569.000000	39.809617
2568.000000	39.842185
2567.000000	39.872346
2566.000000	39.899666
2565.000000	39.925322
2564.000000	39.950051
2563.000000	39.973845
2562.000000	39.997502
2561.000000	40.022502
2560.000000	40.049117
2559.000000	40.076358
2558.000000	40.103930
2557.000000	40.132574
2556.000000	40.162415
2555.000000	40.192665
2554.000000	40.223121
2553.000000	40.254210
2552.000000	40.285460
2551.000000	40.315562
2550.000000	40.344065
2549.000000	40.371428
2548.000000	40.397428
2547.000000	40.421138
2546.000000	40.442506
2545.000000	40.462415
2544.000000	40.481067
2543.000000	40.498034
2542.000000	40.513834
2541.000000	40.529654
2540.000000	40.545521
2539.000000	40.560305
2538.000000	40.573671
2537.000000	40.586344
2536.000000	40.598452
2535.000000	40.609523
2534.000000	40.620294
2533.000000	40.632772
2532.000000	40.648205
2531.000000	40.666556
2530.000000	40.687959
2529.000000	40.712985
2528.000000	40.741186
2527.000000	40.770926
2526.000000	40.800914
2525.000000	40.830308
2524.000000	40.857394
2523.000000	40.879965
2522.000000	40.897364
2521.000000	40.910512
2520.000000	40.919960
2519.000000	40.925348
2518.000000	40.926879
2517.000000	40.925714
2516.000000	40.922261
2515.000000	40.915941
2514.000000	40.906775
2513.000000	40.895806
2512.000000	40.883914
2511.000000	40.871571
2510.000000	40.860104
2509.000000	40.851606
2508.000000	40.847327
2507.000000	40.847337
2506.000000	40.851856
2505.000000	40.861221
2504.000000	40.874626
2503.000000	40.890639
2502.000000	40.908832
2501.000000	40.929662
2500.000000	40.952570
2499.000000	40.975941
2498.000000	40.999114
2497.000000	41.022612
2496.000000	41.046584
2495.000000	41.070670
2494.000000	41.095492
2493.000000	41.122595
2492.000000	41.152541
2491.000000	41.184756
2490.000000	41.219227
2489.000000	41.256580
2488.000000	41.296347
2487.000000	41.336710
2486.000000	41.376417
2485.000000	41.415482
2484.000000	41.453883
2483.000000	41.491227
2482.000000	41.527872
2481.000000	41.564963
2480.000000	41.603094
2479.000000	41.642148
2478.000000	41.682257
2477.000000	41.723345
2476.000000	41.763683
2475.000000	41.800549
2474.000000	41.832709
2473.000000	41.861021
2472.000000	41.886940
2471.000000	41.911815
2470.000000	41.937312
2469.000000	41.964642
2468.000000	41.992957
2467.000000	42.020162
2466.000000	42.045408
2465.000000	42.069322
2464.000000	42.091983
2463.000000	42.112294
2462.000000	42.129537
2461.000000	42.143850
2460.000000	42.154959
2459.000000	42.162389
2458.000000	42.167115
2457.000000	42.171564
2456.000000	42.177613
2455.000000	42.185976
2454.000000	42.197640
2453.000000	42.214134
2452.000000	42.236024
2451.000000	42.262533
2450.000000	42.293115
2449.000000	42.327666
2448.000000	42.365181
2447.000000	42.403629
2446.000000	42.441398
2445.000000	42.477614
2444.000000	42.510942
2443.000000	42.539833
2442.000000	42.564166
2441.000000	42.585274
2440.000000	42.604031
2439.000000	42.620474
2438.000000	42.635241
2437.000000	42.649567
2436.000000	42.663655
2435.000000	42.676511
2434.000000	42.687899
2433.000000	42.698754
2432.000000	42.709170
2431.000000	42.717688
2430.000000	42.722933
2429.000000	42.724687
2428.000000	42.722915
2427.000000	42.717297
2426.000000	42.708564
2425.000000	42.698815
2424.000000	42.689976
2423.000000	42.682845
2422.000000	42.677854
2421.000000	42.675387
2420.000000	42.674915
2419.000000	42.675341
2418.000000	42.676707
2417.000000	42.680529
2416.000000	42.687922
2415.000000	42.698823
2414.000000	42.713144
2413.000000	42.731110
2412.000000	42.752133
2411.000000	42.774534
2410.000000	42.797052
2409.000000	42.819336
2408.000000	42.840673
2407.000000	42.859579
2406.000000	42.875052
2405.000000	42.886980
2404.000000	42.894911
2403.000000	42.897980
2402.000000	42.896227
2401.000000	42.890902
2400.000000	42.882756
2399.000000	42.871101
2398.000000	42.855147
2397.000000	42.834385
2396.000000	42.807441
2395.000000	42.771763
2394.000000	42.725057
2393.000000	42.666663
2392.000000	42.596581
2391.000000	42.515035
2390.000000	42.423450
2389.000000	42.324288
2388.000000	42.219773
2387.000000	42.110939
2386.000000	41.998982
2385.000000	41.886209
2384.000000	41.774648
2383.000000	41.665520
2382.000000	41.559873
2381.000000	41.458751
2380.000000	41.361947
2379.000000	41.267583
2378.000000	41.174719
2377.000000	41.084994
2376.000000	41.001727
2375.000000	40.929334
2374.000000	40.874597
2373.000000	40.846301
2372.000000	40.850594
2371.000000	40.887140
2370.000000	40.950107
2369.000000	41.031411
2368.000000	41.120190
2367.000000	41.203972
2366.000000	41.274727
2365.000000	41.330549
2364.000000	41.370383
2363.000000	41.391694
2362.000000	41.395785
2361.000000	41.389155
2360.000000	41.379197
2359.000000	41.369026
2358.000000	41.357232
2357.000000	41.342711
2356.000000	41.325144
2355.000000	41.310330
2354.000000	41.316123
2353.000000	41.356479
2352.000000	41.421807
2351.000000	41.485978
2350.000000	41.533650
2349.000000	41.560300
2348.000000	41.566007
2347.000000	41.562863
2346.000000	41.567132
2345.000000	41.582570
2344.000000	41.598159
2343.000000	41.612212
2342.000000	41.629602
2341.000000	41.644788
2340.000000	41.651400
2339.000000	41.649294
2338.000000	41.646014
2337.000000	41.646853
2336.000000	41.652571
2335.000000	41.661877
2334.000000	41.678298
2333.000000	41.706328
2332.000000	41.744140
2331.000000	41.783056
2330.000000	41.820174
2329.000000	41.857110
2328.000000	41.891912
2327.000000	41.918349
2326.000000	41.931208
2325.000000	41.935589
2324.000000	41.938508
2323.000000	41.945464
2322.000000	41.956728
2321.000000	41.968977
2320.000000	41.979164
2319.000000	41.985105
2318.000000	41.988440
2317.000000	41.989417
2316.000000	41.986644
2315.000000	41.976784
2314.000000	41.959033
2313.000000	41.932825
2312.000000	41.896842
2311.000000	41.850067
2310.000000	41.795185
2309.000000	41.737493
2308.000000	41.680841
2307.000000	41.628345
2306.000000	41.584524
2305.000000	41.555308
2304.000000	41.544300
2303.000000	41.552660
2302.000000	41.581059
2301.000000	41.629290
2300.000000	41.694118
2299.000000	41.769335
2298.000000	41.848359
2297.000000	41.924588
2296.000000	41.990591
2295.000000	42.040425
2294.000000	42.072852
2293.000000	42.091648
2292.000000	42.101483
2291.000000	42.106325
2290.000000	42.109018
2289.000000	42.110667
2288.000000	42.108088
2287.000000	42.095421
2286.000000	42.067961
2285.000000	42.023944
2284.000000	41.964210
2283.000000	41.893099
2282.000000	41.820453
2281.000000	41.759363
2280.000000	41.720923
2279.000000	41.710939
2278.000000	41.730575
2277.000000	41.776866
2276.000000	41.843254
2275.000000	41.923564
2274.000000	42.015859
2273.000000	42.121482
2272.000000	42.239662
2271.000000	42.365805
2270.000000	42.494661
2269.000000	42.622373
2268.000000	42.745960
2267.000000	42.863232
2266.000000	42.974201
2265.000000	43.080304
2264.000000	43.181924
2263.000000	43.278132
2262.000000	43.368378
2261.000000	43.452838
2260.000000	43.530706
2259.000000	43.600880
2258.000000	43.664265
2257.000000	43.723909
2256.000000	43.783052
2255.000000	43.844587
2254.000000	43.912230
2253.000000	43.989227
2252.000000	44.075687
2251.000000	44.168704
2250.000000	44.265339
2249.000000	44.363719
2248.000000	44.461399
2247.000000	44.555544
2246.000000	44.644901
2245.000000	44.729995
2244.000000	44.810932
2243.000000	44.886956
2242.000000	44.958097
2241.000000	45.025468
2240.000000	45.089290
2239.000000	45.148455
2238.000000	45.202319
2237.000000	45.251092
2236.000000	45.294349
2235.000000	45.330746
2234.000000	45.359957
2233.000000	45.383265
2232.000000	45.401880
2231.000000	45.416475
2230.000000	45.428629
2229.000000	45.440974
2228.000000	45.455055
2227.000000	45.470397
2226.000000	45.486141
2225.000000	45.501942
2224.000000	45.516785
2223.000000	45.528696
2222.000000	45.536379
2221.000000	45.539920
2220.000000	45.539379
2219.000000	45.534232
2218.000000	45.524922
2217.000000	45.513430
2216.000000	45.501717
2215.000000	45.490749
2214.000000	45.481521
2213.000000	45.475291
2212.000000	45.472108
2211.000000	45.470548
2210.000000	45.469623
2209.000000	45.469860
2208.000000	45.472081
2207.000000	45.476358
2206.000000	45.482122
2205.000000	45.487664
2204.000000	45.488953
2203.000000	45.481010
2202.000000	45.461734
2201.000000	45.434377
2200.000000	45.406507
2199.000000	45.388305
2198.000000	45.390718
2197.000000	45.421683
2196.000000	45.481559
2195.000000	45.562763
2194.000000	45.654467
2193.000000	45.747048
2192.000000	45.833481
2191.000000	45.909500
2190.000000	45.974108
2189.000000	46.028587
2188.000000	46.073980
2187.000000	46.110355
2186.000000	46.138264
2185.000000	46.159493
2184.000000	46.175509
2183.000000	46.186556
2182.000000	46.192657
2181.000000	46.194407
2180.000000	46.192352
2179.000000	46.187012
2178.000000	46.180185
2177.000000	46.174787
2176.000000	46.172977
2175.000000	46.175513
2174.000000	46.183252
2173.000000	46.197777
2172.000000	46.219865
2171.000000	46.248808
2170.000000	46.283551
2169.000000	46.323106
2168.000000	46.365468
2167.000000	46.407707
2166.000000	46.447717
2165.000000	46.484872
2164.000000	46.518886
2163.000000	46.549558
2162.000000	46.578074
2161.000000	46.606903
2160.000000	46.637750
2159.000000	46.670797
2158.000000	46.706169
2157.000000	46.744446
2156.000000	46.785221
2155.000000	46.826731
2154.000000	46.867581
2153.000000	46.907368
2152.000000	46.945110
2151.000000	46.978600
2150.000000	47.005906
2149.000000	47.026289
2148.000000	47.038986
2147.000000	47.042636
2146.000000	47.036611
2145.000000	47.021740
2144.000000	46.998721
2143.000000	46.967357
2142.000000	46.928374
2141.000000	46.884445
2140.000000	46.838713
2139.000000	46.793542
2138.000000	46.751787
2137.000000	46.717551
2136.000000	46.694823
2135.000000	46.686722
2134.000000	46.696348
2133.000000	46.726410
2132.000000	46.776509
2131.000000	46.841935
2130.000000	46.915810
2129.000000	46.991350
2128.000000	47.061971
2127.000000	47.121744
2126.000000	47.167496
2125.000000	47.199630
2124.000000	47.220279
2123.000000	47.231333
2122.000000	47.234567
2121.000000	47.231931
2120.000000	47.224479
2119.000000	47.212400
2118.000000	47.197224
2117.000000	47.182562
2116.000000	47.171563
2115.000000	47.164730
2114.000000	47.160803
2113.000000	47.158444
2112.000000	47.156182
2111.000000	47.152236
2110.000000	47.145617
2109.000000	47.136430
2108.000000	47.124577
2107.000000	47.109610
2106.000000	47.092790
2105.000000	47.077920
2104.000000	47.069465
2103.000000	47.070836
2102.000000	47.084589
2101.000000	47.112444
2100.000000	47.153499
2099.000000	47.204395
2098.000000	47.261507
2097.000000	47.321898
2096.000000	47.382308
2095.000000	47.437707
2094.000000	47.482447
2093.000000	47.511997
2092.000000	47.523137
2091.000000	47.514431
2090.000000	47.488080
2089.000000	47.450603
2088.000000	47.411082
2087.000000	47.379224
2086.000000	47.364513
2085.000000	47.374419
2084.000000	47.411349
2083.000000	47.471957
2082.000000	47.550155
2081.000000	47.639856
2080.000000	47.734870
2079.000000	47.829198
2078.000000	47.918663
2077.000000	48.001249
2076.000000	48.076371
2075.000000	48.143343
2074.000000	48.202356
2073.000000	48.254565
2072.000000	48.299960
2071.000000	48.337703
2070.000000	48.367335
2069.000000	48.388992
2068.000000	48.402827
2067.000000	48.410649
2066.000000	48.417738
2065.000000	48.430135
2064.000000	48.449059
2063.000000	48.470683
2062.000000	48.492365
2061.000000	48.515894
2060.000000	48.543733
2059.000000	48.575150
2058.000000	48.608221
2057.000000	48.643043
2056.000000	48.680514
2055.000000	48.719395
2054.000000	48.757492
2053.000000	48.793931
2052.000000	48.828018
2051.000000	48.858458
2050.000000	48.884652
2049.000000	48.907208
2048.000000	48.926980
2047.000000	48.944816
2046.000000	48.961559
2045.000000	48.978128
2044.000000	48.995334
2043.000000	49.014442
2042.000000	49.037805
2041.000000	49.067466
2040.000000	49.102524
2039.000000	49.139301
2038.000000	49.174831
2037.000000	49.208536
2036.000000	49.240262
2035.000000	49.268603
2034.000000	49.292610
2033.000000	49.313994
2032.000000	49.335543
2031.000000	49.357603
2030.000000	49.379149
2029.000000	49.399774
2028.000000	49.419977
2027.000000	49.439375
2026.000000	49.456731
2025.000000	49.472005
2024.000000	49.485457
2023.000000	49.497838
2022.000000	49.508653
2021.000000	49.515763
2020.000000	49.517484
2019.000000	49.516136
2018.000000	49.518885
2017.000000	49.532730
2016.000000	49.557628
2015.000000	49.586690
2014.000000	49.613895
2013.000000	49.638660
2012.000000	49.662574
2011.000000	49.684590
2010.000000	49.702464
2009.000000	49.717097
2008.000000	49.732823
2007.000000	49.752410
2006.000000	49.775711
2005.000000	49.803399
2004.000000	49.836102
2003.000000	49.873760
2002.000000	49.913562
2001.000000	49.954013
2000.000000	49.994979
1999.000000	50.033202
1998.000000	50.066535
1997.000000	50.093564
1996.000000	50.110198
1995.000000	50.111077
1994.000000	50.097778
1993.000000	50.080211
1992.000000	50.066123
1991.000000	50.051288
1990.000000	50.027531
1989.000000	49.996657
1988.000000	49.968210
1987.000000	49.947217
1986.000000	49.930659
1985.000000	49.916455
1984.000000	49.908293
1983.000000	49.911601
1982.000000	49.926802
1981.000000	49.951391
1980.000000	49.981835
1979.000000	50.011929
1978.000000	50.037513
1977.000000	50.057773
1976.000000	50.074834
1975.000000	50.092191
1974.000000	50.115006
1973.000000	50.147290
1972.000000	50.186715
1971.000000	50.224182
1970.000000	50.251405
1969.000000	50.268552
1968.000000	50.284343
1967.000000	50.307366
1966.000000	50.335983
1965.000000	50.359369
1964.000000	50.369412
1963.000000	50.367615
1962.000000	50.360541
1961.000000	50.351845
1960.000000	50.338900
1959.000000	50.318077
1958.000000	50.289995
1957.000000	50.257980
1956.000000	50.225348
1955.000000	50.193266
1954.000000	50.162283
1953.000000	50.132074
1952.000000	50.103953
1951.000000	50.082989
1950.000000	50.071375
1949.000000	50.070767
1948.000000	50.085432
1947.000000	50.117601
1946.000000	50.162390
1945.000000	50.212799
1944.000000	50.271711
1943.000000	50.351998
1942.000000	50.457423
1941.000000	50.570462
1940.000000	50.671240
1939.000000	50.758017
1938.000000	50.839889
1937.000000	50.919305
1936.000000	50.989380
1935.000000	51.045005
1934.000000	51.090165
1933.000000	51.128450
1932.000000	51.158396
1931.000000	51.178777
1930.000000	51.186138
1929.000000	51.184210
1928.000000	51.176327
1927.000000	51.158703
1926.000000	51.123143
1925.000000	51.067601
1924.000000	51.015538
1923.000000	50.994077
1922.000000	51.001660
1921.000000	51.013985
1920.000000	51.016803
1919.000000	51.017882
1918.000000	51.026136
1917.000000	51.031382
1916.000000	51.020333
1915.000000	50.996793
1914.000000	50.975159
1913.000000	50.958512
1912.000000	50.938983
1911.000000	50.915361
1910.000000	50.898741
1909.000000	50.906098
1908.000000	50.937175
1907.000000	50.979391
1906.000000	51.024023
1905.000000	51.067144
1904.000000	51.112831
1903.000000	51.157925
1902.000000	51.193125
1901.000000	51.219820
1900.000000	51.243374
1899.000000	51.262701
1898.000000	51.274261
1897.000000	51.281709
1896.000000	51.304419
1895.000000	51.356226
1894.000000	51.425394
1893.000000	51.487855
1892.000000	51.533653
1891.000000	51.573976
1890.000000	51.629048
1889.000000	51.704439
1888.000000	51.781791
1887.000000	51.842180
1886.000000	51.888163
1885.000000	51.935669
1884.000000	51.994060
1883.000000	52.055516
1882.000000	52.106907
1881.000000	52.150848
1880.000000	52.195955
1879.000000	52.241071
1878.000000	52.280553
1877.000000	52.309808
1876.000000	52.329396
1875.000000	52.342108
1874.000000	52.343234
1873.000000	52.325456
1872.000000	52.286328
1871.000000	52.224874
1870.000000	52.149495
1869.000000	52.092738
1868.000000	52.086845
1867.000000	52.123508
1866.000000	52.172804
1865.000000	52.218680
1864.000000	52.256435
1863.000000	52.279458
1862.000000	52.281451
1861.000000	52.270085
1860.000000	52.264255
1859.000000	52.276265
1858.000000	52.305433
1857.000000	52.348906
1856.000000	52.404708
1855.000000	52.468283
1854.000000	52.530037
1853.000000	52.591578
1852.000000	52.654562
1851.000000	52.707769
1850.000000	52.750934
1849.000000	52.793297
1848.000000	52.842421
1847.000000	52.895382
1846.000000	52.950962
1845.000000	53.018653
1844.000000	53.094425
1843.000000	53.142841
1842.000000	53.141553
1841.000000	53.118997
1840.000000	53.108600
1839.000000	53.118025
1838.000000	53.135938
1837.000000	53.154613
1836.000000	53.183177
1835.000000	53.222467
1834.000000	53.256330
1833.000000	53.270678
1832.000000	53.260148
1831.000000	53.245938
1830.000000	53.278184
1829.000000	53.358998
1828.000000	53.435247
1827.000000	53.482486
1826.000000	53.525411
1825.000000	53.587809
1824.000000	53.659111
1823.000000	53.718834
1822.000000	53.771103
1821.000000	53.832256
1820.000000	53.902555
1819.000000	53.974127
1818.000000	54.040220
1817.000000	54.097153
1816.000000	54.151120
1815.000000	54.197902
1814.000000	54.226028
1813.000000	54.233002
1812.000000	54.237195
1811.000000	54.270931
1810.000000	54.330322
1809.000000	54.386832
1808.000000	54.435491
1807.000000	54.484651
1806.000000	54.529723
1805.000000	54.557873
1804.000000	54.571177
1803.000000	54.571983
1802.000000	54.563482
1801.000000	54.557916
1800.000000	54.564437
1799.000000	54.579785
1798.000000	54.583729
1797.000000	54.571285
1796.000000	54.561666
1795.000000	54.563096
1794.000000	54.565088
1793.000000	54.563368
1792.000000	54.577751
1791.000000	54.617290
1790.000000	54.656230
1789.000000	54.688750
1788.000000	54.736170
1787.000000	54.807141
1786.000000	54.883599
1785.000000	54.940791
1784.000000	54.972213
1783.000000	54.969887
1782.000000	54.948158
1781.000000	54.947317
1780.000000	54.978294
1779.000000	55.019206
1778.000000	55.039931
1777.000000	55.044869
1776.000000	55.048704
1775.000000	55.049445
1774.000000	55.054002
1773.000000	55.098635
1772.000000	55.208318
1771.000000	55.344988
1770.000000	55.454229
1769.000000	55.530783
1768.000000	55.601782
1767.000000	55.670870
1766.000000	55.716213
1765.000000	55.730380
1764.000000	55.734504
1763.000000	55.756028
1762.000000	55.807891
1761.000000	55.854969
1760.000000	55.856846
1759.000000	55.829900
1758.000000	55.812639
1757.000000	55.835560
1756.000000	55.872133
1755.000000	55.880824
1754.000000	55.867336
1753.000000	55.855839
1752.000000	55.838670
1751.000000	55.797724
1750.000000	55.741475
1749.000000	55.702636
1748.000000	55.711797
1747.000000	55.745942
1746.000000	55.768072
1745.000000	55.760770
1744.000000	55.732382
1743.000000	55.709080
1742.000000	55.691091
1741.000000	55.654335
1740.000000	55.607727
1739.000000	55.582063
1738.000000	55.570634
1737.000000	55.554101
1736.000000	55.535656
1735.000000	55.535905
1734.000000	55.563916
1733.000000	55.560794
1732.000000	55.491972
1731.000000	55.434482
1730.000000	55.450361
1729.000000	55.524785
1728.000000	55.593232
1727.000000	55.612684
1726.000000	55.599414
1725.000000	55.571744
1724.000000	55.543438
1723.000000	55.537714
1722.000000	55.543551
1721.000000	55.524329
1720.000000	55.451619
1719.000000	55.337791
1718.000000	55.242737
1717.000000	55.200619
1716.000000	55.202260
1715.000000	55.237347
1714.000000	55.280704
1713.000000	55.297611
1712.000000	55.292522
1711.000000	55.287392
1710.000000	55.280120
1709.000000	55.252724
1708.000000	55.188644
1707.000000	55.098717
1706.000000	55.028432
1705.000000	55.007908
1704.000000	55.025879
1703.000000	55.063992
1702.000000	55.106952
1701.000000	55.111308
1700.000000	55.015745
1699.000000	54.801981
1698.000000	54.524262
1697.000000	54.327424
1696.000000	54.331303
1695.000000	54.431406
1694.000000	54.417612
1693.000000	54.272162
1692.000000	54.091278
1691.000000	53.934887
1690.000000	53.800482
1689.000000	53.672734
1688.000000	53.535600
1687.000000	53.382089
1686.000000	53.207492
1685.000000	53.028300
1684.000000	52.944955
1683.000000	52.904186
1682.000000	52.763288
1681.000000	52.583354
1680.000000	52.455124
1679.000000	52.384395
1678.000000	52.327914
1677.000000	52.243760
1676.000000	52.114865
1675.000000	51.932580
1674.000000	51.704334
1673.000000	51.443774
1672.000000	51.178430
1671.000000	50.948370
1670.000000	50.782826
1669.000000	50.669779
1668.000000	50.543818
1667.000000	50.374250
1666.000000	50.186974
1665.000000	49.987199
1664.000000	49.770076
1663.000000	49.554368
1662.000000	49.357557
1661.000000	49.166120
1660.000000	48.954337
1659.000000	48.731589
1658.000000	48.531744
1657.000000	48.355558
1656.000000	48.164714
1655.000000	47.914660
1654.000000	47.653581
1653.000000	47.498808
1652.000000	47.326758
1651.000000	47.010655
1650.000000	46.652921
1649.000000	46.278647
1648.000000	45.902007
1647.000000	45.593515
1646.000000	45.355059
1645.000000	45.073138
1644.000000	44.712568
1643.000000	44.323988
1642.000000	43.937854
1641.000000	43.568489
1640.000000	43.213253
1639.000000	42.879312
1638.000000	42.581145
1637.000000	42.355377
1636.000000	42.282288
1635.000000	42.354664
1634.000000	42.434018
1633.000000	42.453432
1632.000000	42.468286
1631.000000	42.520330
1630.000000	42.608414
1629.000000	42.720273
1628.000000	42.860936
1627.000000	43.020149
1626.000000	43.171853
1625.000000	43.313371
1624.000000	43.480101
1623.000000	43.709441
1622.000000	43.968721
1621.000000	44.193237
1620.000000	44.364446
1619.000000	44.522647
1618.000000	44.739395
1617.000000	45.076386
1616.000000	45.476577
1615.000000	45.786353
1614.000000	45.951460
1613.000000	46.024190
1612.000000	46.045239
1611.000000	46.001263
1610.000000	45.861967
1609.000000	45.622226
1608.000000	45.279069
1607.000000	44.800136
1606.000000	44.141668
1605.000000	43.248564
1604.000000	42.042299
1603.000000	40.456791
1602.000000	38.473894
1601.000000	36.126481
1600.000000	33.491518
1599.000000	30.686016
1598.000000	27.803866
1597.000000	24.881424
1596.000000	22.022798
1595.000000	19.550917
1594.000000	17.880155
1593.000000	17.193965
1592.000000	17.352946
1591.000000	18.086373
1590.000000	19.177176
1589.000000	20.463428
1588.000000	21.797104
1587.000000	23.055643
1586.000000	24.167934
1585.000000	25.151279
1584.000000	26.084958
1583.000000	27.035315
1582.000000	27.994709
1581.000000	28.894708
1580.000000	29.692453
1579.000000	30.433343
1578.000000	31.220214
1577.000000	32.116873
1576.000000	33.054575
1575.000000	33.845762
1574.000000	34.402385
1573.000000	34.805209
1572.000000	35.170025
1571.000000	35.603205
1570.000000	36.174898
1569.000000	36.844574
1568.000000	37.477559
1567.000000	38.037677
1566.000000	38.607287
1565.000000	39.229350
1564.000000	39.841943
1563.000000	40.380091
1562.000000	40.851714
1561.000000	41.332192
1560.000000	41.856912
1559.000000	42.629832
1558.000000	43.558047
1557.000000	44.188329
1556.000000	44.578605
1555.000000	44.979827
1554.000000	45.453220
1553.000000	45.910760
1552.000000	46.254491
1551.000000	46.534017
1550.000000	46.836680
1549.000000	47.163006
1548.000000	47.440297
1547.000000	47.632512
1546.000000	47.768053
1545.000000	47.888523
1544.000000	48.008849
1543.000000	48.117483
1542.000000	48.201616
1541.000000	48.312920
1540.000000	48.610956
1539.000000	49.032911
1538.000000	49.329975
1537.000000	49.471645
1536.000000	49.557077
1535.000000	49.647875
1534.000000	49.800795
1533.000000	50.026378
1532.000000	50.233355
1531.000000	50.363534
1530.000000	50.452345
1529.000000	50.534254
1528.000000	50.622161
1527.000000	50.718310
1526.000000	50.814640
1525.000000	50.879341
1524.000000	50.881754
1523.000000	50.840003
1522.000000	50.826947
1521.000000	50.868632
1520.000000	50.851086
1519.000000	50.682109
1518.000000	50.415008
1517.000000	50.158987
1516.000000	49.979538
1515.000000	49.851625
1514.000000	49.756404
1513.000000	49.715346
1512.000000	49.735959
1511.000000	49.800096
1510.000000	49.861092
1509.000000	49.902568
1508.000000	49.996327
1507.000000	50.402502
1506.000000	51.061725
1505.000000	51.516467
1504.000000	51.681426
1503.000000	51.756628
1502.000000	51.853298
1501.000000	51.991705
1500.000000	52.133208
1499.000000	52.251817
1498.000000	52.365206
1497.000000	52.495903
1496.000000	52.638515
1495.000000	52.757397
1494.000000	52.830241
1493.000000	52.872205
1492.000000	52.905945
1491.000000	52.955697
1490.000000	53.068921
1489.000000	53.270255
1488.000000	53.532157
1487.000000	53.823498
1486.000000	54.101205
1485.000000	54.338898
1484.000000	54.533543
1483.000000	54.697545
1482.000000	54.863343
1481.000000	55.041027
1480.000000	55.213869
1479.000000	55.363517
1478.000000	55.491423
1477.000000	55.603564
1476.000000	55.715391
1475.000000	55.841804
1474.000000	56.007073
1473.000000	56.270359
1472.000000	56.625356
1471.000000	56.946920
1470.000000	57.147765
1469.000000	57.259120
1468.000000	57.337528
1467.000000	57.399645
1466.000000	57.414053
1465.000000	57.335064
1464.000000	57.102850
1463.000000	56.684508
1462.000000	56.110344
1461.000000	55.440315
1460.000000	54.738835
1459.000000	54.067136
1458.000000	53.490125
1457.000000	53.042932
1456.000000	52.620433
1455.000000	52.070320
1454.000000	51.338166
1453.000000	50.375921
1452.000000	49.154362
1451.000000	47.699982
1450.000000	45.987233
1449.000000	43.896841
1448.000000	41.434604
1447.000000	38.943041
1446.000000	36.959848
1445.000000	35.929206
1444.000000	36.069237
1443.000000	37.328050
1442.000000	39.334293
1441.000000	41.546144
1440.000000	43.533691
1439.000000	45.132322
1438.000000	46.357675
1437.000000	47.267912
1436.000000	47.937087
1435.000000	48.470820
1434.000000	49.000508
1433.000000	49.625080
1432.000000	50.353789
1431.000000	51.116545
1430.000000	51.836893
1429.000000	52.465905
1428.000000	52.973322
1427.000000	53.345869
1426.000000	53.619513
1425.000000	53.865443
1424.000000	54.116661
1423.000000	54.366382
1422.000000	54.606632
1421.000000	54.847395
1420.000000	55.083838
1419.000000	55.320069
1418.000000	55.565249
1417.000000	55.786893
1416.000000	55.978824
1415.000000	56.168328
1414.000000	56.366058
1413.000000	56.557620
1412.000000	56.722074
1411.000000	56.863553
1410.000000	57.000669
1409.000000	57.123995
1408.000000	57.209250
1407.000000	57.246524
1406.000000	57.253054
1405.000000	57.256677
1404.000000	57.244173
1403.000000	57.189071
1402.000000	57.103891
1401.000000	57.024106
1400.000000	56.973115
1399.000000	56.959681
1398.000000	56.976706
1397.000000	57.006433
1396.000000	57.047928
1395.000000	57.095799
1394.000000	57.096342
1393.000000	56.955637
1392.000000	56.626479
1391.000000	56.160835
1390.000000	55.655122
1389.000000	55.186634
1388.000000	54.814366
1387.000000	54.604301
1386.000000	54.597364
1385.000000	54.779822
1384.000000	55.116420
1383.000000	55.581451
1382.000000	56.141791
1381.000000	56.744394
1380.000000	57.334877
1379.000000	57.869036
1378.000000	58.313787
1377.000000	58.645095
1376.000000	58.846308
1375.000000	58.908063
1374.000000	58.807211
1373.000000	58.439913
1372.000000	57.613134
1371.000000	56.113473
1370.000000	53.793836
1369.000000	50.700748
1368.000000	47.202573
1367.000000	43.952220
1366.000000	41.608520
1365.000000	40.571758
1364.000000	40.921815
1363.000000	42.422325
1362.000000	44.554543
1361.000000	46.751289
1360.000000	48.682307
1359.000000	50.281639
1358.000000	51.602240
1357.000000	52.708669
1356.000000	53.643654
1355.000000	54.431087
1354.000000	55.090521
1353.000000	55.640016
1352.000000	56.099348
1351.000000	56.484990
1350.000000	56.815371
1349.000000	57.115111
1348.000000	57.390540
1347.000000	57.631780
1346.000000	57.838100
1345.000000	58.024046
1344.000000	58.197085
1343.000000	58.346856
1342.000000	58.469212
1341.000000	58.587447
1340.000000	58.737619
1339.000000	58.931083
1338.000000	59.141954
1337.000000	59.335501
1336.000000	59.494097
1335.000000	59.618984
1334.000000	59.727067
1333.000000	59.840178
1332.000000	59.965913
1331.000000	60.092089
1330.000000	60.204710
1329.000000	60.300810
1328.000000	60.378418
1327.000000	60.426354
1326.000000	60.433140
1325.000000	60.390201
1324.000000	60.274165
1323.000000	60.034935
1322.000000	59.603130
1321.000000	58.889415
1320.000000	57.773704
1319.000000	56.152631
1318.000000	54.058549
1317.000000	51.751561
1316.000000	49.674894
1315.000000	48.265670
1314.000000	47.729565
1313.000000	47.967855
1312.000000	48.719165
1311.000000	49.763467
1310.000000	51.003010
1309.000000	52.374123
1308.000000	53.767408
1307.000000	55.062431
1306.000000	56.198851
1305.000000	57.183102
1304.000000	58.031366
1303.000000	58.747201
1302.000000	59.343273
1301.000000	59.843668
1300.000000	60.253971
1299.000000	60.563002
1298.000000	60.760053
1297.000000	60.805314
1296.000000	60.595191
1295.000000	60.005712
1294.000000	59.006615
1293.000000	57.706842
1292.000000	56.292014
1291.000000	54.969534
1290.000000	53.976076
1289.000000	53.549896
1288.000000	53.793750
1287.000000	54.541439
1286.000000	55.417935
1285.000000	56.096849
1284.000000	56.488727
1283.000000	56.703446
1282.000000	56.892275
1281.000000	57.131715
1280.000000	57.392941
1279.000000	57.547708
1278.000000	57.379745
1277.000000	56.610667
1276.000000	54.979512
1275.000000	52.376778
1274.000000	49.018286
1273.000000	45.567589
1272.000000	43.024024
1271.000000	42.258364
1270.000000	43.477618
1269.000000	46.106588
1268.000000	49.196592
1267.000000	51.993758
1266.000000	54.192646
1265.000000	55.823161
1264.000000	57.030314
1263.000000	57.944943
1262.000000	58.661273
1261.000000	59.242886
1260.000000	59.723769
1259.000000	60.119915
1258.000000	60.451236
1257.000000	60.733470
1256.000000	60.969708
1255.000000	61.164818
1254.000000	61.334420
1253.000000	61.495408
1252.000000	61.653770
1251.000000	61.814010
1250.000000	61.988914
1249.000000	62.188518
1248.000000	62.408486
1247.000000	62.640475
1246.000000	62.885193
1245.000000	63.143479
1244.000000	63.404141
1243.000000	63.652637
1242.000000	63.883657
1241.000000	64.094021
1240.000000	64.272045
1239.000000	64.405534
1238.000000	64.494756
1237.000000	64.544404
1236.000000	64.551530
1235.000000	64.514852
1234.000000	64.444640
1233.000000	64.353105
1232.000000	64.240833
1231.000000	64.103303
1230.000000	63.942905
1229.000000	63.757378
1228.000000	63.528213
1227.000000	63.229225
1226.000000	62.836425
1225.000000	62.323996
1224.000000	61.653974
1223.000000	60.792864
1222.000000	59.731586
1221.000000	58.479949
1220.000000	57.062749
1219.000000	55.519671
1218.000000	53.901113
1217.000000	52.249421
1216.000000	50.586702
1215.000000	48.925771
1214.000000	47.275155
1213.000000	45.636025
1212.000000	44.013885
1211.000000	42.445328
1210.000000	41.002483
1209.000000	39.781860
1208.000000	38.883176
1207.000000	38.366113
1206.000000	38.209339
1205.000000	38.304857
1204.000000	38.536893
1203.000000	38.871766
1202.000000	39.364842
1201.000000	40.100940
1200.000000	41.106995
1199.000000	42.319257
1198.000000	43.617903
1197.000000	44.888298
1196.000000	46.073125
1195.000000	47.175566
1194.000000	48.230167
1193.000000	49.271065
1192.000000	50.315648
1191.000000	51.363743
1190.000000	52.403170
1189.000000	53.413521
1188.000000	54.369315
1187.000000	55.251073
1186.000000	56.049606
1185.000000	56.761927
1184.000000	57.384433
1183.000000	57.911056
1182.000000	58.340566
1181.000000	58.674732
1180.000000	58.920523
1179.000000	59.098982
1178.000000	59.241095
1177.000000	59.372493
1176.000000	59.503324
1175.000000	59.639238
1174.000000	59.792370
1173.000000	59.972757
1172.000000	60.178355
1171.000000	60.401281
1170.000000	60.637495
1169.000000	60.881813
1168.000000	61.120501
1167.000000	61.339023
1166.000000	61.532154
1165.000000	61.698744
1164.000000	61.834198
1163.000000	61.938305
1162.000000	62.025225
1161.000000	62.114400
1160.000000	62.215760
1159.000000	62.331720
1158.000000	62.465506
1157.000000	62.617641
1156.000000	62.780520
1155.000000	62.946804
1154.000000	63.117996
1153.000000	63.295594
1152.000000	63.470135
1151.000000	63.629094
1150.000000	63.769236
1149.000000	63.891565
1148.000000	63.989201
1147.000000	64.052984
1146.000000	64.082468
1145.000000	64.078064
1144.000000	64.031105
1143.000000	63.929351
1142.000000	63.769465
1141.000000	63.554141
1140.000000	63.280133
1139.000000	62.944789
1138.000000	62.549835
1137.000000	62.090823
1136.000000	61.550121
1135.000000	60.901268
1134.000000	60.120902
1133.000000	59.180111
1132.000000	58.042742
1131.000000	56.693464
1130.000000	55.153239
1129.000000	53.473281
1128.000000	51.707208
1127.000000	49.883395
1126.000000	47.983826
1125.000000	45.928648
1124.000000	43.626728
1123.000000	41.061343
1122.000000	38.329388
1121.000000	35.571514
1120.000000	32.833516
1119.000000	29.991382
1118.000000	26.862367
1117.000000	23.489610
1116.000000	20.351592
1115.000000	18.273527
1114.000000	17.981904
1113.000000	19.660127
1112.000000	22.856241
1111.000000	26.709302
1110.000000	30.343396
1109.000000	33.170275
1108.000000	34.931076
1107.000000	35.514452
1106.000000	34.799433
1105.000000	32.750070
1104.000000	29.730478
1103.000000	26.673073
1102.000000	24.755245
1101.000000	24.756930
1100.000000	26.654895
1099.000000	29.753990
1098.000000	33.182281
1097.000000	36.343325
1096.000000	39.017837
1095.000000	41.227300
1094.000000	43.073819
1093.000000	44.654602
1092.000000	46.039056
1091.000000	47.272548
1090.000000	48.385324
1089.000000	49.396222
1088.000000	50.319648
1087.000000	51.163209
1086.000000	51.937685
1085.000000	52.656818
1084.000000	53.326519
1083.000000	53.949087
1082.000000	54.529435
1081.000000	55.076508
1080.000000	55.595795
1079.000000	56.088997
1078.000000	56.563147
1077.000000	57.025801
1076.000000	57.475306
1075.000000	57.903955
1074.000000	58.305426
1073.000000	58.673150
1072.000000	58.985255
1071.000000	59.205999
1070.000000	59.298860
1069.000000	59.217650
1068.000000	58.903554
1067.000000	58.285813
1066.000000	57.300593
1065.000000	55.910750
1064.000000	54.102810
1063.000000	51.910580
1062.000000	49.400823
1061.000000	46.629824
1060.000000	43.614160
1059.000000	40.328223
1058.000000	36.751837
1057.000000	32.932352
1056.000000	29.047249
1055.000000	25.410901
1054.000000	22.418106
1053.000000	20.425812
1052.000000	19.666224
1051.000000	20.188324
1050.000000	21.800494
1049.000000	24.144076
1048.000000	26.808484
1047.000000	29.448006
1046.000000	31.855316
1045.000000	33.952098
1044.000000	35.751635
1043.000000	37.297702
1042.000000	38.623160
1041.000000	39.742520
1040.000000	40.673543
1039.000000	41.447736
1038.000000	42.109961
1037.000000	42.711705
1036.000000	43.298138
1035.000000	43.905367
1034.000000	44.552251
1033.000000	45.238332
1032.000000	45.951155
1031.000000	46.675847
1030.000000	47.399654
1029.000000	48.110152
1028.000000	48.797346
1027.000000	49.461760
1026.000000	50.117704
1025.000000	50.783719
1024.000000	51.470660
1023.000000	52.178714
1022.000000	52.901817
1021.000000	53.625996
1020.000000	54.329191
1019.000000	54.983552
1018.000000	55.551948
1017.000000	55.982206
1016.000000	56.186627
1015.000000	56.056640
1014.000000	55.477719
1013.000000	54.334387
1012.000000	52.537137
1011.000000	50.023829
1010.000000	46.772230
1009.000000	42.816353
1008.000000	38.320910
1007.000000	33.707059
1006.000000	29.676103
1005.000000	27.010687
1004.000000	26.227526
1003.000000	27.305794
1002.000000	29.669433
1001.000000	32.474383
1000.000000	34.926846
999.000000	36.432314
998.000000	36.643310
997.000000	35.549558
996.000000	33.616697
995.000000	31.730509
994.000000	30.797660
993.000000	31.251682
992.000000	32.887362
991.000000	35.123638
990.000000	37.411876
989.000000	39.466699
988.000000	41.236160
987.000000	42.758394
986.000000	44.076386
985.000000	45.219093
984.000000	46.204412
983.000000	47.045761
982.000000	47.766638
981.000000	48.399781
980.000000	48.970790
979.000000	49.498460
978.000000	49.998841
977.000000	50.486773
976.000000	50.965767
975.000000	51.427180
974.000000	51.864075
973.000000	52.272300
972.000000	52.643819
971.000000	52.969151
970.000000	53.248320
969.000000	53.491693
968.000000	53.707382
967.000000	53.900715
966.000000	54.084036
965.000000	54.274254
964.000000	54.480513
963.000000	54.702439
962.000000	54.940149
961.000000	55.195027
960.000000	55.460628
959.000000	55.724564
958.000000	55.980581
957.000000	56.229464
956.000000	56.468355
955.000000	56.689870
954.000000	56.892690
953.000000	57.080714
952.000000	57.251938
951.000000	57.399563
950.000000	57.522689
949.000000	57.626270
948.000000	57.710032
947.000000	57.770243
946.000000	57.812750
945.000000	57.851419
944.000000	57.895426
943.000000	57.949268
942.000000	58.023916
941.000000	58.134187
940.000000	58.284473
939.000000	58.467091
938.000000	58.673865
937.000000	58.896748
936.000000	59.117228
935.000000	59.309613
934.000000	59.457784
933.000000	59.557995
932.000000	59.606558
931.000000	59.601408
930.000000	59.554920
929.000000	59.491908
928.000000	59.432576
927.000000	59.388608
926.000000	59.374406
925.000000	59.405931
924.000000	59.486616
923.000000	59.606924
922.000000	59.759020
921.000000	59.937466
920.000000	60.127396
919.000000	60.307265
918.000000	60.466252
917.000000	60.605350
916.000000	60.720938
915.000000	60.803518
914.000000	60.854166
913.000000	60.885638
912.000000	60.903500
911.000000	60.904420
910.000000	60.893163
909.000000	60.884024
908.000000	60.882238
907.000000	60.878389
906.000000	60.862865
905.000000	60.829752
904.000000	60.770828
903.000000	60.689831
902.000000	60.622355
901.000000	60.614281
900.000000	60.670604
899.000000	60.740188
898.000000	60.756085
897.000000	60.665754
896.000000	60.437046
895.000000	60.073447
894.000000	59.614191
893.000000	59.053692
892.000000	58.238325
891.000000	56.948073
890.000000	55.192781
889.000000	53.415059
888.000000	52.276117
887.000000	52.182069
886.000000	53.001088
885.000000	54.238448
884.000000	55.451836
883.000000	56.460585
882.000000	57.273403
881.000000	57.935822
880.000000	58.469052
879.000000	58.891274
878.000000	59.228490
877.000000	59.499064
876.000000	59.708350
875.000000	59.861049
874.000000	59.964756
873.000000	60.029032
872.000000	60.066320
871.000000	60.094219
870.000000	60.130555
869.000000	60.183580
868.000000	60.253008
867.000000	60.337372
866.000000	60.435972
865.000000	60.544938
864.000000	60.658214
863.000000	60.773705
862.000000	60.893348
861.000000	61.014517
860.000000	61.125819
859.000000	61.213247
858.000000	61.267082
857.000000	61.280583
856.000000	61.247861
855.000000	61.169968
854.000000	61.058598
853.000000	60.930825
852.000000	60.802991
851.000000	60.692613
850.000000	60.619962
849.000000	60.601298
848.000000	60.641859
847.000000	60.738176
846.000000	60.883729
845.000000	61.066095
844.000000	61.263294
843.000000	61.449080
842.000000	61.602287
841.000000	61.707501
840.000000	61.751659
839.000000	61.727703
838.000000	61.640799
837.000000	61.504899
836.000000	61.334085
835.000000	61.145097
834.000000	60.963362
833.000000	60.817765
832.000000	60.727582
831.000000	60.698060
830.000000	60.725203
829.000000	60.799660
828.000000	60.907994
827.000000	61.036437
826.000000	61.175700
825.000000	61.316559
824.000000	61.443081
823.000000	61.536465
822.000000	61.585720
821.000000	61.586825
820.000000	61.534295
819.000000	61.421441
818.000000	61.244657
817.000000	61.001854
816.000000	60.676898
815.000000	60.231533
814.000000	59.602704
813.000000	58.697358
812.000000	57.410904
811.000000	55.684982
810.000000	53.598544
809.000000	51.420180
808.000000	49.555368
807.000000	48.381012
806.000000	48.066699
805.000000	48.511247
804.000000	49.437065
803.000000	50.553534
802.000000	51.651669
801.000000	52.616228
800.000000	53.396717
799.000000	53.985106
798.000000	54.405253
797.000000	54.694689
796.000000	54.888758
795.000000	55.018215
794.000000	55.113444
793.000000	55.198362
792.000000	55.285922
791.000000	55.383689
790.000000	55.500245
789.000000	55.640266
788.000000	55.795814
787.000000	55.950810
786.000000	56.091583
785.000000	56.208559
784.000000	56.291696
783.000000	56.332125
782.000000	56.328214
781.000000	56.284540
780.000000	56.208546
779.000000	56.115025
778.000000	56.029781
777.000000	55.980540
776.000000	55.983870
775.000000	56.045158
774.000000	56.166193
773.000000	56.345718
772.000000	56.573779
771.000000	56.833604
770.000000	57.109546
769.000000	57.387090
768.000000	57.647612
767.000000	57.871126
766.000000	58.045345
765.000000	58.164654
764.000000	58.222501
763.000000	58.213365
762.000000	58.142543
761.000000	58.026161
760.000000	57.881369
759.000000	57.724598
758.000000	57.576634
757.000000	57.460532
756.000000	57.392842
755.000000	57.382609
754.000000	57.436406
753.000000	57.555484
752.000000	57.727247
751.000000	57.927067
750.000000	58.130012
749.000000	58.314601
748.000000	58.457679
747.000000	58.536534
746.000000	58.539755
745.000000	58.469086
744.000000	58.331723
743.000000	58.139385
742.000000	57.914007
741.000000	57.684078
740.000000	57.472654
739.000000	57.295130
738.000000	57.165527
737.000000	57.093348
736.000000	57.070553
735.000000	57.067836
734.000000	57.044383
733.000000	56.954386
732.000000	56.747111
731.000000	56.379657
730.000000	55.841996
729.000000	55.167788
728.000000	54.421722
727.000000	53.682948
726.000000	53.034147
725.000000	52.547562
724.000000	52.266594
723.000000	52.197133
722.000000	52.317285
721.000000	52.587945
720.000000	52.954564
719.000000	53.356554
718.000000	53.749741
717.000000	54.117431
716.000000	54.458936
715.000000	54.777014
714.000000	55.076280
713.000000	55.360121
712.000000	55.620298
711.000000	55.837465
710.000000	55.997453
709.000000	56.098088
708.000000	56.138025
707.000000	56.112764
706.000000	56.026514
705.000000	55.897540
704.000000	55.747204
703.000000	55.590305
702.000000	55.441992
701.000000	55.323539
700.000000	55.251502
699.000000	55.231457
698.000000	55.266032
697.000000	55.357782
696.000000	55.498160
695.000000	55.662258
694.000000	55.825737
693.000000	55.976615
692.000000	56.101706
691.000000	56.180947
690.000000	56.204006
689.000000	56.179052
688.000000	56.115409
687.000000	56.009765
686.000000	55.865678
685.000000	55.708971
684.000000	55.565647
683.000000	55.442599
682.000000	55.344591
681.000000	55.291946
680.000000	55.300476
679.000000	55.361201
678.000000	55.460599
677.000000	55.597460
676.000000	55.763559
675.000000	55.927036
674.000000	56.065158
673.000000	56.167376
672.000000	56.164835
671.000000	55.927059
670.000000	55.404282
669.000000	54.813747
668.000000	54.470071
667.000000	54.534880
666.000000	54.951380
665.000000	55.361903
664.000000	55.514910
663.000000	55.499023
662.000000	55.473003
661.000000	55.509570
660.000000	55.594308
659.000000	55.719235
658.000000	55.880848
657.000000	56.052284
656.000000	56.206044
655.000000	56.339251
654.000000	56.454286
653.000000	56.536259
652.000000	56.569231
651.000000	56.557921
650.000000	56.514268
649.000000	56.437807
648.000000	56.328338
647.000000	56.204896
646.000000	56.092029
645.000000	56.001330
644.000000	55.939028
643.000000	55.917502
642.000000	55.947448
641.000000	56.025625
640.000000	56.142548
639.000000	56.293351
638.000000	56.468035
637.000000	56.643121
636.000000	56.795787
635.000000	56.916389
634.000000	56.999843
633.000000	57.035020
632.000000	57.012313
631.000000	56.938231
630.000000	56.830527
629.000000	56.702810
628.000000	56.566184
627.000000	56.442986
626.000000	56.363349
625.000000	56.346389
624.000000	56.392494
623.000000	56.491555
622.000000	56.631382
621.000000	56.795586
620.000000	56.964006
619.000000	57.121247
618.000000	57.261990
617.000000	57.386052
616.000000	57.490368
615.000000	57.568032
614.000000	57.613825
613.000000	57.628718
612.000000	57.618844
611.000000	57.594202
610.000000	57.566917
609.000000	57.547209
608.000000	57.540624
607.000000	57.550740
606.000000	57.582212
605.000000	57.639125
604.000000	57.720163
603.000000	57.817557
602.000000	57.921587
601.000000	58.021550
600.000000	58.098107
599.000000	58.116407
598.000000	58.032800
597.000000	57.790114
596.000000	57.308346
595.000000	56.474862
594.000000	55.119704
593.000000	53.001217
592.000000	49.874708
591.000000	45.740581
590.000000	41.112566
589.000000	36.996367
588.000000	34.481188
587.000000	34.181137
586.000000	35.869972
585.000000	38.643822
584.000000	41.552817
583.000000	44.071445
582.000000	46.094109
581.000000	47.696531
580.000000	48.970336
579.000000	49.986069
578.000000	50.794008
577.000000	51.423170
576.000000	51.897235
575.000000	52.255052
574.000000	52.532501
573.000000	52.748141
572.000000	52.916251
571.000000	53.061967
570.000000	53.212080
569.000000	53.375111
568.000000	53.548040
567.000000	53.729502
566.000000	53.910774
565.000000	54.067315
564.000000	54.174319
563.000000	54.228459
562.000000	54.245596
561.000000	54.242558
560.000000	54.231176
559.000000	54.218356
558.000000	54.198269
557.000000	54.153384
556.000000	54.081533
555.000000	54.016746
554.000000	54.006367
553.000000	54.072148
552.000000	54.205860
551.000000	54.391133
550.000000	54.611155
549.000000	54.847935
548.000000	55.092031
547.000000	55.350551
546.000000	55.634556
545.000000	55.938627
544.000000	56.240604
543.000000	56.516577
542.000000	56.748948
541.000000	56.922559
540.000000	57.024532
539.000000	57.051033
538.000000	57.012312
537.000000	56.929591
536.000000	56.825811
535.000000	56.722038
534.000000	56.634821
533.000000	56.575804
532.000000	56.556059
531.000000	56.582630
530.000000	56.648218
529.000000	56.730782
528.000000	56.805903
527.000000	56.854881
526.000000	56.857981
525.000000	56.783425
524.000000	56.590893
523.000000	56.243380
522.000000	55.710503
521.000000	54.955206
520.000000	53.937054
519.000000	52.632703
518.000000	51.060132
517.000000	49.310715
516.000000	47.567062
515.000000	46.068106
514.000000	45.016159
513.000000	44.518528
512.000000	44.589291
511.000000	45.165445
510.000000	46.106082
509.000000	47.237142
508.000000	48.435146
507.000000	49.626377
506.000000	50.741524
505.000000	51.722231
504.000000	52.562284
503.000000	53.294647
502.000000	53.934303
501.000000	54.460474
500.000000	54.859100
499.000000	55.156221
498.000000	55.390121
497.000000	55.582920
496.000000	55.747153
495.000000	55.900093
494.000000	56.062819
493.000000	56.253692
492.000000	56.484313
491.000000	56.750813
490.000000	57.028105
489.000000	57.282649
488.000000	57.485520
487.000000	57.606400
486.000000	57.605026
485.000000	57.435196
484.000000	57.060882
483.000000	56.441702
482.000000	55.520724
481.000000	54.243886
480.000000	52.577028
479.000000	50.516200
478.000000	48.095619
477.000000	45.440939
476.000000	42.826946
475.000000	40.646403
474.000000	39.258634
473.000000	38.861265
472.000000	39.431407
471.000000	40.723599
470.000000	42.413250
469.000000	44.243830
468.000000	46.052924
467.000000	47.721988
466.000000	49.159711
465.000000	50.339984
464.000000	51.300632
463.000000	52.094777
462.000000	52.758265
461.000000	53.315337
460.000000	53.788194
459.000000	54.212721
458.000000	54.637817
457.000000	55.077955
456.000000	55.485427
455.000000	55.830964
454.000000	56.155137
453.000000	56.507386
452.000000	56.886231
451.000000	57.249503
450.000000	57.568692
449.000000	57.847314
448.000000	58.093226
447.000000	58.304371
446.000000	58.476394
445.000000	58.603331
444.000000	58.675929
443.000000	58.701659
442.000000	58.720617
441.000000	58.773516
440.000000	58.866858
439.000000	58.990877
438.000000	59.145385
437.000000	59.338340
436.000000	59.567069
435.000000	59.815705
434.000000	60.071766
433.000000	60.324570
432.000000	60.539139
431.000000	60.668709
430.000000	60.710108
429.000000	60.704371
428.000000	60.678801
427.000000	60.636048
426.000000	60.600608
425.000000	60.613586
424.000000	60.675796
423.000000	60.750662
422.000000	60.830721
421.000000	60.950628
420.000000	61.125610
419.000000	61.378037
418.000000	61.715878
417.000000	62.027379
416.000000	62.249835
415.000000	62.422911
414.000000	62.587815
413.000000	62.771076
412.000000	62.964929
411.000000	63.122028
410.000000	63.205178
409.000000	63.181857
408.000000	62.960860
407.000000	62.472360
406.000000	61.871364
405.000000	61.493295
404.000000	61.522704
403.000000	61.840988
402.000000	62.219743
401.000000	62.574091
400.000000	62.932024
