PE IR       SUBTECH     SPECTRUM    ASCII       PEDS        4.00        
   -1
23ms015-trans.asc
24/10/14
15:09:20.00
24/10/14
15:09:20.00
Administrator
Sample 1260 By Administrator Date Monday, October 14 2024
400.000000
#HDR
-1
-1
#GR
cm-1
%T
1.0
0.0
4000.000000
-1.000000
3601
8
129.234017
29.073337
#DATA
4000.000000	111.528370
3999.000000	111.458452
3998.000000	111.388995
3997.000000	111.337945
3996.000000	111.312853
3995.000000	111.287462
3994.000000	111.223445
3993.000000	111.124608
3992.000000	111.043972
3991.000000	111.019075
3990.000000	111.018822
3989.000000	110.981408
3988.000000	110.893766
3987.000000	110.802442
3986.000000	110.748805
3985.000000	110.725308
3984.000000	110.701497
3983.000000	110.662273
3982.000000	110.605194
3981.000000	110.524018
3980.000000	110.415365
3979.000000	110.300401
3978.000000	110.220972
3977.000000	110.203746
3976.000000	110.233970
3975.000000	110.272699
3974.000000	110.291104
3973.000000	110.289307
3972.000000	110.291070
3971.000000	110.331109
3970.000000	110.430891
3969.000000	110.569623
3968.000000	110.697060
3967.000000	110.772741
3966.000000	110.802711
3965.000000	110.834994
3964.000000	110.921401
3963.000000	111.063971
3962.000000	111.196846
3961.000000	111.237420
3960.000000	111.172080
3959.000000	111.086038
3958.000000	111.076636
3957.000000	111.140400
3956.000000	111.198486
3955.000000	111.193197
3954.000000	111.140157
3953.000000	111.088832
3952.000000	111.086035
3951.000000	111.170978
3950.000000	111.343171
3949.000000	111.527700
3948.000000	111.585977
3947.000000	111.436518
3946.000000	111.202506
3945.000000	111.189904
3944.000000	111.599448
3943.000000	112.232622
3942.000000	112.607218
3941.000000	112.466281
3940.000000	112.086610
3939.000000	111.949154
3938.000000	112.168796
3937.000000	112.416029
3936.000000	112.422081
3935.000000	112.320591
3934.000000	112.433379
3933.000000	112.812776
3932.000000	113.148917
3931.000000	113.125855
3930.000000	112.728411
3929.000000	112.224387
3928.000000	111.918045
3927.000000	111.990819
3926.000000	112.442657
3925.000000	112.982255
3924.000000	113.131631
3923.000000	112.700077
3922.000000	112.086494
3921.000000	111.858038
3920.000000	112.134735
3919.000000	112.620550
3918.000000	113.055008
3917.000000	113.329405
3916.000000	113.333585
3915.000000	113.030920
3914.000000	112.699141
3913.000000	112.742617
3912.000000	113.201895
3911.000000	113.669544
3910.000000	113.755139
3909.000000	113.390175
3908.000000	112.846937
3907.000000	112.463084
3906.000000	112.461504
3905.000000	112.757734
3904.000000	112.919949
3903.000000	112.519284
3902.000000	111.712682
3901.000000	111.259792
3900.000000	111.635941
3899.000000	112.356685
3898.000000	112.555898
3897.000000	112.096198
3896.000000	111.623145
3895.000000	111.699503
3894.000000	112.383185
3893.000000	113.477823
3892.000000	114.626902
3891.000000	115.019925
3890.000000	113.920648
3889.000000	111.837086
3888.000000	110.628841
3887.000000	111.558612
3886.000000	113.735336
3885.000000	114.844562
3884.000000	113.628018
3883.000000	111.513566
3882.000000	110.963912
3881.000000	112.498512
3880.000000	114.290671
3879.000000	114.373014
3878.000000	112.821207
3877.000000	111.518756
3876.000000	111.858223
3875.000000	113.252880
3874.000000	113.995576
3873.000000	113.212863
3872.000000	111.952375
3871.000000	111.939715
3870.000000	113.153840
3869.000000	113.535806
3868.000000	111.837861
3867.000000	109.775169
3866.000000	109.806345
3865.000000	111.822786
3864.000000	113.614648
3863.000000	113.778093
3862.000000	112.947830
3861.000000	112.333760
3860.000000	112.191379
3859.000000	111.961978
3858.000000	111.347115
3857.000000	110.584293
3856.000000	110.341155
3855.000000	111.295285
3854.000000	113.263730
3853.000000	114.239459
3852.000000	111.920978
3851.000000	107.507713
3850.000000	105.122611
3849.000000	106.433110
3848.000000	109.430022
3847.000000	111.930988
3846.000000	113.424483
3845.000000	114.252910
3844.000000	114.587190
3843.000000	114.281738
3842.000000	113.331332
3841.000000	112.241876
3840.000000	111.811088
3839.000000	112.239248
3838.000000	112.791669
3837.000000	112.454606
3836.000000	111.126771
3835.000000	109.830621
3834.000000	109.701581
3833.000000	110.917066
3832.000000	112.615304
3831.000000	113.666203
3830.000000	113.680168
3829.000000	113.340323
3828.000000	113.545166
3827.000000	114.284381
3826.000000	114.572900
3825.000000	113.667771
3824.000000	112.325307
3823.000000	112.188709
3822.000000	113.770885
3821.000000	115.297248
3820.000000	114.340902
3819.000000	111.154435
3818.000000	109.094401
3817.000000	110.448525
3816.000000	113.582125
3815.000000	115.043834
3814.000000	113.620626
3813.000000	111.589857
3812.000000	111.361930
3811.000000	112.625418
3810.000000	113.829041
3809.000000	114.639339
3808.000000	115.634911
3807.000000	116.476277
3806.000000	115.685331
3805.000000	112.969699
3804.000000	110.666216
3803.000000	111.033958
3802.000000	113.923031
3801.000000	115.612418
3800.000000	114.832175
3799.000000	110.735989
3798.000000	116.683372
3797.000000	118.392579
3796.000000	117.818444
3795.000000	118.476444
3794.000000	118.262164
3793.000000	118.112828
3792.000000	117.708012
3791.000000	117.479884
3790.000000	117.301162
3789.000000	117.167229
3788.000000	116.920025
3787.000000	116.858915
3786.000000	117.012439
3785.000000	117.148227
3784.000000	116.930281
3783.000000	116.257796
3782.000000	115.663326
3781.000000	115.832174
3780.000000	116.732258
3779.000000	117.464556
3778.000000	117.223465
3777.000000	116.269769
3776.000000	115.624608
3775.000000	115.746100
3774.000000	116.116266
3773.000000	116.203789
3772.000000	116.268741
3771.000000	116.772756
3770.000000	117.351452
3769.000000	117.059327
3768.000000	115.841556
3767.000000	114.917698
3766.000000	115.204828
3765.000000	116.036082
3764.000000	116.105859
3763.000000	115.299041
3762.000000	114.791022
3761.000000	115.387696
3760.000000	116.487188
3759.000000	116.919119
3758.000000	116.271673
3757.000000	114.971523
3756.000000	113.619152
3755.000000	112.662135
3754.000000	112.447929
3753.000000	112.985695
3752.000000	113.772458
3751.000000	114.048504
3750.000000	113.140783
3749.000000	110.854697
3748.000000	108.030151
3747.000000	106.567918
3746.000000	108.135278
3745.000000	112.273664
3744.000000	115.668086
3743.000000	114.832792
3742.000000	110.863811
3741.000000	108.500315
3740.000000	109.591397
3739.000000	111.949228
3738.000000	113.647275
3737.000000	114.644000
3736.000000	115.265799
3735.000000	115.158512
3734.000000	114.256892
3733.000000	113.546565
3732.000000	113.688212
3731.000000	113.979870
3730.000000	113.709548
3729.000000	113.528023
3728.000000	114.435522
3727.000000	116.188624
3726.000000	117.494018
3725.000000	117.555028
3724.000000	116.947730
3723.000000	116.710786
3722.000000	116.975887
3721.000000	117.196795
3720.000000	117.148033
3719.000000	117.089083
3718.000000	117.177706
3717.000000	117.123228
3716.000000	116.676134
3715.000000	116.168878
3714.000000	116.246700
3713.000000	117.036118
3712.000000	117.841567
3711.000000	117.763092
3710.000000	116.641639
3709.000000	115.307207
3708.000000	114.720297
3707.000000	115.036135
3706.000000	115.762931
3705.000000	116.533689
3704.000000	117.401895
3703.000000	118.446159
3702.000000	119.337670
3701.000000	119.487306
3700.000000	118.723452
3699.000000	117.721327
3698.000000	117.423676
3697.000000	117.964987
3696.000000	118.523451
3695.000000	118.372723
3694.000000	117.689232
3693.000000	117.098864
3692.000000	116.851416
3691.000000	116.873375
3690.000000	117.162417
3689.000000	117.506547
3688.000000	117.160283
3687.000000	115.692448
3686.000000	114.096004
3685.000000	113.898837
3684.000000	115.294130
3683.000000	117.063095
3682.000000	118.103755
3681.000000	118.242311
3680.000000	117.721782
3679.000000	116.672100
3678.000000	115.594860
3677.000000	115.609712
3676.000000	116.909966
3675.000000	117.434770
3674.000000	115.013909
3673.000000	111.271426
3672.000000	110.172655
3671.000000	112.757350
3670.000000	116.245451
3669.000000	117.415585
3668.000000	115.897789
3667.000000	114.207116
3666.000000	114.378255
3665.000000	115.992615
3664.000000	117.641113
3663.000000	118.589238
3662.000000	118.856703
3661.000000	118.599980
3660.000000	117.977061
3659.000000	117.389219
3658.000000	117.412382
3657.000000	118.098903
3656.000000	118.440486
3655.000000	117.224017
3654.000000	114.725674
3653.000000	112.795384
3652.000000	112.740520
3651.000000	114.094616
3650.000000	115.406757
3649.000000	115.497147
3648.000000	114.250741
3647.000000	112.571962
3646.000000	111.474724
3645.000000	111.446397
3644.000000	112.467057
3643.000000	114.077902
3642.000000	115.533776
3641.000000	116.260139
3640.000000	116.294311
3639.000000	116.068701
3638.000000	115.832742
3637.000000	115.522463
3636.000000	115.180007
3635.000000	114.965662
3634.000000	114.622272
3633.000000	113.619924
3632.000000	112.152167
3631.000000	111.435267
3630.000000	112.365942
3629.000000	114.015177
3628.000000	114.027972
3627.000000	111.546095
3626.000000	108.891878
3625.000000	108.430832
3624.000000	109.650055
3623.000000	110.785977
3622.000000	111.210201
3621.000000	111.433074
3620.000000	111.816626
3619.000000	111.874458
3618.000000	110.938632
3617.000000	109.258131
3616.000000	107.973971
3615.000000	107.890610
3614.000000	108.652288
3613.000000	109.211784
3612.000000	108.925994
3611.000000	108.184892
3610.000000	107.875577
3609.000000	108.283032
3608.000000	108.760542
3607.000000	108.569814
3606.000000	107.802842
3605.000000	107.185477
3604.000000	107.165711
3603.000000	107.545549
3602.000000	107.905968
3601.000000	107.979676
3600.000000	107.663278
3599.000000	107.015183
3598.000000	106.334639
3597.000000	105.955125
3596.000000	105.926597
3595.000000	106.001783
3594.000000	105.824442
3593.000000	105.201005
3592.000000	104.292625
3591.000000	103.546421
3590.000000	103.362269
3589.000000	103.791817
3588.000000	104.390217
3587.000000	104.421410
3586.000000	103.547893
3585.000000	102.329238
3584.000000	101.659720
3583.000000	101.789970
3582.000000	102.283007
3581.000000	102.654834
3580.000000	102.731414
3579.000000	102.571783
3578.000000	102.300799
3577.000000	102.029339
3576.000000	101.802957
3575.000000	101.604635
3574.000000	101.365944
3573.000000	101.001835
3572.000000	100.480720
3571.000000	99.899006
3570.000000	99.495376
3569.000000	99.503134
3568.000000	99.860051
3567.000000	100.071865
3566.000000	99.629218
3565.000000	98.663581
3564.000000	97.899934
3563.000000	97.842670
3562.000000	98.329058
3561.000000	98.897908
3560.000000	99.251984
3559.000000	99.353882
3558.000000	99.294324
3557.000000	99.175575
3556.000000	99.070155
3555.000000	99.030132
3554.000000	99.088891
3553.000000	99.190876
3552.000000	99.160181
3551.000000	98.852887
3550.000000	98.381109
3549.000000	98.070912
3548.000000	98.124352
3547.000000	98.407110
3546.000000	98.610415
3545.000000	98.560101
3544.000000	98.329993
3543.000000	98.111322
3542.000000	98.026285
3541.000000	98.065279
3540.000000	98.151345
3539.000000	98.226141
3538.000000	98.288135
3537.000000	98.337254
3536.000000	98.320558
3535.000000	98.171990
3534.000000	97.920640
3533.000000	97.693050
3532.000000	97.574329
3531.000000	97.524993
3530.000000	97.452707
3529.000000	97.313032
3528.000000	97.096110
3527.000000	96.797560
3526.000000	96.473182
3525.000000	96.258976
3524.000000	96.226763
3523.000000	96.258982
3522.000000	96.171286
3521.000000	95.940493
3520.000000	95.719302
3519.000000	95.616392
3518.000000	95.565895
3517.000000	95.438847
3516.000000	95.208792
3515.000000	94.943394
3514.000000	94.682012
3513.000000	94.409072
3512.000000	94.132683
3511.000000	93.893657
3510.000000	93.676194
3509.000000	93.384723
3508.000000	92.951435
3507.000000	92.445430
3506.000000	92.031547
3505.000000	91.806092
3504.000000	91.691196
3503.000000	91.508329
3502.000000	91.153270
3501.000000	90.694297
3500.000000	90.292143
3499.000000	90.042572
3498.000000	89.916161
3497.000000	89.815631
3496.000000	89.657312
3495.000000	89.417827
3494.000000	89.137540
3493.000000	88.880182
3492.000000	88.680227
3491.000000	88.527371
3490.000000	88.397205
3489.000000	88.280051
3488.000000	88.165754
3487.000000	88.025090
3486.000000	87.848746
3485.000000	87.691046
3484.000000	87.626943
3483.000000	87.660087
3482.000000	87.708833
3481.000000	87.695067
3480.000000	87.625401
3479.000000	87.575878
3478.000000	87.612191
3477.000000	87.738652
3476.000000	87.904994
3475.000000	88.045546
3474.000000	88.124199
3473.000000	88.155698
3472.000000	88.183460
3471.000000	88.237380
3470.000000	88.319169
3469.000000	88.423086
3468.000000	88.546619
3467.000000	88.673373
3466.000000	88.775948
3465.000000	88.853126
3464.000000	88.938931
3463.000000	89.053092
3462.000000	89.168267
3461.000000	89.249365
3460.000000	89.306512
3459.000000	89.383411
3458.000000	89.503169
3457.000000	89.645493
3456.000000	89.777362
3455.000000	89.883143
3454.000000	89.969431
3453.000000	90.048248
3452.000000	90.112834
3451.000000	90.147616
3450.000000	90.175549
3449.000000	90.261691
3448.000000	90.423595
3447.000000	90.568392
3446.000000	90.589061
3445.000000	90.522811
3444.000000	90.530644
3443.000000	90.696466
3442.000000	90.926987
3441.000000	91.084232
3440.000000	91.149844
3439.000000	91.207973
3438.000000	91.314779
3437.000000	91.448198
3436.000000	91.572000
3435.000000	91.682132
3434.000000	91.788602
3433.000000	91.892142
3432.000000	91.985983
3431.000000	92.067866
3430.000000	92.144650
3429.000000	92.229074
3428.000000	92.326265
3427.000000	92.425469
3426.000000	92.508989
3425.000000	92.571243
3424.000000	92.627976
3423.000000	92.703200
3422.000000	92.804231
3421.000000	92.907329
3420.000000	92.976898
3419.000000	93.006261
3418.000000	93.033935
3417.000000	93.107870
3416.000000	93.235301
3415.000000	93.380120
3414.000000	93.506156
3413.000000	93.608138
3412.000000	93.699263
3411.000000	93.788068
3410.000000	93.877391
3409.000000	93.971892
3408.000000	94.072344
3407.000000	94.170105
3406.000000	94.257164
3405.000000	94.334231
3404.000000	94.406828
3403.000000	94.478482
3402.000000	94.553025
3401.000000	94.640608
3400.000000	94.756606
3399.000000	94.906520
3398.000000	95.065996
3397.000000	95.188819
3396.000000	95.252759
3395.000000	95.293955
3394.000000	95.373546
3393.000000	95.508949
3392.000000	95.658417
3391.000000	95.779567
3390.000000	95.881605
3389.000000	96.002111
3388.000000	96.151558
3387.000000	96.305960
3386.000000	96.444058
3385.000000	96.563455
3384.000000	96.666457
3383.000000	96.755597
3382.000000	96.845660
3381.000000	96.958252
3380.000000	97.096929
3379.000000	97.242249
3378.000000	97.375551
3377.000000	97.498037
3376.000000	97.620444
3375.000000	97.743971
3374.000000	97.859014
3373.000000	97.959737
3372.000000	98.052363
3371.000000	98.149653
3370.000000	98.262396
3369.000000	98.396431
3368.000000	98.551515
3367.000000	98.717879
3366.000000	98.878839
3365.000000	99.023101
3364.000000	99.155530
3363.000000	99.293042
3362.000000	99.448679
3361.000000	99.619840
3360.000000	99.793250
3359.000000	99.961750
3358.000000	100.132308
3357.000000	100.313232
3356.000000	100.496310
3355.000000	100.662039
3354.000000	100.804488
3353.000000	100.942538
3352.000000	101.101246
3351.000000	101.287803
3350.000000	101.489203
3349.000000	101.687771
3348.000000	101.873265
3347.000000	102.042055
3346.000000	102.196301
3345.000000	102.344838
3344.000000	102.497573
3343.000000	102.655131
3342.000000	102.806419
3341.000000	102.940347
3340.000000	103.060636
3339.000000	103.185070
3338.000000	103.325610
3337.000000	103.471613
3336.000000	103.596041
3335.000000	103.680168
3334.000000	103.730033
3333.000000	103.764733
3332.000000	103.791904
3331.000000	103.798413
3330.000000	103.764895
3329.000000	103.683094
3328.000000	103.555655
3327.000000	103.387441
3326.000000	103.181359
3325.000000	102.936397
3324.000000	102.646205
3323.000000	102.298621
3322.000000	101.882297
3321.000000	101.390552
3320.000000	100.816800
3319.000000	100.148842
3318.000000	99.364357
3317.000000	98.439748
3316.000000	97.356894
3315.000000	96.096677
3314.000000	94.633653
3313.000000	92.935889
3312.000000	90.984356
3311.000000	88.789715
3310.000000	86.380581
3309.000000	83.789092
3308.000000	81.044929
3307.000000	78.191255
3306.000000	75.296514
3305.000000	72.432111
3304.000000	69.647446
3303.000000	66.971200
3302.000000	64.437195
3301.000000	62.097348
3300.000000	60.007422
3299.000000	58.204794
3298.000000	56.710907
3297.000000	55.540208
3296.000000	54.687776
3295.000000	54.123302
3294.000000	53.788481
3293.000000	53.605832
3292.000000	53.491565
3291.000000	53.367514
3290.000000	53.188646
3289.000000	52.949299
3288.000000	52.667035
3287.000000	52.367495
3286.000000	52.079402
3285.000000	51.829885
3284.000000	51.626581
3283.000000	51.451506
3282.000000	51.277792
3281.000000	51.086442
3280.000000	50.863941
3279.000000	50.594495
3278.000000	50.265645
3277.000000	49.877520
3276.000000	49.439480
3275.000000	48.961365
3274.000000	48.457852
3273.000000	47.958763
3272.000000	47.508280
3271.000000	47.152911
3270.000000	46.934606
3269.000000	46.887546
3268.000000	47.032978
3267.000000	47.381951
3266.000000	47.935284
3265.000000	48.679657
3264.000000	49.575851
3263.000000	50.555825
3262.000000	51.538414
3261.000000	52.439426
3260.000000	53.174554
3259.000000	53.667015
3258.000000	53.865395
3257.000000	53.747888
3256.000000	53.315740
3255.000000	52.574248
3254.000000	51.527686
3253.000000	50.194186
3252.000000	48.595222
3251.000000	46.750942
3250.000000	44.678733
3249.000000	42.404217
3248.000000	39.984605
3247.000000	37.512123
3246.000000	35.112830
3245.000000	32.939071
3244.000000	31.151032
3243.000000	29.880605
3242.000000	29.197357
3241.000000	29.073337
3240.000000	29.374839
3239.000000	29.911043
3238.000000	30.496927
3237.000000	31.005252
3236.000000	31.372641
3235.000000	31.584675
3234.000000	31.666696
3233.000000	31.659537
3232.000000	31.592236
3231.000000	31.477316
3230.000000	31.333175
3229.000000	31.198357
3228.000000	31.118616
3227.000000	31.132639
3226.000000	31.275696
3225.000000	31.583109
3224.000000	32.078038
3223.000000	32.757362
3222.000000	33.598108
3221.000000	34.566030
3220.000000	35.608968
3219.000000	36.657742
3218.000000	37.645471
3217.000000	38.528476
3216.000000	39.283454
3215.000000	39.893320
3214.000000	40.350165
3213.000000	40.673896
3212.000000	40.912818
3211.000000	41.120744
3210.000000	41.338794
3209.000000	41.593617
3208.000000	41.906275
3207.000000	42.296947
3206.000000	42.782439
3205.000000	43.368203
3204.000000	44.044351
3203.000000	44.792609
3202.000000	45.598286
3201.000000	46.453719
3200.000000	47.347949
3199.000000	48.261611
3198.000000	49.172197
3197.000000	50.061931
3196.000000	50.920717
3195.000000	51.744689
3194.000000	52.533186
3193.000000	53.281664
3192.000000	53.976530
3191.000000	54.599671
3190.000000	55.142658
3189.000000	55.610933
3188.000000	56.015106
3187.000000	56.364507
3186.000000	56.665705
3185.000000	56.925323
3184.000000	57.148991
3183.000000	57.341861
3182.000000	57.513996
3181.000000	57.678685
3180.000000	57.842591
3179.000000	57.998691
3178.000000	58.136453
3177.000000	58.258907
3176.000000	58.386517
3175.000000	58.545777
3174.000000	58.755198
3173.000000	59.019336
3172.000000	59.332633
3171.000000	59.692206
3170.000000	60.104585
3169.000000	60.579558
3168.000000	61.120118
3167.000000	61.719649
3166.000000	62.370350
3165.000000	63.066732
3164.000000	63.802858
3163.000000	64.572565
3162.000000	65.371943
3161.000000	66.197120
3160.000000	67.032982
3159.000000	67.849528
3158.000000	68.610239
3157.000000	69.279427
3156.000000	69.818474
3155.000000	70.185184
3154.000000	70.343860
3153.000000	70.272369
3152.000000	69.970847
3151.000000	69.468827
3150.000000	68.831932
3149.000000	68.151759
3148.000000	67.509650
3147.000000	66.948665
3146.000000	66.467291
3145.000000	66.027400
3144.000000	65.566037
3143.000000	65.010456
3142.000000	64.304830
3141.000000	63.426638
3140.000000	62.381694
3139.000000	61.194503
3138.000000	59.902126
3137.000000	58.555188
3136.000000	57.212799
3135.000000	55.932862
3134.000000	54.766517
3133.000000	53.756754
3132.000000	52.937612
3131.000000	52.337170
3130.000000	51.982141
3129.000000	51.884256
3128.000000	52.027197
3127.000000	52.369297
3126.000000	52.869888
3125.000000	53.510119
3124.000000	54.272935
3123.000000	55.127183
3122.000000	56.037238
3121.000000	56.981309
3120.000000	57.951735
3119.000000	58.938237
3118.000000	59.923841
3117.000000	60.889877
3116.000000	61.819221
3115.000000	62.694499
3114.000000	63.500622
3113.000000	64.227587
3112.000000	64.866328
3111.000000	65.406254
3110.000000	65.837704
3109.000000	66.158599
3108.000000	66.367455
3107.000000	66.456781
3106.000000	66.424069
3105.000000	66.282245
3104.000000	66.057321
3103.000000	65.777823
3102.000000	65.476425
3101.000000	65.193909
3100.000000	64.975995
3099.000000	64.870525
3098.000000	64.922639
3097.000000	65.160383
3096.000000	65.577122
3095.000000	66.142209
3094.000000	66.828387
3093.000000	67.623409
3092.000000	68.514691
3091.000000	69.471889
3090.000000	70.458382
3089.000000	71.446196
3088.000000	72.415483
3087.000000	73.350547
3086.000000	74.243716
3085.000000	75.097820
3084.000000	75.914715
3083.000000	76.687130
3082.000000	77.406761
3081.000000	78.075452
3080.000000	78.702261
3079.000000	79.295598
3078.000000	79.862722
3077.000000	80.410327
3076.000000	80.942523
3075.000000	81.457369
3074.000000	81.950765
3073.000000	82.421532
3072.000000	82.867868
3071.000000	83.287797
3070.000000	83.686089
3069.000000	84.074550
3068.000000	84.461503
3067.000000	84.844704
3066.000000	85.217444
3065.000000	85.576153
3064.000000	85.921191
3063.000000	86.257007
3062.000000	86.590916
3061.000000	86.925579
3060.000000	87.254146
3059.000000	87.568977
3058.000000	87.872419
3057.000000	88.169727
3056.000000	88.455969
3055.000000	88.720696
3054.000000	88.965290
3053.000000	89.205673
3052.000000	89.453573
3051.000000	89.705032
3050.000000	89.948054
3049.000000	90.172009
3048.000000	90.371434
3047.000000	90.550463
3046.000000	90.724364
3045.000000	90.907966
3044.000000	91.101006
3043.000000	91.292457
3042.000000	91.477083
3041.000000	91.658539
3040.000000	91.836998
3039.000000	92.004504
3038.000000	92.157586
3037.000000	92.303967
3036.000000	92.452098
3035.000000	92.604223
3034.000000	92.763099
3033.000000	92.935021
3032.000000	93.119200
3031.000000	93.301824
3030.000000	93.471491
3029.000000	93.637170
3028.000000	93.818962
3027.000000	94.021772
3026.000000	94.229773
3025.000000	94.427776
3024.000000	94.617054
3023.000000	94.807183
3022.000000	95.001414
3021.000000	95.195651
3020.000000	95.386738
3019.000000	95.576356
3018.000000	95.767063
3017.000000	95.956729
3016.000000	96.139569
3015.000000	96.313150
3014.000000	96.481095
3013.000000	96.646487
3012.000000	96.805292
3011.000000	96.948456
3010.000000	97.069284
3009.000000	97.165391
3008.000000	97.234395
3007.000000	97.270360
3006.000000	97.262753
3005.000000	97.198822
3004.000000	97.066981
3003.000000	96.862778
3002.000000	96.592299
3001.000000	96.261583
3000.000000	95.860294
2999.000000	95.355507
2998.000000	94.711399
2997.000000	93.930772
2996.000000	93.095831
2995.000000	92.367036
2994.000000	91.915320
2993.000000	91.827591
2992.000000	92.056901
2991.000000	92.464569
2990.000000	92.907683
2989.000000	93.296601
2988.000000	93.598354
2987.000000	93.814471
2986.000000	93.965883
2985.000000	94.080766
2984.000000	94.183409
2983.000000	94.288378
2982.000000	94.403834
2981.000000	94.533162
2980.000000	94.667135
2979.000000	94.779525
2978.000000	94.841824
2977.000000	94.850873
2976.000000	94.846026
2975.000000	94.898535
2974.000000	95.075010
2973.000000	95.398209
2972.000000	95.833216
2971.000000	96.308704
2970.000000	96.750713
2969.000000	97.103859
2968.000000	97.332942
2967.000000	97.418912
2966.000000	97.355456
2965.000000	97.144540
2964.000000	96.793996
2963.000000	96.313002
2962.000000	95.710729
2961.000000	94.991251
2960.000000	94.145326
2959.000000	93.145123
2958.000000	91.954385
2957.000000	90.572612
2956.000000	89.093758
2955.000000	87.728483
2954.000000	86.729521
2953.000000	86.248729
2952.000000	86.237742
2951.000000	86.487367
2950.000000	86.773516
2949.000000	86.977832
2948.000000	87.110809
2947.000000	87.254367
2946.000000	87.489842
2945.000000	87.845980
2944.000000	88.282001
2943.000000	88.716421
2942.000000	89.081547
2941.000000	89.366527
2940.000000	89.620465
2939.000000	89.923633
2938.000000	90.351181
2937.000000	90.944331
2936.000000	91.697162
2935.000000	92.565052
2934.000000	93.487685
2933.000000	94.409665
2932.000000	95.290070
2931.000000	96.106272
2930.000000	96.852651
2929.000000	97.531808
2928.000000	98.146034
2927.000000	98.697983
2926.000000	99.197155
2925.000000	99.657021
2924.000000	100.084945
2923.000000	100.478929
2922.000000	100.834587
2921.000000	101.150626
2920.000000	101.426829
2919.000000	101.663089
2918.000000	101.861239
2917.000000	102.025429
2916.000000	102.160124
2915.000000	102.270046
2914.000000	102.361830
2913.000000	102.441215
2912.000000	102.509183
2911.000000	102.564300
2910.000000	102.608765
2909.000000	102.647953
2908.000000	102.685083
2907.000000	102.721271
2906.000000	102.758587
2905.000000	102.799728
2904.000000	102.845785
2903.000000	102.895018
2902.000000	102.946253
2901.000000	102.999972
2900.000000	103.053287
2899.000000	103.100658
2898.000000	103.137756
2897.000000	103.161473
2896.000000	103.165839
2895.000000	103.142664
2894.000000	103.087263
2893.000000	103.000618
2892.000000	102.885129
2891.000000	102.742131
2890.000000	102.574045
2889.000000	102.385428
2888.000000	102.180740
2887.000000	101.964571
2886.000000	101.745159
2885.000000	101.534142
2884.000000	101.342129
2883.000000	101.176348
2882.000000	101.042896
2881.000000	100.947463
2880.000000	100.892228
2879.000000	100.875327
2878.000000	100.893599
2877.000000	100.943563
2876.000000	101.020355
2875.000000	101.119475
2874.000000	101.239090
2873.000000	101.376478
2872.000000	101.522239
2871.000000	101.663115
2870.000000	101.792894
2869.000000	101.917860
2868.000000	102.051777
2867.000000	102.208154
2866.000000	102.395702
2865.000000	102.614636
2864.000000	102.854660
2863.000000	103.100579
2862.000000	103.341903
2861.000000	103.575317
2860.000000	103.799103
2859.000000	104.010068
2858.000000	104.207432
2857.000000	104.395560
2856.000000	104.580620
2855.000000	104.766890
2854.000000	104.956453
2853.000000	105.148711
2852.000000	105.338806
2851.000000	105.519455
2850.000000	105.685842
2849.000000	105.836966
2848.000000	105.972491
2847.000000	106.091841
2846.000000	106.197518
2845.000000	106.295995
2844.000000	106.393455
2843.000000	106.492334
2842.000000	106.593406
2841.000000	106.699601
2840.000000	106.815558
2839.000000	106.943858
2838.000000	107.082403
2837.000000	107.225440
2836.000000	107.367533
2835.000000	107.507198
2834.000000	107.646499
2833.000000	107.786864
2832.000000	107.926586
2831.000000	108.062979
2830.000000	108.195172
2829.000000	108.323112
2828.000000	108.445326
2827.000000	108.560121
2826.000000	108.668130
2825.000000	108.771499
2824.000000	108.871121
2823.000000	108.966381
2822.000000	109.057041
2821.000000	109.143444
2820.000000	109.225209
2819.000000	109.301575
2818.000000	109.372694
2817.000000	109.439146
2816.000000	109.500724
2815.000000	109.557071
2814.000000	109.609094
2813.000000	109.658659
2812.000000	109.707677
2811.000000	109.758666
2810.000000	109.814720
2809.000000	109.876968
2808.000000	109.942925
2807.000000	110.009029
2806.000000	110.073976
2805.000000	110.138082
2804.000000	110.200573
2803.000000	110.259738
2802.000000	110.315262
2801.000000	110.368671
2800.000000	110.421957
2799.000000	110.476951
2798.000000	110.534947
2797.000000	110.595259
2796.000000	110.654913
2795.000000	110.711214
2794.000000	110.763875
2793.000000	110.813799
2792.000000	110.861438
2791.000000	110.907864
2790.000000	110.955431
2789.000000	111.005015
2788.000000	111.053923
2787.000000	111.098942
2786.000000	111.140636
2785.000000	111.182592
2784.000000	111.227319
2783.000000	111.275062
2782.000000	111.325656
2781.000000	111.378918
2780.000000	111.433463
2779.000000	111.487424
2778.000000	111.540648
2777.000000	111.594871
2776.000000	111.651708
2775.000000	111.711194
2774.000000	111.771596
2773.000000	111.829652
2772.000000	111.882058
2771.000000	111.927992
2770.000000	111.969241
2769.000000	112.006995
2768.000000	112.040023
2767.000000	112.067104
2766.000000	112.089723
2765.000000	112.110668
2764.000000	112.131284
2763.000000	112.151864
2762.000000	112.173219
2761.000000	112.195811
2760.000000	112.218177
2759.000000	112.237891
2758.000000	112.253356
2757.000000	112.263241
2756.000000	112.265549
2755.000000	112.259150
2754.000000	112.245421
2753.000000	112.226942
2752.000000	112.205307
2751.000000	112.181694
2750.000000	112.158691
2749.000000	112.139826
2748.000000	112.127879
2747.000000	112.124939
2746.000000	112.133004
2745.000000	112.153133
2744.000000	112.184914
2743.000000	112.227407
2742.000000	112.279400
2741.000000	112.337672
2740.000000	112.396517
2739.000000	112.450979
2738.000000	112.499490
2737.000000	112.542519
2736.000000	112.580844
2735.000000	112.616883
2734.000000	112.655873
2733.000000	112.702818
2732.000000	112.758303
2731.000000	112.818493
2730.000000	112.878520
2729.000000	112.934965
2728.000000	112.986311
2727.000000	113.032433
2726.000000	113.073117
2725.000000	113.106803
2724.000000	113.131997
2723.000000	113.150304
2722.000000	113.165894
2721.000000	113.181035
2720.000000	113.194606
2719.000000	113.206078
2718.000000	113.218537
2717.000000	113.236095
2716.000000	113.260266
2715.000000	113.290665
2714.000000	113.327199
2713.000000	113.369232
2712.000000	113.413901
2711.000000	113.457378
2710.000000	113.496829
2709.000000	113.530181
2708.000000	113.555919
2707.000000	113.574844
2706.000000	113.590562
2705.000000	113.606735
2704.000000	113.625051
2703.000000	113.646686
2702.000000	113.673469
2701.000000	113.705720
2700.000000	113.740694
2699.000000	113.774849
2698.000000	113.806135
2697.000000	113.832927
2696.000000	113.853049
2695.000000	113.866006
2694.000000	113.874597
2693.000000	113.882536
2692.000000	113.891857
2691.000000	113.903693
2690.000000	113.919398
2689.000000	113.938968
2688.000000	113.960032
2687.000000	113.980276
2686.000000	113.999283
2685.000000	114.016617
2684.000000	114.030257
2683.000000	114.038955
2682.000000	114.044350
2681.000000	114.048614
2680.000000	114.051627
2679.000000	114.052444
2678.000000	114.051998
2677.000000	114.052503
2676.000000	114.055746
2675.000000	114.063673
2674.000000	114.079068
2673.000000	114.103723
2672.000000	114.136965
2671.000000	114.177750
2670.000000	114.226533
2669.000000	114.283125
2668.000000	114.344634
2667.000000	114.407173
2666.000000	114.468472
2665.000000	114.527389
2664.000000	114.582468
2663.000000	114.633074
2662.000000	114.680543
2661.000000	114.726582
2660.000000	114.771773
2659.000000	114.816798
2658.000000	114.863274
2657.000000	114.911815
2656.000000	114.960792
2655.000000	115.008303
2654.000000	115.053684
2653.000000	115.095410
2652.000000	115.129745
2651.000000	115.153367
2650.000000	115.166005
2649.000000	115.169438
2648.000000	115.165454
2647.000000	115.156624
2646.000000	115.147478
2645.000000	115.142773
2644.000000	115.145487
2643.000000	115.157213
2642.000000	115.178584
2641.000000	115.208026
2640.000000	115.241959
2639.000000	115.277650
2638.000000	115.314676
2637.000000	115.352651
2636.000000	115.389668
2635.000000	115.424583
2634.000000	115.458572
2633.000000	115.492855
2632.000000	115.526737
2631.000000	115.559603
2630.000000	115.593166
2629.000000	115.630022
2628.000000	115.671519
2627.000000	115.718223
2626.000000	115.770401
2625.000000	115.826319
2624.000000	115.881639
2623.000000	115.932087
2622.000000	115.975529
2621.000000	116.010711
2620.000000	116.036118
2619.000000	116.051866
2618.000000	116.060843
2617.000000	116.066346
2616.000000	116.070195
2615.000000	116.073804
2614.000000	116.079098
2613.000000	116.086680
2612.000000	116.094603
2611.000000	116.100685
2610.000000	116.104460
2609.000000	116.105854
2608.000000	116.103717
2607.000000	116.096947
2606.000000	116.085766
2605.000000	116.070858
2604.000000	116.053059
2603.000000	116.034866
2602.000000	116.020122
2601.000000	116.010977
2600.000000	116.006730
2599.000000	116.006353
2598.000000	116.009963
2597.000000	116.016794
2596.000000	116.024076
2595.000000	116.029466
2594.000000	116.032682
2593.000000	116.033536
2592.000000	116.030598
2591.000000	116.023187
2590.000000	116.012648
2589.000000	116.000423
2588.000000	115.987010
2587.000000	115.973944
2586.000000	115.964380
2585.000000	115.960052
2584.000000	115.959680
2583.000000	115.961825
2582.000000	115.967354
2581.000000	115.977548
2580.000000	115.992127
2579.000000	116.010904
2578.000000	116.034942
2577.000000	116.064439
2576.000000	116.097067
2575.000000	116.130271
2574.000000	116.163863
2573.000000	116.198809
2572.000000	116.235520
2571.000000	116.274389
2570.000000	116.316039
2569.000000	116.359697
2568.000000	116.403018
2567.000000	116.444888
2566.000000	116.486613
2565.000000	116.529235
2564.000000	116.571864
2563.000000	116.613748
2562.000000	116.655880
2561.000000	116.699188
2560.000000	116.743115
2559.000000	116.787415
2558.000000	116.833427
2557.000000	116.882413
2556.000000	116.934306
2555.000000	116.988831
2554.000000	117.045858
2553.000000	117.103675
2552.000000	117.159122
2551.000000	117.210489
2550.000000	117.258355
2549.000000	117.302884
2548.000000	117.342860
2547.000000	117.378123
2546.000000	117.410407
2545.000000	117.440826
2544.000000	117.468767
2543.000000	117.494470
2542.000000	117.520201
2541.000000	117.547441
2540.000000	117.575119
2539.000000	117.601438
2538.000000	117.625454
2537.000000	117.646122
2536.000000	117.662166
2535.000000	117.674167
2534.000000	117.684533
2533.000000	117.694724
2532.000000	117.704697
2531.000000	117.715521
2530.000000	117.729806
2529.000000	117.748400
2528.000000	117.769019
2527.000000	117.789077
2526.000000	117.807520
2525.000000	117.823343
2524.000000	117.835050
2523.000000	117.842609
2522.000000	117.847540
2521.000000	117.849971
2520.000000	117.848189
2519.000000	117.841337
2518.000000	117.829709
2517.000000	117.811969
2516.000000	117.784831
2515.000000	117.747222
2514.000000	117.701869
2513.000000	117.651806
2512.000000	117.598475
2511.000000	117.543895
2510.000000	117.491905
2509.000000	117.445505
2508.000000	117.405231
2507.000000	117.371118
2506.000000	117.343498
2505.000000	117.320652
2504.000000	117.298657
2503.000000	117.275415
2502.000000	117.252249
2501.000000	117.230926
2500.000000	117.211799
2499.000000	117.196198
2498.000000	117.187887
2497.000000	117.189758
2496.000000	117.201731
2495.000000	117.222724
2494.000000	117.252093
2493.000000	117.288273
2492.000000	117.328267
2491.000000	117.370402
2490.000000	117.414792
2489.000000	117.460015
2488.000000	117.502688
2487.000000	117.541574
2486.000000	117.579668
2485.000000	117.620781
2484.000000	117.666350
2483.000000	117.716688
2482.000000	117.771998
2481.000000	117.830742
2480.000000	117.889817
2479.000000	117.947798
2478.000000	118.005577
2477.000000	118.062773
2476.000000	118.116626
2475.000000	118.165615
2474.000000	118.211198
2473.000000	118.254449
2472.000000	118.294070
2471.000000	118.328987
2470.000000	118.359883
2469.000000	118.387052
2468.000000	118.409167
2467.000000	118.425782
2466.000000	118.438138
2465.000000	118.446092
2464.000000	118.447544
2463.000000	118.441750
2462.000000	118.430759
2461.000000	118.416304
2460.000000	118.397869
2459.000000	118.375433
2458.000000	118.350776
2457.000000	118.325064
2456.000000	118.297983
2455.000000	118.270594
2454.000000	118.246293
2453.000000	118.227499
2452.000000	118.214220
2451.000000	118.206918
2450.000000	118.207949
2449.000000	118.218210
2448.000000	118.235551
2447.000000	118.257920
2446.000000	118.285147
2445.000000	118.316639
2444.000000	118.349882
2443.000000	118.383183
2442.000000	118.416996
2441.000000	118.451036
2440.000000	118.483231
2439.000000	118.512883
2438.000000	118.542185
2437.000000	118.573063
2436.000000	118.605241
2435.000000	118.638835
2434.000000	118.675699
2433.000000	118.716414
2432.000000	118.758339
2431.000000	118.798215
2430.000000	118.834251
2429.000000	118.864677
2428.000000	118.887164
2427.000000	118.900935
2426.000000	118.907348
2425.000000	118.907162
2424.000000	118.900239
2423.000000	118.888586
2422.000000	118.876245
2421.000000	118.865286
2420.000000	118.854644
2419.000000	118.844263
2418.000000	118.837006
2417.000000	118.835133
2416.000000	118.838064
2415.000000	118.845136
2414.000000	118.857186
2413.000000	118.873435
2412.000000	118.889874
2411.000000	118.902615
2410.000000	118.910358
2409.000000	118.912211
2408.000000	118.906358
2407.000000	118.892765
2406.000000	118.874760
2405.000000	118.856035
2404.000000	118.838313
2403.000000	118.823072
2402.000000	118.812141
2401.000000	118.804774
2400.000000	118.796454
2399.000000	118.782004
2398.000000	118.757595
2397.000000	118.718194
2396.000000	118.657178
2395.000000	118.570671
2394.000000	118.459685
2393.000000	118.327391
2392.000000	118.175932
2391.000000	118.008603
2390.000000	117.831702
2389.000000	117.651299
2388.000000	117.471682
2387.000000	117.298063
2386.000000	117.139403
2385.000000	117.006384
2384.000000	116.908188
2383.000000	116.854474
2382.000000	116.855607
2381.000000	116.915842
2380.000000	117.027431
2379.000000	117.171766
2378.000000	117.325831
2377.000000	117.466886
2376.000000	117.573417
2375.000000	117.632498
2374.000000	117.644987
2373.000000	117.620978
2372.000000	117.570505
2371.000000	117.505924
2370.000000	117.442706
2369.000000	117.391831
2368.000000	117.354048
2367.000000	117.331723
2366.000000	117.323613
2365.000000	117.324589
2364.000000	117.334365
2363.000000	117.343676
2362.000000	117.357478
2361.000000	117.386731
2360.000000	117.422383
2359.000000	117.450988
2358.000000	117.429895
2357.000000	117.317203
2356.000000	117.094182
2355.000000	116.836189
2354.000000	116.712058
2353.000000	116.849122
2352.000000	117.250959
2351.000000	117.757204
2350.000000	118.150571
2349.000000	118.289176
2348.000000	118.164786
2347.000000	117.925934
2346.000000	117.717085
2345.000000	117.623795
2344.000000	117.625442
2343.000000	117.660211
2342.000000	117.696280
2341.000000	117.716709
2340.000000	117.725885
2339.000000	117.727213
2338.000000	117.744972
2337.000000	117.777250
2336.000000	117.823819
2335.000000	117.861799
2334.000000	117.908842
2333.000000	117.947491
2332.000000	118.004057
2331.000000	118.075991
2330.000000	118.173971
2329.000000	118.275789
2328.000000	118.344765
2327.000000	118.369332
2326.000000	118.348506
2325.000000	118.303068
2324.000000	118.247358
2323.000000	118.187573
2322.000000	118.133902
2321.000000	118.074923
2320.000000	118.013691
2319.000000	117.930238
2318.000000	117.827199
2317.000000	117.685534
2316.000000	117.519433
2315.000000	117.333144
2314.000000	117.153609
2313.000000	116.977613
2312.000000	116.809984
2311.000000	116.641627
2310.000000	116.478234
2309.000000	116.311485
2308.000000	116.141019
2307.000000	115.962657
2306.000000	115.785817
2305.000000	115.609847
2304.000000	115.443444
2303.000000	115.291093
2302.000000	115.168686
2301.000000	115.078381
2300.000000	115.022406
2299.000000	114.994894
2298.000000	114.994213
2297.000000	115.010440
2296.000000	115.032038
2295.000000	115.050087
2294.000000	115.060738
2293.000000	115.061354
2292.000000	115.048766
2291.000000	115.025741
2290.000000	114.996507
2289.000000	114.962716
2288.000000	114.921149
2287.000000	114.871877
2286.000000	114.815686
2285.000000	114.749735
2284.000000	114.668329
2283.000000	114.572614
2282.000000	114.472541
2281.000000	114.379700
2280.000000	114.304066
2279.000000	114.254663
2278.000000	114.239533
2277.000000	114.258842
2276.000000	114.307462
2275.000000	114.383167
2274.000000	114.488080
2273.000000	114.621158
2272.000000	114.775447
2271.000000	114.943680
2270.000000	115.121127
2269.000000	115.300636
2268.000000	115.474086
2267.000000	115.638504
2266.000000	115.795990
2265.000000	115.947018
2264.000000	116.088135
2263.000000	116.219647
2262.000000	116.344985
2261.000000	116.465229
2260.000000	116.578359
2259.000000	116.686245
2258.000000	116.795868
2257.000000	116.911361
2256.000000	117.033342
2255.000000	117.163580
2254.000000	117.306419
2253.000000	117.461396
2252.000000	117.623285
2251.000000	117.788363
2250.000000	117.956003
2249.000000	118.122118
2248.000000	118.280385
2247.000000	118.428808
2246.000000	118.570586
2245.000000	118.707320
2244.000000	118.837748
2243.000000	118.963741
2242.000000	119.089900
2241.000000	119.216652
2240.000000	119.339201
2239.000000	119.454258
2238.000000	119.561277
2237.000000	119.657095
2236.000000	119.736364
2235.000000	119.797971
2234.000000	119.845399
2233.000000	119.880845
2232.000000	119.905059
2231.000000	119.922698
2230.000000	119.940742
2229.000000	119.961187
2228.000000	119.981358
2227.000000	120.000517
2226.000000	120.019898
2225.000000	120.036293
2224.000000	120.043314
2223.000000	120.039381
2222.000000	120.028262
2221.000000	120.012224
2220.000000	119.991363
2219.000000	119.969476
2218.000000	119.953168
2217.000000	119.944581
2216.000000	119.941281
2215.000000	119.943023
2214.000000	119.951675
2213.000000	119.964702
2212.000000	119.976039
2211.000000	119.984092
2210.000000	119.992508
2209.000000	120.003399
2208.000000	120.016286
2207.000000	120.033042
2206.000000	120.056093
2205.000000	120.081588
2204.000000	120.101423
2203.000000	120.112277
2202.000000	120.116515
2201.000000	120.115944
2200.000000	120.113099
2199.000000	120.118293
2198.000000	120.146018
2197.000000	120.202451
2196.000000	120.282540
2195.000000	120.378725
2194.000000	120.484606
2193.000000	120.590425
2192.000000	120.684675
2191.000000	120.762123
2190.000000	120.823918
2189.000000	120.869742
2188.000000	120.897474
2187.000000	120.910787
2186.000000	120.918672
2185.000000	120.926837
2184.000000	120.936174
2183.000000	120.949272
2182.000000	120.969930
2181.000000	120.995700
2180.000000	121.018824
2179.000000	121.035148
2178.000000	121.045111
2177.000000	121.046316
2176.000000	121.033868
2175.000000	121.008865
2174.000000	120.978828
2173.000000	120.949185
2172.000000	120.921620
2171.000000	120.900596
2170.000000	120.892754
2169.000000	120.898790
2168.000000	120.913238
2167.000000	120.932758
2166.000000	120.957212
2165.000000	120.982582
2164.000000	121.001528
2163.000000	121.012134
2162.000000	121.018583
2161.000000	121.022820
2160.000000	121.023453
2159.000000	121.023075
2158.000000	121.028164
2157.000000	121.040590
2156.000000	121.056869
2155.000000	121.076194
2154.000000	121.101582
2153.000000	121.132795
2152.000000	121.166096
2151.000000	121.201203
2150.000000	121.240572
2149.000000	121.281466
2148.000000	121.316837
2147.000000	121.344668
2146.000000	121.368315
2145.000000	121.387592
2144.000000	121.398430
2143.000000	121.401726
2142.000000	121.403744
2141.000000	121.407804
2140.000000	121.413136
2139.000000	121.421455
2138.000000	121.436286
2137.000000	121.455874
2136.000000	121.474933
2135.000000	121.493388
2134.000000	121.515292
2133.000000	121.539513
2132.000000	121.559838
2131.000000	121.573714
2130.000000	121.582563
2129.000000	121.584400
2128.000000	121.575155
2127.000000	121.557221
2126.000000	121.537947
2125.000000	121.519587
2124.000000	121.499332
2123.000000	121.478131
2122.000000	121.459845
2121.000000	121.441792
2120.000000	121.415968
2119.000000	121.379761
2118.000000	121.336808
2117.000000	121.287890
2116.000000	121.230345
2115.000000	121.166618
2114.000000	121.104185
2113.000000	121.046789
2112.000000	120.994228
2111.000000	120.950237
2110.000000	120.921351
2109.000000	120.907837
2108.000000	120.904086
2107.000000	120.907868
2106.000000	120.920528
2105.000000	120.938878
2104.000000	120.956172
2103.000000	120.970548
2102.000000	120.984040
2101.000000	120.994076
2100.000000	120.995678
2099.000000	120.991220
2098.000000	120.988890
2097.000000	120.992588
2096.000000	121.001721
2095.000000	121.020672
2094.000000	121.056913
2093.000000	121.109066
2092.000000	121.168013
2091.000000	121.229560
2090.000000	121.295561
2089.000000	121.363741
2088.000000	121.427720
2087.000000	121.487412
2086.000000	121.548110
2085.000000	121.609893
2084.000000	121.668615
2083.000000	121.726436
2082.000000	121.789855
2081.000000	121.858413
2080.000000	121.926953
2079.000000	121.998139
2078.000000	122.080175
2077.000000	122.172346
2076.000000	122.264779
2075.000000	122.352426
2074.000000	122.435795
2073.000000	122.509047
2072.000000	122.562382
2071.000000	122.594075
2070.000000	122.611404
2069.000000	122.619519
2068.000000	122.620012
2067.000000	122.619868
2066.000000	122.629832
2065.000000	122.653919
2064.000000	122.689871
2063.000000	122.739114
2062.000000	122.803788
2061.000000	122.875472
2060.000000	122.939284
2059.000000	122.989046
2058.000000	123.027383
2057.000000	123.052574
2056.000000	123.059852
2055.000000	123.054488
2054.000000	123.049551
2053.000000	123.051214
2052.000000	123.058758
2051.000000	123.074945
2050.000000	123.105711
2049.000000	123.150450
2048.000000	123.202009
2047.000000	123.256244
2046.000000	123.313746
2045.000000	123.370434
2044.000000	123.416856
2043.000000	123.449240
2042.000000	123.471684
2041.000000	123.485957
2040.000000	123.489785
2039.000000	123.486440
2038.000000	123.483987
2037.000000	123.484402
2036.000000	123.484434
2035.000000	123.488601
2034.000000	123.508693
2033.000000	123.547628
2032.000000	123.596994
2031.000000	123.652399
2030.000000	123.716762
2029.000000	123.785980
2028.000000	123.845964
2027.000000	123.886586
2026.000000	123.908987
2025.000000	123.915071
2024.000000	123.904511
2023.000000	123.881392
2022.000000	123.857362
2021.000000	123.842128
2020.000000	123.836677
2019.000000	123.840615
2018.000000	123.857446
2017.000000	123.887248
2016.000000	123.923215
2015.000000	123.960030
2014.000000	123.995269
2013.000000	124.020240
2012.000000	124.021632
2011.000000	123.997530
2010.000000	123.961604
2009.000000	123.925845
2008.000000	123.891812
2007.000000	123.863286
2006.000000	123.852205
2005.000000	123.863273
2004.000000	123.887857
2003.000000	123.917291
2002.000000	123.951734
2001.000000	123.988121
2000.000000	124.015269
1999.000000	124.030924
1998.000000	124.039579
1997.000000	124.043709
1996.000000	124.045172
1995.000000	124.047762
1994.000000	124.051486
1993.000000	124.050396
1992.000000	124.043012
1991.000000	124.041010
1990.000000	124.057227
1989.000000	124.088034
1988.000000	124.117863
1987.000000	124.137604
1986.000000	124.151232
1985.000000	124.164983
1984.000000	124.179081
1983.000000	124.192016
1982.000000	124.203809
1981.000000	124.213224
1980.000000	124.218807
1979.000000	124.223787
1978.000000	124.227163
1977.000000	124.227015
1976.000000	124.230442
1975.000000	124.249508
1974.000000	124.286755
1973.000000	124.336326
1972.000000	124.396973
1971.000000	124.469052
1970.000000	124.541385
1969.000000	124.595888
1968.000000	124.624865
1967.000000	124.633390
1966.000000	124.629055
1965.000000	124.619151
1964.000000	124.612322
1963.000000	124.611278
1962.000000	124.609398
1961.000000	124.605816
1960.000000	124.616874
1959.000000	124.655932
1958.000000	124.708538
1957.000000	124.745407
1956.000000	124.754328
1955.000000	124.742003
1954.000000	124.712154
1953.000000	124.662576
1952.000000	124.598865
1951.000000	124.533429
1950.000000	124.477291
1949.000000	124.430441
1948.000000	124.390839
1947.000000	124.367458
1946.000000	124.367250
1945.000000	124.381505
1944.000000	124.396596
1943.000000	124.409802
1942.000000	124.427452
1941.000000	124.455100
1940.000000	124.497364
1939.000000	124.553168
1938.000000	124.608111
1937.000000	124.647212
1936.000000	124.676824
1935.000000	124.715713
1934.000000	124.766600
1933.000000	124.816738
1932.000000	124.859945
1931.000000	124.904473
1930.000000	124.959743
1929.000000	125.011870
1928.000000	125.043741
1927.000000	125.064019
1926.000000	125.087470
1925.000000	125.109609
1924.000000	125.102436
1923.000000	125.065726
1922.000000	125.035014
1921.000000	125.026979
1920.000000	125.021778
1919.000000	125.001960
1918.000000	124.976292
1917.000000	124.962737
1916.000000	124.967007
1915.000000	124.992572
1914.000000	125.034353
1913.000000	125.067313
1912.000000	125.068238
1911.000000	125.047373
1910.000000	125.029812
1909.000000	125.007246
1908.000000	124.959488
1907.000000	124.899740
1906.000000	124.856613
1905.000000	124.829838
1904.000000	124.783799
1903.000000	124.719858
1902.000000	124.677972
1901.000000	124.658762
1900.000000	124.629145
1899.000000	124.590524
1898.000000	124.573111
1897.000000	124.577025
1896.000000	124.561543
1895.000000	124.519433
1894.000000	124.494712
1893.000000	124.504354
1892.000000	124.513587
1891.000000	124.502305
1890.000000	124.491645
1889.000000	124.497704
1888.000000	124.513345
1887.000000	124.547303
1886.000000	124.617457
1885.000000	124.700101
1884.000000	124.749235
1883.000000	124.770084
1882.000000	124.807515
1881.000000	124.857647
1880.000000	124.877919
1879.000000	124.865219
1878.000000	124.853384
1877.000000	124.854493
1876.000000	124.842777
1875.000000	124.809700
1874.000000	124.793241
1873.000000	124.817754
1872.000000	124.855411
1871.000000	124.882778
1870.000000	124.913522
1869.000000	124.954470
1868.000000	124.982592
1867.000000	125.005521
1866.000000	125.063326
1865.000000	125.144293
1864.000000	125.188402
1863.000000	125.180639
1862.000000	125.174428
1861.000000	125.200154
1860.000000	125.228242
1859.000000	125.248572
1858.000000	125.303007
1857.000000	125.405347
1856.000000	125.509365
1855.000000	125.590513
1854.000000	125.677010
1853.000000	125.769005
1852.000000	125.831007
1851.000000	125.868042
1850.000000	125.903033
1849.000000	125.937387
1848.000000	125.959268
1847.000000	125.978582
1846.000000	126.007828
1845.000000	126.020235
1844.000000	125.995199
1843.000000	125.981185
1842.000000	126.036993
1841.000000	126.135056
1840.000000	126.210851
1839.000000	126.239831
1838.000000	126.247340
1837.000000	126.264203
1836.000000	126.281610
1835.000000	126.299748
1834.000000	126.339128
1833.000000	126.397096
1832.000000	126.452536
1831.000000	126.485068
1830.000000	126.481820
1829.000000	126.470336
1828.000000	126.494199
1827.000000	126.556312
1826.000000	126.627080
1825.000000	126.687238
1824.000000	126.737591
1823.000000	126.793051
1822.000000	126.867485
1821.000000	126.955866
1820.000000	127.030279
1819.000000	127.066691
1818.000000	127.090184
1817.000000	127.138317
1816.000000	127.185836
1815.000000	127.198917
1814.000000	127.203290
1813.000000	127.237710
1812.000000	127.283761
1811.000000	127.293239
1810.000000	127.299393
1809.000000	127.357716
1808.000000	127.429277
1807.000000	127.461533
1806.000000	127.482194
1805.000000	127.523291
1804.000000	127.546925
1803.000000	127.526842
1802.000000	127.508494
1801.000000	127.532242
1800.000000	127.570452
1799.000000	127.584642
1798.000000	127.610972
1797.000000	127.676175
1796.000000	127.731066
1795.000000	127.741591
1794.000000	127.736427
1793.000000	127.744494
1792.000000	127.741640
1791.000000	127.708595
1790.000000	127.703860
1789.000000	127.751846
1788.000000	127.791820
1787.000000	127.783785
1786.000000	127.775529
1785.000000	127.813273
1784.000000	127.864098
1783.000000	127.901334
1782.000000	127.937457
1781.000000	127.969692
1780.000000	127.994714
1779.000000	128.010138
1778.000000	128.034893
1777.000000	128.074542
1776.000000	128.122598
1775.000000	128.184237
1774.000000	128.240596
1773.000000	128.271571
1772.000000	128.297349
1771.000000	128.326656
1770.000000	128.361822
1769.000000	128.428395
1768.000000	128.524805
1767.000000	128.599085
1766.000000	128.637601
1765.000000	128.683434
1764.000000	128.758492
1763.000000	128.820032
1762.000000	128.823581
1761.000000	128.815971
1760.000000	128.858917
1759.000000	128.920260
1758.000000	128.946347
1757.000000	128.921240
1756.000000	128.899246
1755.000000	128.908594
1754.000000	128.904522
1753.000000	128.879881
1752.000000	128.890825
1751.000000	128.951193
1750.000000	128.997152
1749.000000	129.002782
1748.000000	129.000598
1747.000000	129.009654
1746.000000	128.987703
1745.000000	128.923712
1744.000000	128.872798
1743.000000	128.838867
1742.000000	128.787530
1741.000000	128.728936
1740.000000	128.696283
1739.000000	128.685792
1738.000000	128.687937
1737.000000	128.705996
1736.000000	128.728569
1735.000000	128.726935
1734.000000	128.699750
1733.000000	128.669405
1732.000000	128.658636
1731.000000	128.647918
1730.000000	128.615300
1729.000000	128.544652
1728.000000	128.460361
1727.000000	128.404584
1726.000000	128.365992
1725.000000	128.328733
1724.000000	128.284392
1723.000000	128.224045
1722.000000	128.190880
1721.000000	128.211184
1720.000000	128.228530
1719.000000	128.164175
1718.000000	128.063477
1717.000000	128.044630
1716.000000	128.041350
1715.000000	127.979355
1714.000000	127.952421
1713.000000	128.008846
1712.000000	128.048447
1711.000000	128.026489
1710.000000	128.032453
1709.000000	128.112330
1708.000000	128.199975
1707.000000	128.245002
1706.000000	128.301985
1705.000000	128.418201
1704.000000	128.526505
1703.000000	128.590831
1702.000000	128.665117
1701.000000	128.765339
1700.000000	128.815779
1699.000000	128.790529
1698.000000	128.842663
1697.000000	128.985311
1696.000000	129.056322
1695.000000	128.977309
1694.000000	128.914690
1693.000000	128.965539
1692.000000	129.045806
1691.000000	129.080689
1690.000000	129.072403
1689.000000	129.064148
1688.000000	129.102060
1687.000000	129.185494
1686.000000	129.234017
1685.000000	129.146238
1684.000000	128.961173
1683.000000	128.841242
1682.000000	128.846883
1681.000000	128.858701
1680.000000	128.847753
1679.000000	128.857793
1678.000000	128.870097
1677.000000	128.834285
1676.000000	128.771279
1675.000000	128.750832
1674.000000	128.737860
1673.000000	128.685214
1672.000000	128.630317
1671.000000	128.583694
1670.000000	128.489752
1669.000000	128.301658
1668.000000	128.110077
1667.000000	128.016290
1666.000000	127.961849
1665.000000	127.850231
1664.000000	127.661829
1663.000000	127.457789
1662.000000	127.272278
1661.000000	127.058013
1660.000000	126.843224
1659.000000	126.677585
1658.000000	126.506820
1657.000000	126.283481
1656.000000	126.060799
1655.000000	125.825642
1654.000000	125.340307
1653.000000	124.515972
1652.000000	123.653462
1651.000000	123.030782
1650.000000	122.494731
1649.000000	121.819185
1648.000000	120.804194
1647.000000	119.367703
1646.000000	117.673861
1645.000000	115.972173
1644.000000	114.332901
1643.000000	112.690958
1642.000000	111.014513
1641.000000	109.356697
1640.000000	107.892704
1639.000000	106.773631
1638.000000	106.031510
1637.000000	105.645170
1636.000000	105.666456
1635.000000	106.120916
1634.000000	106.853160
1633.000000	107.718065
1632.000000	108.646978
1631.000000	109.629785
1630.000000	110.646294
1629.000000	111.643827
1628.000000	112.586080
1627.000000	113.469178
1626.000000	114.273258
1625.000000	114.979538
1624.000000	115.632098
1623.000000	116.287210
1622.000000	116.909765
1621.000000	117.436248
1620.000000	117.920657
1619.000000	118.452506
1618.000000	119.024158
1617.000000	119.547203
1616.000000	119.995979
1615.000000	120.428052
1614.000000	120.829747
1613.000000	121.128251
1612.000000	121.323428
1611.000000	121.459566
1610.000000	121.489300
1609.000000	121.294752
1608.000000	120.847941
1607.000000	120.177516
1606.000000	119.183960
1605.000000	117.681377
1604.000000	115.631458
1603.000000	113.113931
1602.000000	110.190041
1601.000000	106.908310
1600.000000	103.253847
1599.000000	98.993314
1598.000000	93.633911
1597.000000	86.805727
1596.000000	78.793466
1595.000000	70.623077
1594.000000	63.523817
1593.000000	58.229368
1592.000000	54.837428
1591.000000	53.112827
1590.000000	52.686893
1589.000000	53.063251
1588.000000	53.728281
1587.000000	54.292476
1586.000000	54.479192
1585.000000	54.175054
1584.000000	53.556117
1583.000000	53.008404
1582.000000	52.804434
1581.000000	52.974538
1580.000000	53.482307
1579.000000	54.317909
1578.000000	55.363768
1577.000000	56.315244
1576.000000	56.901949
1575.000000	57.178548
1574.000000	57.344991
1573.000000	57.492398
1572.000000	57.764373
1571.000000	58.491362
1570.000000	59.985904
1569.000000	62.166313
1568.000000	64.729838
1567.000000	67.559361
1566.000000	70.593548
1565.000000	73.595299
1564.000000	76.282324
1563.000000	78.576929
1562.000000	80.604477
1561.000000	82.585982
1560.000000	84.926970
1559.000000	87.923140
1558.000000	90.877771
1557.000000	93.130984
1556.000000	94.932281
1555.000000	96.658768
1554.000000	98.342910
1553.000000	99.820607
1552.000000	101.060717
1551.000000	102.162315
1550.000000	103.185467
1549.000000	104.097530
1548.000000	104.879838
1547.000000	105.611874
1546.000000	106.354522
1545.000000	107.083021
1544.000000	107.756477
1543.000000	108.384216
1542.000000	109.016788
1541.000000	109.670635
1540.000000	110.280007
1539.000000	110.798246
1538.000000	111.259400
1537.000000	111.675634
1536.000000	112.040944
1535.000000	112.390244
1534.000000	112.739022
1533.000000	113.067443
1532.000000	113.373688
1531.000000	113.682650
1530.000000	114.019870
1529.000000	114.367662
1528.000000	114.668582
1527.000000	114.926715
1526.000000	115.192117
1525.000000	115.468375
1524.000000	115.725899
1523.000000	115.943805
1522.000000	116.125608
1521.000000	116.268594
1520.000000	116.366627
1519.000000	116.456766
1518.000000	116.556651
1517.000000	116.648764
1516.000000	116.708810
1515.000000	116.754329
1514.000000	116.829901
1513.000000	116.952818
1512.000000	117.083440
1511.000000	117.175479
1510.000000	117.257113
1509.000000	117.389279
1508.000000	117.545585
1507.000000	117.643823
1506.000000	117.701361
1505.000000	117.792311
1504.000000	117.909770
1503.000000	118.002671
1502.000000	118.074467
1501.000000	118.149973
1500.000000	118.237853
1499.000000	118.326452
1498.000000	118.444216
1497.000000	118.680741
1496.000000	119.024980
1495.000000	119.373559
1494.000000	119.706266
1493.000000	120.038425
1492.000000	120.331201
1491.000000	120.542186
1490.000000	120.710909
1489.000000	120.900675
1488.000000	121.081396
1487.000000	121.234127
1486.000000	121.438386
1485.000000	121.689899
1484.000000	121.924828
1483.000000	122.147154
1482.000000	122.380175
1481.000000	122.612728
1480.000000	122.799842
1479.000000	122.945253
1478.000000	123.089719
1477.000000	123.239714
1476.000000	123.350531
1475.000000	123.435420
1474.000000	123.562363
1473.000000	123.734915
1472.000000	123.904805
1471.000000	124.043888
1470.000000	124.172583
1469.000000	124.273247
1468.000000	124.278602
1467.000000	124.130806
1466.000000	123.757548
1465.000000	123.039272
1464.000000	121.918896
1463.000000	120.404886
1462.000000	118.480757
1461.000000	116.118022
1460.000000	113.300814
1459.000000	109.966383
1458.000000	105.997753
1457.000000	101.739852
1456.000000	98.104372
1455.000000	95.483945
1454.000000	93.410449
1453.000000	91.439726
1452.000000	89.601523
1451.000000	88.192847
1450.000000	87.466768
1449.000000	87.501095
1448.000000	88.183333
1447.000000	89.251321
1446.000000	90.506301
1445.000000	92.017146
1444.000000	93.990981
1443.000000	96.414034
1442.000000	99.001536
1441.000000	101.456239
1440.000000	103.622405
1439.000000	105.454649
1438.000000	107.018678
1437.000000	108.500419
1436.000000	109.982368
1435.000000	111.332048
1434.000000	112.482356
1433.000000	113.536446
1432.000000	114.554661
1431.000000	115.455099
1430.000000	116.159885
1429.000000	116.736356
1428.000000	117.263488
1427.000000	117.736936
1426.000000	118.133603
1425.000000	118.492824
1424.000000	118.897706
1423.000000	119.312419
1422.000000	119.652523
1421.000000	119.926069
1420.000000	120.188937
1419.000000	120.414183
1418.000000	120.556713
1417.000000	120.719127
1416.000000	120.972607
1415.000000	121.236366
1414.000000	121.424102
1413.000000	121.568604
1412.000000	121.746354
1411.000000	121.924507
1410.000000	122.031270
1409.000000	122.093481
1408.000000	122.143577
1407.000000	122.122669
1406.000000	121.934070
1405.000000	121.534339
1404.000000	120.962197
1403.000000	120.256901
1402.000000	119.456891
1401.000000	118.641942
1400.000000	117.902336
1399.000000	117.271093
1398.000000	116.738213
1397.000000	116.354094
1396.000000	116.252351
1395.000000	116.554576
1394.000000	117.217888
1393.000000	118.067908
1392.000000	118.946859
1391.000000	119.730935
1390.000000	120.340659
1389.000000	120.791266
1388.000000	121.178400
1387.000000	121.584085
1386.000000	122.009825
1385.000000	122.416865
1384.000000	122.775635
1383.000000	123.050059
1382.000000	123.225166
1381.000000	123.343853
1380.000000	123.466258
1379.000000	123.613709
1378.000000	123.756672
1377.000000	123.839772
1376.000000	123.795362
1375.000000	123.539029
1374.000000	122.971435
1373.000000	122.019178
1372.000000	120.631991
1371.000000	118.713200
1370.000000	116.123139
1369.000000	112.865464
1368.000000	109.316843
1367.000000	106.148800
1366.000000	103.966123
1365.000000	103.031257
1364.000000	103.264054
1363.000000	104.388183
1362.000000	106.094539
1361.000000	108.171677
1360.000000	110.482980
1359.000000	112.853941
1358.000000	115.057462
1357.000000	116.910835
1356.000000	118.358931
1355.000000	119.448314
1354.000000	120.264592
1353.000000	120.903592
1352.000000	121.438184
1351.000000	121.906042
1350.000000	122.318083
1349.000000	122.679558
1348.000000	123.013348
1347.000000	123.332143
1346.000000	123.626070
1345.000000	123.887675
1344.000000	124.123758
1343.000000	124.333194
1342.000000	124.499604
1341.000000	124.617822
1340.000000	124.707399
1339.000000	124.788171
1338.000000	124.862558
1337.000000	124.938704
1336.000000	125.035665
1335.000000	125.158745
1334.000000	125.295574
1333.000000	125.437793
1332.000000	125.585109
1331.000000	125.724052
1330.000000	125.823537
1329.000000	125.861455
1328.000000	125.829832
1327.000000	125.708404
1326.000000	125.445158
1325.000000	124.969216
1324.000000	124.213805
1323.000000	123.100865
1322.000000	121.557475
1321.000000	119.590262
1320.000000	117.331742
1319.000000	114.996262
1318.000000	112.778371
1317.000000	110.804646
1316.000000	109.183953
1315.000000	108.079205
1314.000000	107.670756
1313.000000	108.021366
1312.000000	108.968328
1311.000000	110.167662
1310.000000	111.308880
1309.000000	112.303321
1308.000000	113.277001
1307.000000	114.404443
1306.000000	115.743442
1305.000000	117.206210
1304.000000	118.636262
1303.000000	119.885337
1302.000000	120.866920
1301.000000	121.579636
1300.000000	122.069541
1299.000000	122.372943
1298.000000	122.502308
1297.000000	122.464629
1296.000000	122.266251
1295.000000	121.885890
1294.000000	121.273561
1293.000000	120.380494
1292.000000	119.183515
1291.000000	117.723735
1290.000000	116.130125
1289.000000	114.558680
1288.000000	113.034453
1287.000000	111.351214
1286.000000	109.222173
1285.000000	106.596135
1284.000000	103.814877
1283.000000	101.467612
1282.000000	100.097603
1281.000000	99.965700
1280.000000	100.994872
1279.000000	102.840561
1278.000000	105.027003
1277.000000	107.111279
1276.000000	108.736941
1275.000000	109.621715
1274.000000	109.663564
1273.000000	109.151428
1272.000000	108.782304
1271.000000	109.264538
1270.000000	110.811270
1269.000000	113.031670
1268.000000	115.295967
1267.000000	117.171605
1266.000000	118.566234
1265.000000	119.599198
1264.000000	120.422617
1263.000000	121.132108
1262.000000	121.767889
1261.000000	122.349430
1260.000000	122.888600
1259.000000	123.379889
1258.000000	123.807470
1257.000000	124.163093
1256.000000	124.450366
1255.000000	124.673692
1254.000000	124.836427
1253.000000	124.954985
1252.000000	125.055304
1251.000000	125.154060
1250.000000	125.255403
1249.000000	125.365368
1248.000000	125.495523
1247.000000	125.646835
1246.000000	125.806839
1245.000000	125.968563
1244.000000	126.134600
1243.000000	126.299686
1242.000000	126.447563
1241.000000	126.569031
1240.000000	126.666075
1239.000000	126.734896
1238.000000	126.764640
1237.000000	126.755713
1236.000000	126.722093
1235.000000	126.673873
1234.000000	126.612438
1233.000000	126.545668
1232.000000	126.486595
1231.000000	126.430306
1230.000000	126.351088
1229.000000	126.218372
1228.000000	126.001005
1227.000000	125.646886
1226.000000	125.073997
1225.000000	124.195213
1224.000000	122.921041
1223.000000	121.163394
1222.000000	118.866227
1221.000000	116.049270
1220.000000	112.839663
1219.000000	109.433706
1218.000000	106.032632
1217.000000	102.792227
1216.000000	99.792150
1215.000000	97.030192
1214.000000	94.452261
1213.000000	92.015646
1212.000000	89.733747
1211.000000	87.666670
1210.000000	85.867248
1209.000000	84.377886
1208.000000	83.255304
1207.000000	82.550161
1206.000000	82.276002
1205.000000	82.391888
1204.000000	82.837993
1203.000000	83.561128
1202.000000	84.512495
1201.000000	85.682536
1200.000000	87.105788
1199.000000	88.822894
1198.000000	90.835581
1197.000000	93.098356
1196.000000	95.547505
1195.000000	98.097975
1194.000000	100.642615
1193.000000	103.085824
1192.000000	105.369529
1191.000000	107.456418
1190.000000	109.314883
1189.000000	110.935199
1188.000000	112.334612
1187.000000	113.538010
1186.000000	114.553350
1185.000000	115.389135
1184.000000	116.072687
1183.000000	116.631474
1182.000000	117.083612
1181.000000	117.434940
1180.000000	117.680130
1179.000000	117.802103
1178.000000	117.786342
1177.000000	117.655383
1176.000000	117.465234
1175.000000	117.269620
1174.000000	117.103132
1173.000000	116.995696
1172.000000	116.979781
1171.000000	117.069407
1170.000000	117.249538
1169.000000	117.495866
1168.000000	117.788901
1167.000000	118.097337
1166.000000	118.370593
1165.000000	118.564422
1164.000000	118.663004
1163.000000	118.675761
1162.000000	118.635359
1161.000000	118.605963
1160.000000	118.665682
1159.000000	118.858372
1158.000000	119.171930
1157.000000	119.568544
1156.000000	120.018182
1155.000000	120.494555
1154.000000	120.964121
1153.000000	121.398757
1152.000000	121.782122
1151.000000	122.092233
1150.000000	122.298267
1149.000000	122.391505
1148.000000	122.399392
1147.000000	122.360932
1146.000000	122.303934
1145.000000	122.248248
1144.000000	122.209919
1143.000000	122.175664
1142.000000	122.092144
1141.000000	121.897114
1140.000000	121.539725
1139.000000	120.976638
1138.000000	120.150824
1137.000000	118.999689
1136.000000	117.468790
1135.000000	115.476147
1134.000000	112.909033
1133.000000	109.640178
1132.000000	105.571642
1131.000000	100.696405
1130.000000	95.152359
1129.000000	89.287648
1128.000000	83.654728
1127.000000	78.868675
1126.000000	75.384889
1125.000000	73.373971
1124.000000	72.711150
1123.000000	73.016397
1122.000000	73.721899
1121.000000	74.180087
1120.000000	73.807068
1119.000000	72.158642
1118.000000	69.054589
1117.000000	64.854513
1116.000000	60.631512
1115.000000	57.903837
1114.000000	57.875948
1113.000000	60.783198
1112.000000	65.880193
1111.000000	71.920417
1110.000000	77.719163
1109.000000	82.478448
1108.000000	85.824041
1107.000000	87.651087
1106.000000	87.959259
1105.000000	86.864817
1104.000000	84.823828
1103.000000	82.782035
1102.000000	81.886947
1101.000000	82.871262
1100.000000	85.638639
1099.000000	89.422004
1098.000000	93.339458
1097.000000	96.845056
1096.000000	99.771934
1095.000000	102.149423
1094.000000	104.069219
1093.000000	105.648723
1092.000000	106.997720
1091.000000	108.188214
1090.000000	109.266200
1089.000000	110.282742
1088.000000	111.292763
1087.000000	112.313951
1086.000000	113.329848
1085.000000	114.320407
1084.000000	115.266219
1083.000000	116.140818
1082.000000	116.920232
1081.000000	117.604219
1080.000000	118.200579
1079.000000	118.694354
1078.000000	119.063883
1077.000000	119.305423
1076.000000	119.425551
1075.000000	119.416441
1074.000000	119.254966
1073.000000	118.934243
1072.000000	118.444763
1071.000000	117.742953
1070.000000	116.751748
1069.000000	115.357956
1068.000000	113.420799
1067.000000	110.746593
1066.000000	107.128503
1065.000000	102.457538
1064.000000	96.798609
1063.000000	90.446461
1062.000000	83.865541
1061.000000	77.534032
1060.000000	71.745207
1059.000000	66.479417
1058.000000	61.469529
1057.000000	56.502586
1056.000000	51.771961
1055.000000	47.948287
1054.000000	45.950725
1053.000000	46.465791
1052.000000	49.594524
1051.000000	54.797185
1050.000000	61.097975
1049.000000	67.533227
1048.000000	73.447137
1047.000000	78.548499
1046.000000	82.821626
1045.000000	86.396841
1044.000000	89.436953
1043.000000	92.053936
1042.000000	94.297853
1041.000000	96.194850
1040.000000	97.797490
1039.000000	99.164686
1038.000000	100.348930
1037.000000	101.405899
1036.000000	102.378967
1035.000000	103.287454
1034.000000	104.124062
1033.000000	104.882044
1032.000000	105.565595
1031.000000	106.171176
1030.000000	106.693277
1029.000000	107.144759
1028.000000	107.557648
1027.000000	107.961928
1026.000000	108.377886
1025.000000	108.828829
1024.000000	109.334238
1023.000000	109.886651
1022.000000	110.454205
1021.000000	111.000451
1020.000000	111.488721
1019.000000	111.867379
1018.000000	112.074130
1017.000000	112.061603
1016.000000	111.777473
1015.000000	111.148437
1014.000000	110.084282
1013.000000	108.499441
1012.000000	106.340884
1011.000000	103.585091
1010.000000	100.263439
1009.000000	96.477663
1008.000000	92.409318
1007.000000	88.389245
1006.000000	84.994893
1005.000000	82.966215
1004.000000	82.834276
1003.000000	84.504043
1002.000000	87.196599
1001.000000	89.878563
1000.000000	91.741252
999.000000	92.352861
998.000000	91.584380
997.000000	89.613880
996.000000	87.024068
995.000000	84.700328
994.000000	83.418559
993.000000	83.443521
992.000000	84.505562
991.000000	86.130294
990.000000	87.985044
989.000000	89.982773
988.000000	92.161591
987.000000	94.499860
986.000000	96.863601
985.000000	99.083930
984.000000	101.046050
983.000000	102.713856
982.000000	104.109377
981.000000	105.288489
980.000000	106.312208
979.000000	107.226598
978.000000	108.051036
977.000000	108.795761
976.000000	109.468927
975.000000	110.066349
974.000000	110.578606
973.000000	111.002880
972.000000	111.348840
971.000000	111.628090
970.000000	111.850881
969.000000	112.038997
968.000000	112.222379
967.000000	112.422892
966.000000	112.648992
965.000000	112.904945
964.000000	113.192281
963.000000	113.498099
962.000000	113.796941
961.000000	114.067729
960.000000	114.298260
959.000000	114.476507
958.000000	114.592665
957.000000	114.653801
956.000000	114.683100
955.000000	114.701369
954.000000	114.722578
953.000000	114.763894
952.000000	114.843551
951.000000	114.965102
950.000000	115.116125
949.000000	115.283727
948.000000	115.457906
947.000000	115.620595
946.000000	115.748723
945.000000	115.831735
944.000000	115.874256
943.000000	115.881512
942.000000	115.857166
941.000000	115.816397
940.000000	115.783704
939.000000	115.774848
938.000000	115.792524
937.000000	115.839859
936.000000	115.922919
935.000000	116.038179
934.000000	116.171388
933.000000	116.311272
932.000000	116.451459
931.000000	116.578216
930.000000	116.671643
929.000000	116.721809
928.000000	116.732030
927.000000	116.707099
926.000000	116.653629
925.000000	116.591098
924.000000	116.547688
923.000000	116.542468
922.000000	116.581836
921.000000	116.669668
920.000000	116.805043
919.000000	116.969746
918.000000	117.133333
917.000000	117.272223
916.000000	117.372180
915.000000	117.417252
914.000000	117.395337
913.000000	117.315774
912.000000	117.206406
911.000000	117.095168
910.000000	117.006332
909.000000	116.968014
908.000000	117.003031
907.000000	117.110694
906.000000	117.269927
905.000000	117.457028
904.000000	117.645284
903.000000	117.794542
902.000000	117.863125
901.000000	117.833736
900.000000	117.711737
899.000000	117.499516
898.000000	117.191163
897.000000	116.787023
896.000000	116.310684
895.000000	115.814660
894.000000	115.363492
893.000000	114.977767
892.000000	114.574337
891.000000	114.009394
890.000000	113.241841
889.000000	112.443039
888.000000	111.877766
887.000000	111.674441
886.000000	111.743682
885.000000	111.917072
884.000000	112.106436
883.000000	112.296001
882.000000	112.465044
881.000000	112.588689
880.000000	112.699571
879.000000	112.895586
878.000000	113.265792
877.000000	113.827187
876.000000	114.517614
875.000000	115.229895
874.000000	115.862114
873.000000	116.358773
872.000000	116.713588
871.000000	116.937254
870.000000	117.037825
869.000000	117.027435
868.000000	116.929070
867.000000	116.761287
866.000000	116.531821
865.000000	116.258824
864.000000	115.984072
863.000000	115.760856
862.000000	115.635891
861.000000	115.641729
860.000000	115.784379
859.000000	116.027024
858.000000	116.297996
857.000000	116.529532
856.000000	116.687262
855.000000	116.764832
854.000000	116.772793
853.000000	116.739439
852.000000	116.704870
851.000000	116.700822
850.000000	116.741827
849.000000	116.835531
848.000000	116.985354
847.000000	117.177450
846.000000	117.379452
845.000000	117.560033
844.000000	117.699391
843.000000	117.780726
842.000000	117.789346
841.000000	117.727074
840.000000	117.616533
839.000000	117.485196
838.000000	117.355516
837.000000	117.250567
836.000000	117.192545
835.000000	117.189302
834.000000	117.232981
833.000000	117.314753
832.000000	117.427710
831.000000	117.553503
830.000000	117.662220
829.000000	117.733071
828.000000	117.764061
827.000000	117.758755
826.000000	117.718442
825.000000	117.651763
824.000000	117.575824
823.000000	117.501740
822.000000	117.432758
821.000000	117.378260
820.000000	117.353621
819.000000	117.362819
818.000000	117.394557
817.000000	117.436913
816.000000	117.478528
815.000000	117.494365
814.000000	117.445318
813.000000	117.291301
812.000000	116.990888
811.000000	116.493721
810.000000	115.775966
809.000000	114.908309
808.000000	114.071635
807.000000	113.473798
806.000000	113.235700
805.000000	113.343323
804.000000	113.686488
803.000000	114.130376
802.000000	114.564029
801.000000	114.917624
800.000000	115.152160
799.000000	115.241053
798.000000	115.163737
797.000000	114.912286
796.000000	114.489539
795.000000	113.900308
794.000000	113.156333
793.000000	112.288918
792.000000	111.354322
791.000000	110.423061
790.000000	109.570302
789.000000	108.869126
788.000000	108.374320
787.000000	108.100316
786.000000	108.018416
785.000000	108.077793
784.000000	108.221068
783.000000	108.387290
782.000000	108.517351
781.000000	108.573963
780.000000	108.556773
779.000000	108.498250
778.000000	108.455124
777.000000	108.497532
776.000000	108.686959
775.000000	109.048691
774.000000	109.561646
773.000000	110.174347
772.000000	110.824561
771.000000	111.451829
770.000000	112.010078
769.000000	112.477562
768.000000	112.852217
767.000000	113.138969
766.000000	113.348861
765.000000	113.504397
764.000000	113.633559
763.000000	113.755353
762.000000	113.878339
761.000000	114.009551
760.000000	114.153410
759.000000	114.303767
758.000000	114.446469
757.000000	114.570169
756.000000	114.666597
755.000000	114.723268
754.000000	114.727987
753.000000	114.680519
752.000000	114.591582
751.000000	114.472424
750.000000	114.334200
749.000000	114.194960
748.000000	114.074911
747.000000	113.983310
746.000000	113.916934
745.000000	113.868207
744.000000	113.825190
743.000000	113.766316
742.000000	113.666889
741.000000	113.512799
740.000000	113.302720
739.000000	113.041931
738.000000	112.742527
737.000000	112.424844
736.000000	112.107366
735.000000	111.794498
734.000000	111.480755
733.000000	111.162553
732.000000	110.839208
731.000000	110.509497
730.000000	110.180303
729.000000	109.875439
728.000000	109.624035
727.000000	109.443971
726.000000	109.343577
725.000000	109.330475
724.000000	109.405104
723.000000	109.553099
722.000000	109.759898
721.000000	110.025842
720.000000	110.350488
719.000000	110.708828
718.000000	111.061063
717.000000	111.380333
716.000000	111.657275
715.000000	111.885984
714.000000	112.061799
713.000000	112.188407
712.000000	112.271599
711.000000	112.308728
710.000000	112.297124
709.000000	112.248225
708.000000	112.181014
707.000000	112.107362
706.000000	112.035806
705.000000	111.981664
704.000000	111.959388
703.000000	111.970686
702.000000	112.011806
701.000000	112.083386
700.000000	112.180519
699.000000	112.283424
698.000000	112.370703
697.000000	112.433062
696.000000	112.462770
695.000000	112.445029
694.000000	112.374096
693.000000	112.264077
692.000000	112.132377
691.000000	111.986971
690.000000	111.844204
689.000000	111.740761
688.000000	111.703039
687.000000	111.720734
686.000000	111.771476
685.000000	111.847805
684.000000	111.940959
683.000000	112.023979
682.000000	112.075380
681.000000	112.098835
680.000000	112.097863
679.000000	112.062830
678.000000	111.996342
677.000000	111.920559
676.000000	111.861204
675.000000	111.826207
674.000000	111.828998
673.000000	111.941571
672.000000	112.263638
671.000000	112.813147
670.000000	113.428157
669.000000	113.734074
668.000000	113.509428
667.000000	113.067442
666.000000	112.763665
665.000000	112.592417
664.000000	112.472382
663.000000	112.380762
662.000000	112.305563
661.000000	112.237522
660.000000	112.167135
659.000000	112.104996
658.000000	112.057998
657.000000	112.011566
656.000000	111.964570
655.000000	111.942223
654.000000	111.951115
653.000000	111.975534
652.000000	112.010389
651.000000	112.054222
650.000000	112.080107
649.000000	112.055442
648.000000	111.982228
647.000000	111.882996
646.000000	111.762228
645.000000	111.616215
644.000000	111.468202
643.000000	111.360172
642.000000	111.313231
641.000000	111.325247
640.000000	111.399739
639.000000	111.537739
638.000000	111.707942
637.000000	111.858733
636.000000	111.956182
635.000000	111.986929
634.000000	111.937982
633.000000	111.804878
632.000000	111.613332
631.000000	111.409305
630.000000	111.229982
629.000000	111.098198
628.000000	111.033829
627.000000	111.047397
626.000000	111.125476
625.000000	111.240739
624.000000	111.370991
623.000000	111.493802
622.000000	111.572646
621.000000	111.574011
620.000000	111.494078
619.000000	111.353443
618.000000	111.177374
617.000000	110.991028
616.000000	110.820795
615.000000	110.683322
614.000000	110.579884
613.000000	110.512919
612.000000	110.493502
611.000000	110.519368
610.000000	110.565554
609.000000	110.608231
608.000000	110.641862
607.000000	110.659731
606.000000	110.638401
605.000000	110.559887
604.000000	110.428706
603.000000	110.252285
602.000000	110.022866
601.000000	109.735383
600.000000	109.406556
599.000000	109.058472
598.000000	108.695917
597.000000	108.315397
596.000000	107.920601
595.000000	107.506325
594.000000	107.021528
593.000000	106.340523
592.000000	105.258689
591.000000	103.593824
590.000000	101.417667
589.000000	99.218363
588.000000	97.712787
587.000000	97.363515
586.000000	98.036751
585.000000	99.169843
584.000000	100.290427
583.000000	101.289456
582.000000	102.258122
581.000000	103.247797
580.000000	104.220237
579.000000	105.109733
578.000000	105.847387
577.000000	106.372424
576.000000	106.668198
575.000000	106.772399
574.000000	106.733393
573.000000	106.589526
572.000000	106.393512
571.000000	106.212513
570.000000	106.085299
569.000000	106.002892
568.000000	105.945818
567.000000	105.892507
566.000000	105.779662
565.000000	105.497796
564.000000	104.950875
563.000000	104.117976
562.000000	103.063265
561.000000	101.913661
560.000000	100.815093
559.000000	99.862195
558.000000	99.052342
557.000000	98.343449
556.000000	97.780329
555.000000	97.520667
554.000000	97.714176
553.000000	98.376867
552.000000	99.385316
551.000000	100.536593
550.000000	101.604838
549.000000	102.427708
548.000000	102.970143
547.000000	103.286827
546.000000	103.434895
545.000000	103.450654
544.000000	103.380689
543.000000	103.278553
542.000000	103.168879
541.000000	103.047472
540.000000	102.923330
539.000000	102.819476
538.000000	102.736332
537.000000	102.654741
536.000000	102.578220
535.000000	102.525905
534.000000	102.483581
533.000000	102.401530
532.000000	102.243181
531.000000	102.017748
530.000000	101.753768
529.000000	101.465358
528.000000	101.155735
527.000000	100.832041
526.000000	100.494297
525.000000	100.136187
524.000000	99.760420
523.000000	99.363406
522.000000	98.915784
521.000000	98.381313
520.000000	97.753021
519.000000	97.040916
518.000000	96.228504
517.000000	95.294513
516.000000	94.289362
515.000000	93.340340
514.000000	92.570952
513.000000	92.054132
512.000000	91.837171
511.000000	91.958982
510.000000	92.407153
509.000000	93.094886
508.000000	93.915641
507.000000	94.787704
506.000000	95.643378
505.000000	96.433408
504.000000	97.156109
503.000000	97.843734
502.000000	98.506318
501.000000	99.113684
500.000000	99.641112
499.000000	100.098036
498.000000	100.499596
497.000000	100.857214
496.000000	101.194528
495.000000	101.535202
494.000000	101.869296
493.000000	102.149881
492.000000	102.349541
491.000000	102.480827
490.000000	102.549131
489.000000	102.533585
488.000000	102.417703
487.000000	102.212495
486.000000	101.920423
485.000000	101.507806
484.000000	100.943997
483.000000	100.231151
482.000000	99.379825
481.000000	98.401317
480.000000	97.356873
479.000000	96.354592
478.000000	95.464179
477.000000	94.684019
476.000000	94.008901
475.000000	93.482758
474.000000	93.148009
473.000000	93.009066
472.000000	93.084067
471.000000	93.427402
470.000000	94.061651
469.000000	94.936645
468.000000	95.984419
467.000000	97.137021
466.000000	98.299394
465.000000	99.372494
464.000000	100.293162
463.000000	101.042178
462.000000	101.609697
461.000000	101.981008
460.000000	102.152867
459.000000	102.143138
458.000000	102.008290
457.000000	101.858074
456.000000	101.803647
455.000000	101.880477
454.000000	102.053555
453.000000	102.277654
452.000000	102.538866
451.000000	102.828717
450.000000	103.097194
449.000000	103.272947
448.000000	103.324437
447.000000	103.275253
446.000000	103.164732
445.000000	103.016856
444.000000	102.846310
443.000000	102.681480
442.000000	102.550348
441.000000	102.463850
440.000000	102.430412
439.000000	102.456630
438.000000	102.524374
437.000000	102.592219
436.000000	102.637760
435.000000	102.668325
434.000000	102.668655
433.000000	102.573771
432.000000	102.319921
431.000000	101.911591
430.000000	101.416484
429.000000	100.899857
428.000000	100.421984
427.000000	100.068410
426.000000	99.896987
425.000000	99.883657
424.000000	99.985088
423.000000	100.198663
422.000000	100.499846
421.000000	100.784418
420.000000	100.940947
419.000000	100.982571
418.000000	101.011164
417.000000	101.046389
416.000000	101.047153
415.000000	101.004988
414.000000	100.945397
413.000000	100.893169
412.000000	100.872564
411.000000	100.920157
410.000000	101.042138
409.000000	101.165603
408.000000	101.214070
407.000000	101.191407
406.000000	101.130164
405.000000	101.022666
404.000000	100.887934
403.000000	100.802160
402.000000	100.819619
401.000000	100.876110
400.000000	100.890690
