PE IR       SUBTECH     SPECTRUM    ASCII       PEDS        4.00        
   -1
23ms131-trans.asc
24/09/23
15:57:46.00
24/09/23
15:57:46.00
Administrator
Sample 1183 By Administrator Date Monday, September 23 2024
400.000000
#HDR
-1
-1
#GR
cm-1
%T
1.0
0.0
4000.000000
-1.000000
3601
8
68.474246
7.029087
#DATA
4000.000000	30.736993
3999.000000	30.726103
3998.000000	30.714071
3997.000000	30.700593
3996.000000	30.686272
3995.000000	30.671824
3994.000000	30.656637
3993.000000	30.638811
3992.000000	30.617189
3991.000000	30.592799
3990.000000	30.567894
3989.000000	30.544133
3988.000000	30.522366
3987.000000	30.503835
3986.000000	30.490328
3985.000000	30.482716
3984.000000	30.479846
3983.000000	30.479259
3982.000000	30.478720
3981.000000	30.476865
3980.000000	30.472839
3979.000000	30.466171
3978.000000	30.457300
3977.000000	30.447666
3976.000000	30.438992
3975.000000	30.432541
3974.000000	30.428995
3973.000000	30.428880
3972.000000	30.432988
3971.000000	30.442659
3970.000000	30.459359
3969.000000	30.483749
3968.000000	30.515233
3967.000000	30.552024
3966.000000	30.591710
3965.000000	30.632203
3964.000000	30.672608
3963.000000	30.713364
3962.000000	30.754869
3961.000000	30.795660
3960.000000	30.832821
3959.000000	30.864952
3958.000000	30.893568
3957.000000	30.921316
3956.000000	30.949602
3955.000000	30.977956
3954.000000	31.005355
3953.000000	31.030799
3952.000000	31.053560
3951.000000	31.073653
3950.000000	31.092715
3949.000000	31.114280
3948.000000	31.140860
3947.000000	31.169680
3946.000000	31.193912
3945.000000	31.210364
3944.000000	31.224536
3943.000000	31.246090
3942.000000	31.277825
3941.000000	31.310981
3940.000000	31.334893
3939.000000	31.349887
3938.000000	31.365371
3937.000000	31.387153
3936.000000	31.411006
3935.000000	31.428868
3934.000000	31.439033
3933.000000	31.447228
3932.000000	31.459685
3931.000000	31.476882
3930.000000	31.494297
3929.000000	31.507611
3928.000000	31.514664
3927.000000	31.516984
3926.000000	31.521870
3925.000000	31.538037
3924.000000	31.565417
3923.000000	31.592498
3922.000000	31.608849
3921.000000	31.615527
3920.000000	31.619310
3919.000000	31.623725
3918.000000	31.630099
3917.000000	31.641320
3916.000000	31.658213
3915.000000	31.675289
3914.000000	31.686326
3913.000000	31.693001
3912.000000	31.702908
3911.000000	31.722480
3910.000000	31.752194
3909.000000	31.786961
3908.000000	31.820628
3907.000000	31.848404
3906.000000	31.869826
3905.000000	31.889076
3904.000000	31.910627
3903.000000	31.929700
3902.000000	31.932885
3901.000000	31.916935
3900.000000	31.899567
3899.000000	31.900778
3898.000000	31.920576
3897.000000	31.944404
3896.000000	31.963260
3895.000000	31.979289
3894.000000	31.993496
3893.000000	32.003738
3892.000000	32.017814
3891.000000	32.052086
3890.000000	32.101082
3889.000000	32.130816
3888.000000	32.121154
3887.000000	32.089890
3886.000000	32.078461
3885.000000	32.110741
3884.000000	32.157506
3883.000000	32.170584
3882.000000	32.145633
3881.000000	32.122621
3880.000000	32.139326
3879.000000	32.188915
3878.000000	32.226862
3877.000000	32.226241
3876.000000	32.205696
3875.000000	32.205407
3874.000000	32.245038
3873.000000	32.296247
3872.000000	32.311190
3871.000000	32.284406
3870.000000	32.265136
3869.000000	32.289730
3868.000000	32.325705
3867.000000	32.325811
3866.000000	32.298030
3865.000000	32.282178
3864.000000	32.298254
3863.000000	32.331924
3862.000000	32.357081
3861.000000	32.368158
3860.000000	32.381461
3859.000000	32.415826
3858.000000	32.479656
3857.000000	32.561673
3856.000000	32.627863
3855.000000	32.634377
3854.000000	32.583677
3853.000000	32.551081
3852.000000	32.562655
3851.000000	32.549906
3850.000000	32.494454
3849.000000	32.446757
3848.000000	32.438322
3847.000000	32.463856
3846.000000	32.503130
3845.000000	32.540934
3844.000000	32.575836
3843.000000	32.613251
3842.000000	32.648267
3841.000000	32.667462
3840.000000	32.665376
3839.000000	32.650471
3838.000000	32.639254
3837.000000	32.640759
3836.000000	32.647428
3835.000000	32.645104
3834.000000	32.631577
3833.000000	32.620024
3832.000000	32.627069
3831.000000	32.655725
3830.000000	32.689822
3829.000000	32.710491
3828.000000	32.719324
3827.000000	32.739922
3826.000000	32.789595
3825.000000	32.852137
3824.000000	32.889870
3823.000000	32.881529
3822.000000	32.851184
3821.000000	32.857415
3820.000000	32.913098
3819.000000	32.950259
3818.000000	32.921440
3817.000000	32.860267
3816.000000	32.833253
3815.000000	32.864699
3814.000000	32.908683
3813.000000	32.922811
3812.000000	32.924349
3811.000000	32.945950
3810.000000	32.986278
3809.000000	33.018423
3808.000000	33.031767
3807.000000	33.053621
3806.000000	33.104500
3805.000000	33.151524
3804.000000	33.151311
3803.000000	33.107163
3802.000000	33.067590
3801.000000	33.081000
3800.000000	33.126637
3799.000000	33.136649
3798.000000	33.098975
3797.000000	33.061553
3796.000000	33.062721
3795.000000	33.095371
3794.000000	33.126276
3793.000000	33.140255
3792.000000	33.148671
3791.000000	33.165810
3790.000000	33.192897
3789.000000	33.222028
3788.000000	33.245310
3787.000000	33.259747
3786.000000	33.269314
3785.000000	33.283516
3784.000000	33.306257
3783.000000	33.327185
3782.000000	33.331838
3781.000000	33.320420
3780.000000	33.310704
3779.000000	33.319862
3778.000000	33.342214
3777.000000	33.356586
3776.000000	33.358147
3775.000000	33.363536
3774.000000	33.384380
3773.000000	33.410626
3772.000000	33.425260
3771.000000	33.427859
3770.000000	33.434745
3769.000000	33.451674
3768.000000	33.459135
3767.000000	33.441483
3766.000000	33.415931
3765.000000	33.411931
3764.000000	33.431598
3763.000000	33.447665
3762.000000	33.441799
3761.000000	33.425496
3760.000000	33.419594
3759.000000	33.431836
3758.000000	33.456825
3757.000000	33.487564
3756.000000	33.521584
3755.000000	33.557480
3754.000000	33.592682
3753.000000	33.620214
3752.000000	33.630103
3751.000000	33.625788
3750.000000	33.630883
3749.000000	33.656706
3748.000000	33.678577
3747.000000	33.665889
3746.000000	33.613940
3745.000000	33.557270
3744.000000	33.562132
3743.000000	33.621437
3742.000000	33.644486
3741.000000	33.614363
3740.000000	33.590231
3739.000000	33.601001
3738.000000	33.629505
3737.000000	33.651559
3736.000000	33.669794
3735.000000	33.694038
3734.000000	33.709868
3733.000000	33.701811
3732.000000	33.685822
3731.000000	33.683773
3730.000000	33.689485
3729.000000	33.685042
3728.000000	33.671289
3727.000000	33.666717
3726.000000	33.682261
3725.000000	33.703516
3724.000000	33.709469
3723.000000	33.700645
3722.000000	33.692638
3721.000000	33.693347
3720.000000	33.696439
3719.000000	33.697115
3718.000000	33.701640
3717.000000	33.715873
3716.000000	33.735393
3715.000000	33.750671
3714.000000	33.755494
3713.000000	33.749290
3712.000000	33.738918
3711.000000	33.733177
3710.000000	33.727999
3709.000000	33.711612
3708.000000	33.686937
3707.000000	33.667391
3706.000000	33.659484
3705.000000	33.657496
3704.000000	33.652267
3703.000000	33.642635
3702.000000	33.636152
3701.000000	33.638823
3700.000000	33.641283
3699.000000	33.628197
3698.000000	33.601736
3697.000000	33.581243
3696.000000	33.579340
3695.000000	33.589814
3694.000000	33.598321
3693.000000	33.598518
3692.000000	33.590456
3691.000000	33.569480
3690.000000	33.529304
3689.000000	33.479088
3688.000000	33.439146
3687.000000	33.406167
3686.000000	33.360322
3685.000000	33.303851
3684.000000	33.258163
3683.000000	33.233689
3682.000000	33.223049
3681.000000	33.219574
3680.000000	33.228040
3679.000000	33.243349
3678.000000	33.232992
3677.000000	33.166682
3676.000000	33.071903
3675.000000	33.022196
3674.000000	33.015343
3673.000000	32.969493
3672.000000	32.856581
3671.000000	32.722805
3670.000000	32.627466
3669.000000	32.587394
3668.000000	32.555575
3667.000000	32.489098
3666.000000	32.399487
3665.000000	32.316284
3664.000000	32.249159
3663.000000	32.190673
3662.000000	32.135269
3661.000000	32.083594
3660.000000	32.031998
3659.000000	31.965766
3658.000000	31.872220
3657.000000	31.761744
3656.000000	31.665240
3655.000000	31.594186
3654.000000	31.523487
3653.000000	31.430529
3652.000000	31.314447
3651.000000	31.180454
3650.000000	31.033762
3649.000000	30.882251
3648.000000	30.732262
3647.000000	30.586878
3646.000000	30.446360
3645.000000	30.308523
3644.000000	30.173083
3643.000000	30.044791
3642.000000	29.927723
3641.000000	29.816243
3640.000000	29.698833
3639.000000	29.571270
3638.000000	29.438994
3637.000000	29.303460
3636.000000	29.160261
3635.000000	29.015028
3634.000000	28.886059
3633.000000	28.779386
3632.000000	28.669991
3631.000000	28.518738
3630.000000	28.311365
3629.000000	28.091499
3628.000000	27.913253
3627.000000	27.758830
3626.000000	27.586918
3625.000000	27.408252
3624.000000	27.252840
3623.000000	27.124324
3622.000000	26.999983
3621.000000	26.855181
3620.000000	26.686734
3619.000000	26.513986
3618.000000	26.351785
3617.000000	26.191541
3616.000000	26.020127
3615.000000	25.840652
3614.000000	25.668026
3613.000000	25.513564
3612.000000	25.371562
3611.000000	25.222133
3610.000000	25.051632
3609.000000	24.867714
3608.000000	24.690972
3607.000000	24.531474
3606.000000	24.381017
3605.000000	24.229601
3604.000000	24.076760
3603.000000	23.925354
3602.000000	23.775494
3601.000000	23.627331
3600.000000	23.482263
3599.000000	23.339391
3598.000000	23.194351
3597.000000	23.043051
3596.000000	22.886381
3595.000000	22.730975
3594.000000	22.584118
3593.000000	22.448365
3592.000000	22.319752
3591.000000	22.189293
3590.000000	22.046275
3589.000000	21.885906
3588.000000	21.718484
3587.000000	21.561640
3586.000000	21.418857
3585.000000	21.279581
3584.000000	21.139260
3583.000000	21.002711
3582.000000	20.873701
3581.000000	20.750922
3580.000000	20.630677
3579.000000	20.509712
3578.000000	20.386062
3577.000000	20.259981
3576.000000	20.133454
3575.000000	20.008715
3574.000000	19.887298
3573.000000	19.771050
3572.000000	19.661652
3571.000000	19.556653
3570.000000	19.448567
3569.000000	19.330683
3568.000000	19.205659
3567.000000	19.084262
3566.000000	18.971604
3565.000000	18.861139
3564.000000	18.747316
3563.000000	18.633463
3562.000000	18.525562
3561.000000	18.425989
3560.000000	18.332965
3559.000000	18.242595
3558.000000	18.151799
3557.000000	18.060105
3556.000000	17.968083
3555.000000	17.874695
3554.000000	17.778568
3553.000000	17.681756
3552.000000	17.588977
3551.000000	17.500797
3550.000000	17.411238
3549.000000	17.314282
3548.000000	17.210318
3547.000000	17.105371
3546.000000	17.005903
3545.000000	16.914483
3544.000000	16.829597
3543.000000	16.748346
3542.000000	16.668680
3541.000000	16.589569
3540.000000	16.509772
3539.000000	16.427716
3538.000000	16.343758
3537.000000	16.261561
3536.000000	16.185141
3535.000000	16.113953
3534.000000	16.043300
3533.000000	15.969811
3532.000000	15.894056
3531.000000	15.817720
3530.000000	15.740742
3529.000000	15.662336
3528.000000	15.582300
3527.000000	15.500179
3526.000000	15.415482
3525.000000	15.330583
3524.000000	15.250950
3523.000000	15.180234
3522.000000	15.116118
3521.000000	15.052743
3520.000000	14.986311
3519.000000	14.916883
3518.000000	14.846043
3517.000000	14.774539
3516.000000	14.702496
3515.000000	14.630752
3514.000000	14.561007
3513.000000	14.494387
3512.000000	14.429903
3511.000000	14.364973
3510.000000	14.298039
3509.000000	14.229961
3508.000000	14.161478
3507.000000	14.090547
3506.000000	14.014604
3505.000000	13.935244
3504.000000	13.858573
3503.000000	13.789953
3502.000000	13.729156
3501.000000	13.671452
3500.000000	13.612378
3499.000000	13.550723
3498.000000	13.488383
3497.000000	13.428367
3496.000000	13.372189
3495.000000	13.318727
3494.000000	13.265843
3493.000000	13.212490
3492.000000	13.158395
3491.000000	13.102610
3490.000000	13.044316
3489.000000	12.985026
3488.000000	12.928310
3487.000000	12.876715
3486.000000	12.829665
3485.000000	12.784169
3484.000000	12.736493
3483.000000	12.684183
3482.000000	12.628504
3481.000000	12.574718
3480.000000	12.528017
3479.000000	12.488807
3478.000000	12.453116
3477.000000	12.416963
3476.000000	12.378703
3475.000000	12.337701
3474.000000	12.292783
3473.000000	12.242756
3472.000000	12.187778
3471.000000	12.130164
3470.000000	12.074430
3469.000000	12.025949
3468.000000	11.987985
3467.000000	11.959454
3466.000000	11.935945
3465.000000	11.912456
3464.000000	11.885063
3463.000000	11.851913
3462.000000	11.814565
3461.000000	11.777593
3460.000000	11.744857
3459.000000	11.716156
3458.000000	11.688497
3457.000000	11.659795
3456.000000	11.629975
3455.000000	11.599386
3454.000000	11.568261
3453.000000	11.537438
3452.000000	11.507591
3451.000000	11.477782
3450.000000	11.446540
3449.000000	11.414478
3448.000000	11.384249
3447.000000	11.357674
3446.000000	11.334029
3445.000000	11.311367
3444.000000	11.288221
3443.000000	11.263727
3442.000000	11.237247
3441.000000	11.208208
3440.000000	11.176039
3439.000000	11.140978
3438.000000	11.105629
3437.000000	11.074678
3436.000000	11.051535
3435.000000	11.035299
3434.000000	11.021822
3433.000000	11.007334
3432.000000	10.990598
3431.000000	10.972859
3430.000000	10.956884
3429.000000	10.945135
3428.000000	10.937438
3427.000000	10.931058
3426.000000	10.923498
3425.000000	10.914137
3424.000000	10.902925
3423.000000	10.889498
3422.000000	10.874775
3421.000000	10.861440
3420.000000	10.851112
3419.000000	10.842228
3418.000000	10.832080
3417.000000	10.819550
3416.000000	10.804916
3415.000000	10.788991
3414.000000	10.773801
3413.000000	10.762169
3412.000000	10.755020
3411.000000	10.750622
3410.000000	10.747732
3409.000000	10.747529
3408.000000	10.750604
3407.000000	10.753945
3406.000000	10.752886
3405.000000	10.744857
3404.000000	10.730418
3403.000000	10.712880
3402.000000	10.698522
3401.000000	10.694451
3400.000000	10.703149
3399.000000	10.719839
3398.000000	10.736704
3397.000000	10.748512
3396.000000	10.753328
3395.000000	10.751108
3394.000000	10.744924
3393.000000	10.741745
3392.000000	10.748241
3391.000000	10.765367
3390.000000	10.788600
3389.000000	10.812679
3388.000000	10.834426
3387.000000	10.852588
3386.000000	10.867595
3385.000000	10.881140
3384.000000	10.894475
3383.000000	10.907411
3382.000000	10.919760
3381.000000	10.932503
3380.000000	10.946450
3379.000000	10.961224
3378.000000	10.976898
3377.000000	10.995065
3376.000000	11.016451
3375.000000	11.038535
3374.000000	11.057323
3373.000000	11.071012
3372.000000	11.081139
3371.000000	11.091408
3370.000000	11.106416
3369.000000	11.130016
3368.000000	11.162902
3367.000000	11.202060
3366.000000	11.243374
3365.000000	11.283850
3364.000000	11.321394
3363.000000	11.354813
3362.000000	11.385368
3361.000000	11.416593
3360.000000	11.450896
3359.000000	11.487416
3358.000000	11.524232
3357.000000	11.560780
3356.000000	11.596650
3355.000000	11.630075
3354.000000	11.659946
3353.000000	11.688483
3352.000000	11.720216
3351.000000	11.758679
3350.000000	11.804564
3349.000000	11.855687
3348.000000	11.907650
3347.000000	11.955911
3346.000000	11.999041
3345.000000	12.039462
3344.000000	12.080319
3343.000000	12.122506
3342.000000	12.165184
3341.000000	12.207896
3340.000000	12.251303
3339.000000	12.296954
3338.000000	12.346887
3337.000000	12.402066
3336.000000	12.460609
3335.000000	12.518856
3334.000000	12.574741
3333.000000	12.628866
3332.000000	12.682097
3331.000000	12.733951
3330.000000	12.783883
3329.000000	12.832399
3328.000000	12.880179
3327.000000	12.927725
3326.000000	12.976296
3325.000000	13.027258
3324.000000	13.079863
3323.000000	13.131482
3322.000000	13.180637
3321.000000	13.227981
3320.000000	13.273844
3319.000000	13.316997
3318.000000	13.356534
3317.000000	13.392932
3316.000000	13.426266
3315.000000	13.455148
3314.000000	13.478315
3313.000000	13.495299
3312.000000	13.505117
3311.000000	13.506426
3310.000000	13.499834
3309.000000	13.488516
3308.000000	13.475572
3307.000000	13.462691
3306.000000	13.451743
3305.000000	13.444902
3304.000000	13.442091
3303.000000	13.440449
3302.000000	13.437649
3301.000000	13.434024
3300.000000	13.430911
3299.000000	13.429180
3298.000000	13.430503
3297.000000	13.437503
3296.000000	13.450862
3295.000000	13.468201
3294.000000	13.486844
3293.000000	13.505774
3292.000000	13.523595
3291.000000	13.536643
3290.000000	13.540729
3289.000000	13.533558
3288.000000	13.514139
3287.000000	13.481641
3286.000000	13.436153
3285.000000	13.378257
3284.000000	13.307275
3283.000000	13.220691
3282.000000	13.116055
3281.000000	12.992313
3280.000000	12.847738
3279.000000	12.679703
3278.000000	12.487321
3277.000000	12.272350
3276.000000	12.037357
3275.000000	11.783956
3274.000000	11.515049
3273.000000	11.237303
3272.000000	10.960032
3271.000000	10.693492
3270.000000	10.449089
3269.000000	10.239010
3268.000000	10.073828
3267.000000	9.962312
3266.000000	9.911483
3265.000000	9.925791
3264.000000	10.003463
3263.000000	10.134518
3262.000000	10.305417
3261.000000	10.500697
3260.000000	10.702396
3259.000000	10.891229
3258.000000	11.050419
3257.000000	11.167701
3256.000000	11.233072
3255.000000	11.236249
3254.000000	11.167811
3253.000000	11.022202
3252.000000	10.795664
3251.000000	10.488019
3250.000000	10.105924
3249.000000	9.663712
3248.000000	9.182411
3247.000000	8.686132
3246.000000	8.202748
3245.000000	7.764096
3244.000000	7.403134
3243.000000	7.149759
3242.000000	7.029087
3241.000000	7.054747
3240.000000	7.220319
3239.000000	7.500629
3238.000000	7.858490
3237.000000	8.256765
3236.000000	8.664638
3235.000000	9.060631
3234.000000	9.435586
3233.000000	9.787054
3232.000000	10.112433
3231.000000	10.407562
3230.000000	10.671268
3229.000000	10.907139
3228.000000	11.119827
3227.000000	11.312031
3226.000000	11.485888
3225.000000	11.644767
3224.000000	11.790788
3223.000000	11.924192
3222.000000	12.045250
3221.000000	12.154910
3220.000000	12.253062
3219.000000	12.337335
3218.000000	12.405630
3217.000000	12.457169
3216.000000	12.491182
3215.000000	12.507269
3214.000000	12.506837
3213.000000	12.493231
3212.000000	12.469173
3211.000000	12.436333
3210.000000	12.397944
3209.000000	12.358438
3208.000000	12.320603
3207.000000	12.285012
3206.000000	12.252649
3205.000000	12.225743
3204.000000	12.205220
3203.000000	12.189964
3202.000000	12.179114
3201.000000	12.172827
3200.000000	12.170212
3199.000000	12.169278
3198.000000	12.169415
3197.000000	12.171581
3196.000000	12.175766
3195.000000	12.180593
3194.000000	12.186078
3193.000000	12.193872
3192.000000	12.204219
3191.000000	12.215432
3190.000000	12.226905
3189.000000	12.240427
3188.000000	12.258019
3187.000000	12.280999
3186.000000	12.311687
3185.000000	12.352727
3184.000000	12.404028
3183.000000	12.462491
3182.000000	12.525120
3181.000000	12.590047
3180.000000	12.653916
3179.000000	12.711456
3178.000000	12.758768
3177.000000	12.794995
3176.000000	12.820600
3175.000000	12.836885
3174.000000	12.847787
3173.000000	12.859495
3172.000000	12.877183
3171.000000	12.904226
3170.000000	12.944635
3169.000000	13.003384
3168.000000	13.083707
3167.000000	13.185692
3166.000000	13.308778
3165.000000	13.452831
3164.000000	13.617241
3163.000000	13.802392
3162.000000	14.011218
3161.000000	14.247862
3160.000000	14.512659
3159.000000	14.800416
3158.000000	15.103683
3157.000000	15.413738
3156.000000	15.720211
3155.000000	16.013250
3154.000000	16.287582
3153.000000	16.542368
3152.000000	16.776991
3151.000000	16.989403
3150.000000	17.178582
3149.000000	17.346054
3148.000000	17.493184
3147.000000	17.620151
3146.000000	17.726415
3145.000000	17.809764
3144.000000	17.865066
3143.000000	17.884314
3142.000000	17.861096
3141.000000	17.792204
3140.000000	17.675705
3139.000000	17.511448
3138.000000	17.301768
3137.000000	17.052305
3136.000000	16.770339
3135.000000	16.464600
3134.000000	16.148068
3133.000000	15.836708
3132.000000	15.545546
3131.000000	15.286397
3130.000000	15.068788
3129.000000	14.899161
3128.000000	14.778516
3127.000000	14.702483
3126.000000	14.664694
3125.000000	14.659081
3124.000000	14.678055
3123.000000	14.714352
3122.000000	14.764672
3121.000000	14.829289
3120.000000	14.908199
3119.000000	14.998809
3118.000000	15.098888
3117.000000	15.207376
3116.000000	15.321322
3115.000000	15.434274
3114.000000	15.538266
3113.000000	15.625548
3112.000000	15.688329
3111.000000	15.720391
3110.000000	15.718727
3109.000000	15.682800
3108.000000	15.610800
3107.000000	15.499456
3106.000000	15.348640
3105.000000	15.162529
3104.000000	14.948030
3103.000000	14.713881
3102.000000	14.472749
3101.000000	14.240758
3100.000000	14.032610
3099.000000	13.858723
3098.000000	13.726846
3097.000000	13.643656
3096.000000	13.611874
3095.000000	13.629967
3094.000000	13.694485
3093.000000	13.801694
3092.000000	13.947235
3091.000000	14.125013
3090.000000	14.329448
3089.000000	14.554961
3088.000000	14.794257
3087.000000	15.040474
3086.000000	15.290119
3085.000000	15.542650
3084.000000	15.795927
3083.000000	16.045223
3082.000000	16.287028
3081.000000	16.520831
3080.000000	16.747155
3079.000000	16.966216
3078.000000	17.178884
3077.000000	17.386045
3076.000000	17.586916
3075.000000	17.780005
3074.000000	17.965977
3073.000000	18.147275
3072.000000	18.324661
3071.000000	18.497106
3070.000000	18.665099
3069.000000	18.831602
3068.000000	18.999142
3067.000000	19.167837
3066.000000	19.336733
3065.000000	19.504748
3064.000000	19.670085
3063.000000	19.830967
3062.000000	19.987194
3061.000000	20.139439
3060.000000	20.287157
3059.000000	20.429224
3058.000000	20.566498
3057.000000	20.701216
3056.000000	20.833989
3055.000000	20.963357
3054.000000	21.088415
3053.000000	21.210193
3052.000000	21.330207
3051.000000	21.449483
3050.000000	21.568582
3049.000000	21.686731
3048.000000	21.801381
3047.000000	21.910311
3046.000000	22.014004
3045.000000	22.114428
3044.000000	22.212265
3043.000000	22.307326
3042.000000	22.400460
3041.000000	22.492688
3040.000000	22.582867
3039.000000	22.668506
3038.000000	22.749106
3037.000000	22.826908
3036.000000	22.904954
3035.000000	22.986011
3034.000000	23.072491
3033.000000	23.165235
3032.000000	23.262497
3031.000000	23.361788
3030.000000	23.462020
3029.000000	23.562634
3028.000000	23.662133
3027.000000	23.759767
3026.000000	23.857595
3025.000000	23.958384
3024.000000	24.062094
3023.000000	24.166536
3022.000000	24.270815
3021.000000	24.375795
3020.000000	24.481667
3019.000000	24.587519
3018.000000	24.693130
3017.000000	24.799222
3016.000000	24.906203
3015.000000	25.014407
3014.000000	25.125269
3013.000000	25.240424
3012.000000	25.359824
3011.000000	25.482041
3010.000000	25.605681
3009.000000	25.729251
3008.000000	25.850415
3007.000000	25.967196
3006.000000	26.079230
3005.000000	26.186865
3004.000000	26.289284
3003.000000	26.384111
3002.000000	26.467650
3001.000000	26.531373
3000.000000	26.556588
2999.000000	26.511056
2998.000000	26.356308
2997.000000	26.072316
2996.000000	25.690806
2995.000000	25.307619
2994.000000	25.046263
2993.000000	24.991000
2992.000000	25.141189
2991.000000	25.426077
2990.000000	25.757495
2989.000000	26.072212
2988.000000	26.342428
2987.000000	26.565835
2986.000000	26.753925
2985.000000	26.920544
2984.000000	27.074546
2983.000000	27.218448
2982.000000	27.351379
2981.000000	27.468588
2980.000000	27.557435
2979.000000	27.597386
2978.000000	27.568132
2977.000000	27.464348
2976.000000	27.309093
2975.000000	27.156407
2974.000000	27.072392
2973.000000	27.102583
2972.000000	27.249841
2971.000000	27.480443
2970.000000	27.748867
2969.000000	28.017605
2968.000000	28.263654
2967.000000	28.477380
2966.000000	28.659486
2965.000000	28.814539
2964.000000	28.945622
2963.000000	29.052256
2962.000000	29.130284
2961.000000	29.167425
2960.000000	29.134473
2959.000000	28.982012
2958.000000	28.650353
2957.000000	28.103650
2956.000000	27.377801
2955.000000	26.607419
2954.000000	25.986289
2953.000000	25.668208
2952.000000	25.680455
2951.000000	25.920970
2950.000000	26.235978
2949.000000	26.504577
2948.000000	26.679962
2947.000000	26.782652
2946.000000	26.869441
2945.000000	26.995685
2944.000000	27.187133
2943.000000	27.436236
2942.000000	27.718080
2941.000000	28.008725
2940.000000	28.292954
2939.000000	28.565027
2938.000000	28.827713
2937.000000	29.087712
2936.000000	29.349298
2935.000000	29.611973
2934.000000	29.873057
2933.000000	30.129490
2932.000000	30.377387
2931.000000	30.613620
2930.000000	30.837925
2929.000000	31.051131
2928.000000	31.251549
2927.000000	31.436215
2926.000000	31.605164
2925.000000	31.760814
2924.000000	31.903783
2923.000000	32.032498
2922.000000	32.146702
2921.000000	32.247837
2920.000000	32.335676
2919.000000	32.407910
2918.000000	32.462763
2917.000000	32.499634
2916.000000	32.518148
2915.000000	32.519768
2914.000000	32.510296
2913.000000	32.497505
2912.000000	32.486300
2911.000000	32.477990
2910.000000	32.473028
2909.000000	32.471500
2908.000000	32.471631
2907.000000	32.471432
2906.000000	32.471690
2905.000000	32.474803
2904.000000	32.481278
2903.000000	32.490073
2902.000000	32.501853
2901.000000	32.518497
2900.000000	32.539912
2899.000000	32.563505
2898.000000	32.586888
2897.000000	32.608121
2896.000000	32.623558
2895.000000	32.629059
2894.000000	32.623706
2893.000000	32.610275
2892.000000	32.592244
2891.000000	32.572736
2890.000000	32.555702
2889.000000	32.545097
2888.000000	32.542373
2887.000000	32.547075
2886.000000	32.559649
2885.000000	32.581308
2884.000000	32.611590
2883.000000	32.648566
2882.000000	32.691305
2881.000000	32.739626
2880.000000	32.791553
2879.000000	32.843066
2878.000000	32.890105
2877.000000	32.928458
2876.000000	32.952575
2875.000000	32.958055
2874.000000	32.945767
2873.000000	32.921321
2872.000000	32.890086
2871.000000	32.854755
2870.000000	32.818053
2869.000000	32.786402
2868.000000	32.770757
2867.000000	32.785004
2866.000000	32.842043
2865.000000	32.947145
2864.000000	33.094208
2863.000000	33.269857
2862.000000	33.460927
2861.000000	33.657220
2860.000000	33.850172
2859.000000	34.033077
2858.000000	34.202998
2857.000000	34.359742
2856.000000	34.502398
2855.000000	34.629276
2854.000000	34.739899
2853.000000	34.834354
2852.000000	34.911192
2851.000000	34.968470
2850.000000	35.006948
2849.000000	35.030442
2848.000000	35.043644
2847.000000	35.051539
2846.000000	35.060082
2845.000000	35.074193
2844.000000	35.095037
2843.000000	35.121022
2842.000000	35.151052
2841.000000	35.185277
2840.000000	35.223389
2839.000000	35.264586
2838.000000	35.308854
2837.000000	35.356267
2836.000000	35.405464
2835.000000	35.454716
2834.000000	35.503882
2833.000000	35.553560
2832.000000	35.603091
2831.000000	35.651389
2830.000000	35.699083
2829.000000	35.747757
2828.000000	35.797628
2827.000000	35.847870
2826.000000	35.898499
2825.000000	35.949892
2824.000000	36.001106
2823.000000	36.050707
2822.000000	36.098768
2821.000000	36.146138
2820.000000	36.192396
2819.000000	36.236463
2818.000000	36.278631
2817.000000	36.320098
2816.000000	36.361028
2815.000000	36.400885
2814.000000	36.440020
2813.000000	36.479078
2812.000000	36.517502
2811.000000	36.554484
2810.000000	36.590672
2809.000000	36.627107
2808.000000	36.663258
2807.000000	36.698047
2806.000000	36.732036
2805.000000	36.766567
2804.000000	36.801399
2803.000000	36.835251
2802.000000	36.868141
2801.000000	36.901270
2800.000000	36.935150
2799.000000	36.969668
2798.000000	37.005382
2797.000000	37.042868
2796.000000	37.081359
2795.000000	37.119852
2794.000000	37.158914
2793.000000	37.199602
2792.000000	37.241386
2791.000000	37.282938
2790.000000	37.324231
2789.000000	37.365906
2788.000000	37.407351
2787.000000	37.447545
2786.000000	37.487167
2785.000000	37.527894
2784.000000	37.570067
2783.000000	37.612839
2782.000000	37.656011
2781.000000	37.699753
2780.000000	37.743067
2779.000000	37.784496
2778.000000	37.823985
2777.000000	37.862392
2776.000000	37.899701
2775.000000	37.935388
2774.000000	37.969991
2773.000000	38.004535
2772.000000	38.038865
2771.000000	38.072176
2770.000000	38.104618
2769.000000	38.136812
2768.000000	38.168474
2767.000000	38.198990
2766.000000	38.228626
2765.000000	38.257541
2764.000000	38.284376
2763.000000	38.307557
2762.000000	38.327162
2761.000000	38.343928
2760.000000	38.357388
2759.000000	38.366865
2758.000000	38.373637
2757.000000	38.380167
2756.000000	38.387743
2755.000000	38.396670
2754.000000	38.407961
2753.000000	38.422886
2752.000000	38.441363
2751.000000	38.462549
2750.000000	38.486599
2749.000000	38.514171
2748.000000	38.544672
2747.000000	38.576787
2746.000000	38.610272
2745.000000	38.645483
2744.000000	38.681662
2743.000000	38.717092
2742.000000	38.750341
2741.000000	38.780016
2740.000000	38.804040
2739.000000	38.820822
2738.000000	38.830838
2737.000000	38.836003
2736.000000	38.838488
2735.000000	38.841661
2734.000000	38.850896
2733.000000	38.871145
2732.000000	38.903933
2731.000000	38.947598
2730.000000	38.999205
2729.000000	39.054878
2728.000000	39.109701
2727.000000	39.159913
2726.000000	39.205188
2725.000000	39.247292
2724.000000	39.287333
2723.000000	39.325637
2722.000000	39.362878
2721.000000	39.399206
2720.000000	39.433053
2719.000000	39.462669
2718.000000	39.488469
2717.000000	39.512537
2716.000000	39.536611
2715.000000	39.562130
2714.000000	39.591029
2713.000000	39.624341
2712.000000	39.660452
2711.000000	39.696340
2710.000000	39.730025
2709.000000	39.760572
2708.000000	39.786957
2707.000000	39.808841
2706.000000	39.827599
2705.000000	39.844848
2704.000000	39.860550
2703.000000	39.874101
2702.000000	39.886352
2701.000000	39.898685
2700.000000	39.911060
2699.000000	39.922781
2698.000000	39.934334
2697.000000	39.946690
2696.000000	39.959623
2695.000000	39.972695
2694.000000	39.987406
2693.000000	40.006493
2692.000000	40.031441
2691.000000	40.062190
2690.000000	40.098313
2689.000000	40.138601
2688.000000	40.180191
2687.000000	40.219904
2686.000000	40.256413
2685.000000	40.289920
2684.000000	40.320517
2683.000000	40.348319
2682.000000	40.374257
2681.000000	40.398872
2680.000000	40.420966
2679.000000	40.438925
2678.000000	40.452712
2677.000000	40.463514
2676.000000	40.472455
2675.000000	40.481270
2674.000000	40.493225
2673.000000	40.511491
2672.000000	40.537008
2671.000000	40.569258
2670.000000	40.607939
2669.000000	40.652136
2668.000000	40.699056
2667.000000	40.745404
2666.000000	40.789507
2665.000000	40.830744
2664.000000	40.868043
2663.000000	40.900923
2662.000000	40.931055
2661.000000	40.960752
2660.000000	40.990476
2659.000000	41.019466
2658.000000	41.047892
2657.000000	41.076657
2656.000000	41.105785
2655.000000	41.134801
2654.000000	41.164120
2653.000000	41.194239
2652.000000	41.224134
2651.000000	41.251978
2650.000000	41.276780
2649.000000	41.297986
2648.000000	41.314328
2647.000000	41.325098
2646.000000	41.332145
2645.000000	41.339012
2644.000000	41.348552
2643.000000	41.362506
2642.000000	41.382296
2641.000000	41.408343
2640.000000	41.439105
2639.000000	41.472286
2638.000000	41.506671
2637.000000	41.541530
2636.000000	41.575152
2635.000000	41.605589
2634.000000	41.632135
2633.000000	41.654632
2632.000000	41.672090
2631.000000	41.683672
2630.000000	41.690461
2629.000000	41.695199
2628.000000	41.701003
2627.000000	41.711282
2626.000000	41.729519
2625.000000	41.757096
2624.000000	41.791803
2623.000000	41.829941
2622.000000	41.869215
2621.000000	41.908396
2620.000000	41.945652
2619.000000	41.979085
2618.000000	42.008274
2617.000000	42.033766
2616.000000	42.055798
2615.000000	42.074797
2614.000000	42.092241
2613.000000	42.109362
2612.000000	42.125669
2611.000000	42.140322
2610.000000	42.153866
2609.000000	42.167185
2608.000000	42.179701
2607.000000	42.190172
2606.000000	42.198527
2605.000000	42.205241
2604.000000	42.209822
2603.000000	42.211704
2602.000000	42.211860
2601.000000	42.212019
2600.000000	42.213004
2599.000000	42.215335
2598.000000	42.220615
2597.000000	42.230534
2596.000000	42.245026
2595.000000	42.262933
2594.000000	42.283760
2593.000000	42.307162
2592.000000	42.331798
2591.000000	42.356283
2590.000000	42.380714
2589.000000	42.405723
2588.000000	42.430670
2587.000000	42.454436
2586.000000	42.477162
2585.000000	42.499612
2584.000000	42.521480
2583.000000	42.541972
2582.000000	42.561417
2581.000000	42.580878
2580.000000	42.600794
2579.000000	42.621419
2578.000000	42.643763
2577.000000	42.668532
2576.000000	42.694778
2575.000000	42.721097
2574.000000	42.747562
2573.000000	42.775084
2572.000000	42.803717
2571.000000	42.832972
2570.000000	42.862956
2569.000000	42.893638
2568.000000	42.923642
2567.000000	42.951272
2566.000000	42.976247
2565.000000	42.999234
2564.000000	43.020421
2563.000000	43.039924
2562.000000	43.058709
2561.000000	43.077721
2560.000000	43.096765
2559.000000	43.115444
2558.000000	43.134447
2557.000000	43.154696
2556.000000	43.176132
2555.000000	43.198570
2554.000000	43.222784
2553.000000	43.249325
2552.000000	43.277245
2551.000000	43.305367
2550.000000	43.333852
2549.000000	43.363307
2548.000000	43.393348
2547.000000	43.423424
2546.000000	43.453943
2545.000000	43.484985
2544.000000	43.514997
2543.000000	43.542324
2542.000000	43.567137
2541.000000	43.590247
2540.000000	43.611123
2539.000000	43.628547
2538.000000	43.642425
2537.000000	43.653348
2536.000000	43.661114
2535.000000	43.665627
2534.000000	43.668392
2533.000000	43.671717
2532.000000	43.677008
2531.000000	43.685121
2530.000000	43.697450
2529.000000	43.715055
2528.000000	43.737359
2527.000000	43.763070
2526.000000	43.791748
2525.000000	43.822907
2524.000000	43.854700
2523.000000	43.885022
2522.000000	43.913177
2521.000000	43.939071
2520.000000	43.961706
2519.000000	43.980051
2518.000000	43.994593
2517.000000	44.006503
2516.000000	44.015646
2515.000000	44.021100
2514.000000	44.022721
2513.000000	44.020752
2512.000000	44.014853
2511.000000	44.004890
2510.000000	43.992404
2509.000000	43.979825
2508.000000	43.968716
2507.000000	43.960051
2506.000000	43.955246
2505.000000	43.955347
2504.000000	43.959768
2503.000000	43.967341
2502.000000	43.977845
2501.000000	43.991537
2500.000000	44.007841
2499.000000	44.025932
2498.000000	44.045966
2497.000000	44.068092
2496.000000	44.091254
2495.000000	44.114157
2494.000000	44.136689
2493.000000	44.159129
2492.000000	44.180813
2491.000000	44.201008
2490.000000	44.220215
2489.000000	44.239182
2488.000000	44.257502
2487.000000	44.274647
2486.000000	44.291523
2485.000000	44.309614
2484.000000	44.329401
2483.000000	44.351110
2482.000000	44.375883
2481.000000	44.404542
2480.000000	44.435867
2479.000000	44.467603
2478.000000	44.498544
2477.000000	44.528122
2476.000000	44.554992
2475.000000	44.577805
2474.000000	44.597048
2473.000000	44.614743
2472.000000	44.632915
2471.000000	44.653373
2470.000000	44.677920
2469.000000	44.707048
2468.000000	44.738884
2467.000000	44.770744
2466.000000	44.801118
2465.000000	44.829080
2464.000000	44.852880
2463.000000	44.870663
2462.000000	44.881972
2461.000000	44.887236
2460.000000	44.886368
2459.000000	44.879666
2458.000000	44.869169
2457.000000	44.857965
2456.000000	44.848577
2455.000000	44.842954
2454.000000	44.843141
2453.000000	44.850315
2452.000000	44.863844
2451.000000	44.882438
2450.000000	44.905787
2449.000000	44.933583
2448.000000	44.964223
2447.000000	44.995893
2446.000000	45.028048
2445.000000	45.060622
2444.000000	45.092437
2443.000000	45.122081
2442.000000	45.149493
2441.000000	45.175229
2440.000000	45.198834
2439.000000	45.219514
2438.000000	45.237769
2437.000000	45.254988
2436.000000	45.272109
2435.000000	45.289871
2434.000000	45.309600
2433.000000	45.332043
2432.000000	45.355727
2431.000000	45.377825
2430.000000	45.396070
2429.000000	45.408949
2428.000000	45.415045
2427.000000	45.413773
2426.000000	45.406665
2425.000000	45.396527
2424.000000	45.385879
2423.000000	45.376860
2422.000000	45.371553
2421.000000	45.370942
2420.000000	45.373911
2419.000000	45.378638
2418.000000	45.384464
2417.000000	45.391702
2416.000000	45.400465
2415.000000	45.411206
2414.000000	45.425424
2413.000000	45.444228
2412.000000	45.466776
2411.000000	45.491015
2410.000000	45.515372
2409.000000	45.538594
2408.000000	45.559029
2407.000000	45.575709
2406.000000	45.589540
2405.000000	45.602161
2404.000000	45.614164
2403.000000	45.625595
2402.000000	45.637099
2401.000000	45.649035
2400.000000	45.659956
2399.000000	45.667328
2398.000000	45.669491
2397.000000	45.665505
2396.000000	45.654065
2395.000000	45.634026
2394.000000	45.605518
2393.000000	45.569473
2392.000000	45.526053
2391.000000	45.474948
2390.000000	45.416501
2389.000000	45.350913
2388.000000	45.277313
2387.000000	45.194505
2386.000000	45.101847
2385.000000	45.002695
2384.000000	44.895017
2383.000000	44.786373
2382.000000	44.664353
2381.000000	44.552228
2380.000000	44.274740
2379.000000	44.088455
2378.000000	43.917496
2377.000000	43.730995
2376.000000	43.539034
2375.000000	43.344363
2374.000000	43.131356
2373.000000	43.078409
2372.000000	43.010714
2371.000000	42.990733
2370.000000	43.036637
2369.000000	43.123156
2368.000000	43.237339
2367.000000	43.351935
2366.000000	43.454429
2365.000000	43.542649
2364.000000	43.607944
2363.000000	43.640062
2362.000000	43.645512
2361.000000	43.629022
2360.000000	43.597230
2359.000000	43.551350
2358.000000	43.484215
2357.000000	43.409503
2356.000000	43.333143
2355.000000	43.281115
2354.000000	43.297235
2353.000000	43.407068
2352.000000	43.568890
2351.000000	43.681094
2350.000000	43.711587
2349.000000	43.695434
2348.000000	43.680346
2347.000000	43.696476
2346.000000	43.719242
2345.000000	43.732870
2344.000000	43.722084
2343.000000	43.729796
2342.000000	43.778960
2341.000000	43.835546
2340.000000	43.878954
2339.000000	43.900971
2338.000000	43.922899
2337.000000	43.944247
2336.000000	43.967890
2335.000000	43.982659
2334.000000	44.007055
2333.000000	44.041017
2332.000000	44.096101
2331.000000	44.137512
2330.000000	44.175420
2329.000000	44.200995
2328.000000	44.218931
2327.000000	44.228147
2326.000000	44.225854
2325.000000	44.232252
2324.000000	44.246658
2323.000000	44.274404
2322.000000	44.314472
2321.000000	44.360173
2320.000000	44.415884
2319.000000	44.468133
2318.000000	44.528171
2317.000000	44.586362
2316.000000	44.655672
2315.000000	44.723524
2314.000000	44.796546
2313.000000	44.857757
2312.000000	44.907361
2311.000000	44.932734
2310.000000	44.940902
2309.000000	44.929006
2308.000000	44.902026
2307.000000	44.856397
2306.000000	44.800322
2305.000000	44.739163
2304.000000	44.687163
2303.000000	44.651134
2302.000000	44.645176
2301.000000	44.670681
2300.000000	44.730973
2299.000000	44.818036
2298.000000	44.927673
2297.000000	45.046893
2296.000000	45.163944
2295.000000	45.267221
2294.000000	45.352331
2293.000000	45.419705
2292.000000	45.470413
2291.000000	45.507933
2290.000000	45.534982
2289.000000	45.553914
2288.000000	45.560838
2287.000000	45.550855
2286.000000	45.518982
2285.000000	45.462825
2284.000000	45.381121
2283.000000	45.277653
2282.000000	45.162447
2281.000000	45.049758
2280.000000	44.953484
2279.000000	44.884008
2278.000000	44.846717
2277.000000	44.838762
2276.000000	44.852511
2275.000000	44.881473
2274.000000	44.926306
2273.000000	44.991136
2272.000000	45.077736
2271.000000	45.183805
2270.000000	45.305273
2269.000000	45.436490
2268.000000	45.570228
2267.000000	45.699603
2266.000000	45.820903
2265.000000	45.932004
2264.000000	46.030445
2263.000000	46.115420
2262.000000	46.188540
2261.000000	46.253631
2260.000000	46.312395
2259.000000	46.366036
2258.000000	46.416644
2257.000000	46.466277
2256.000000	46.515975
2255.000000	46.565743
2254.000000	46.617663
2253.000000	46.673696
2252.000000	46.734978
2251.000000	46.801388
2250.000000	46.873435
2249.000000	46.951000
2248.000000	47.032567
2247.000000	47.116211
2246.000000	47.201024
2245.000000	47.285627
2244.000000	47.366841
2243.000000	47.441836
2242.000000	47.509975
2241.000000	47.571967
2240.000000	47.628151
2239.000000	47.679536
2238.000000	47.728539
2237.000000	47.776924
2236.000000	47.823855
2235.000000	47.867400
2234.000000	47.906818
2233.000000	47.941956
2232.000000	47.971983
2231.000000	47.996690
2230.000000	48.018123
2229.000000	48.039071
2228.000000	48.060780
2227.000000	48.082998
2226.000000	48.105234
2225.000000	48.126112
2224.000000	48.142881
2223.000000	48.153331
2222.000000	48.157745
2221.000000	48.157998
2220.000000	48.155831
2219.000000	48.153350
2218.000000	48.153668
2217.000000	48.159063
2216.000000	48.168983
2215.000000	48.181079
2214.000000	48.193044
2213.000000	48.202210
2212.000000	48.204893
2211.000000	48.198569
2210.000000	48.184541
2209.000000	48.167413
2208.000000	48.152691
2207.000000	48.145419
2206.000000	48.148943
2205.000000	48.162285
2204.000000	48.178998
2203.000000	48.190415
2202.000000	48.190227
2201.000000	48.176462
2200.000000	48.151787
2199.000000	48.124519
2198.000000	48.107541
2197.000000	48.112802
2196.000000	48.145391
2195.000000	48.202755
2194.000000	48.278029
2193.000000	48.362720
2192.000000	48.448474
2191.000000	48.529316
2190.000000	48.602728
2189.000000	48.667835
2188.000000	48.723375
2187.000000	48.768605
2186.000000	48.804458
2185.000000	48.832573
2184.000000	48.853722
2183.000000	48.868394
2182.000000	48.877606
2181.000000	48.882058
2180.000000	48.881750
2179.000000	48.877839
2178.000000	48.873767
2177.000000	48.872859
2176.000000	48.875877
2175.000000	48.882163
2174.000000	48.891957
2173.000000	48.905987
2172.000000	48.923821
2171.000000	48.944518
2170.000000	48.968073
2169.000000	48.994759
2168.000000	49.023625
2167.000000	49.053064
2166.000000	49.081887
2165.000000	49.108798
2164.000000	49.132023
2163.000000	49.151065
2162.000000	49.167957
2161.000000	49.185533
2160.000000	49.205365
2159.000000	49.228388
2158.000000	49.256150
2157.000000	49.289690
2156.000000	49.328219
2155.000000	49.370344
2154.000000	49.415647
2153.000000	49.463627
2152.000000	49.512189
2151.000000	49.558640
2150.000000	49.601271
2149.000000	49.638750
2148.000000	49.668849
2147.000000	49.689446
2146.000000	49.699886
2145.000000	49.700328
2144.000000	49.690878
2143.000000	49.672684
2142.000000	49.648925
2141.000000	49.623356
2140.000000	49.598119
2139.000000	49.573751
2138.000000	49.550418
2137.000000	49.528093
2136.000000	49.507012
2135.000000	49.489795
2134.000000	49.482010
2133.000000	49.489204
2132.000000	49.513530
2131.000000	49.553795
2130.000000	49.607251
2129.000000	49.669631
2128.000000	49.734825
2127.000000	49.796714
2126.000000	49.851155
2125.000000	49.895311
2124.000000	49.926676
2123.000000	49.944017
2122.000000	49.948412
2121.000000	49.942296
2120.000000	49.928402
2119.000000	49.910569
2118.000000	49.894266
2117.000000	49.884374
2116.000000	49.882661
2115.000000	49.888226
2114.000000	49.899008
2113.000000	49.911925
2112.000000	49.923094
2111.000000	49.929775
2110.000000	49.931452
2109.000000	49.928107
2108.000000	49.918858
2107.000000	49.903711
2106.000000	49.885551
2105.000000	49.868999
2104.000000	49.858141
2103.000000	49.856413
2102.000000	49.866979
2101.000000	49.890960
2100.000000	49.926449
2099.000000	49.970575
2098.000000	50.021759
2097.000000	50.078528
2096.000000	50.137558
2095.000000	50.194690
2094.000000	50.246244
2093.000000	50.288075
2092.000000	50.314734
2091.000000	50.322008
2090.000000	50.309982
2089.000000	50.282796
2088.000000	50.247024
2087.000000	50.211671
2086.000000	50.187649
2085.000000	50.184089
2084.000000	50.204583
2083.000000	50.247365
2082.000000	50.308236
2081.000000	50.381779
2080.000000	50.461698
2079.000000	50.542713
2078.000000	50.622064
2077.000000	50.698185
2076.000000	50.769282
2075.000000	50.834574
2074.000000	50.894641
2073.000000	50.949708
2072.000000	50.997993
2071.000000	51.037166
2070.000000	51.067144
2069.000000	51.089161
2068.000000	51.103912
2067.000000	51.112461
2066.000000	51.118134
2065.000000	51.125398
2064.000000	51.136792
2063.000000	51.152426
2062.000000	51.172211
2061.000000	51.196756
2060.000000	51.226171
2059.000000	51.259570
2058.000000	51.295663
2057.000000	51.333039
2056.000000	51.370162
2055.000000	51.406078
2054.000000	51.440638
2053.000000	51.473691
2052.000000	51.504491
2051.000000	51.532409
2050.000000	51.558033
2049.000000	51.582333
2048.000000	51.605445
2047.000000	51.627581
2046.000000	51.650297
2045.000000	51.675101
2044.000000	51.701916
2043.000000	51.730056
2042.000000	51.759859
2041.000000	51.791895
2040.000000	51.825337
2039.000000	51.858682
2038.000000	51.891409
2037.000000	51.923563
2036.000000	51.954346
2035.000000	51.982469
2034.000000	52.007564
2033.000000	52.030258
2032.000000	52.051502
2031.000000	52.072573
2030.000000	52.094867
2029.000000	52.119227
2028.000000	52.145083
2027.000000	52.171764
2026.000000	52.199550
2025.000000	52.228798
2024.000000	52.258860
2023.000000	52.287815
2022.000000	52.314387
2021.000000	52.337427
2020.000000	52.355257
2019.000000	52.366984
2018.000000	52.374512
2017.000000	52.381893
2016.000000	52.392318
2015.000000	52.406740
2014.000000	52.424888
2013.000000	52.446060
2012.000000	52.468711
2011.000000	52.490498
2010.000000	52.509381
2009.000000	52.525087
2008.000000	52.539438
2007.000000	52.555642
2006.000000	52.576525
2005.000000	52.603572
2004.000000	52.637295
2003.000000	52.676934
2002.000000	52.721364
2001.000000	52.767725
2000.000000	52.812853
1999.000000	52.854649
1998.000000	52.891858
1997.000000	52.925952
1996.000000	52.958959
1995.000000	52.990351
1994.000000	53.016882
1993.000000	53.036914
1992.000000	53.052459
1991.000000	53.065496
1990.000000	53.073572
1989.000000	53.072299
1988.000000	53.061484
1987.000000	53.046465
1986.000000	53.032879
1985.000000	53.022969
1984.000000	53.018704
1983.000000	53.024271
1982.000000	53.042696
1981.000000	53.070527
1980.000000	53.100757
1979.000000	53.127878
1978.000000	53.148173
1977.000000	53.160336
1976.000000	53.166352
1975.000000	53.172910
1974.000000	53.187496
1973.000000	53.214130
1972.000000	53.252946
1971.000000	53.302072
1970.000000	53.357602
1969.000000	53.413843
1968.000000	53.466999
1967.000000	53.517955
1966.000000	53.568465
1965.000000	53.616057
1964.000000	53.656288
1963.000000	53.688864
1962.000000	53.717125
1961.000000	53.741362
1960.000000	53.756751
1959.000000	53.758893
1958.000000	53.747921
1957.000000	53.725417
1956.000000	53.692102
1955.000000	53.650246
1954.000000	53.604152
1953.000000	53.557979
1952.000000	53.514362
1951.000000	53.477652
1950.000000	53.454345
1949.000000	53.446242
1948.000000	53.452405
1947.000000	53.475020
1946.000000	53.516042
1945.000000	53.570234
1944.000000	53.628862
1943.000000	53.691393
1942.000000	53.765256
1941.000000	53.850821
1940.000000	53.937430
1939.000000	54.016346
1938.000000	54.089696
1937.000000	54.163629
1936.000000	54.237686
1935.000000	54.306139
1934.000000	54.366251
1933.000000	54.419985
1932.000000	54.466732
1931.000000	54.503987
1930.000000	54.532196
1929.000000	54.550951
1928.000000	54.561560
1927.000000	54.565557
1926.000000	54.565201
1925.000000	54.560340
1924.000000	54.548922
1923.000000	54.540165
1922.000000	54.545012
1921.000000	54.558036
1920.000000	54.558357
1919.000000	54.535001
1918.000000	54.505351
1917.000000	54.494270
1916.000000	54.499593
1915.000000	54.500695
1914.000000	54.489376
1913.000000	54.476706
1912.000000	54.472509
1911.000000	54.475142
1910.000000	54.481625
1909.000000	54.494949
1908.000000	54.519055
1907.000000	54.549653
1906.000000	54.583063
1905.000000	54.621112
1904.000000	54.662011
1903.000000	54.701454
1902.000000	54.733283
1901.000000	54.754191
1900.000000	54.766276
1899.000000	54.772881
1898.000000	54.778317
1897.000000	54.787721
1896.000000	54.803104
1895.000000	54.827493
1894.000000	54.864547
1893.000000	54.912970
1892.000000	54.963489
1891.000000	55.008259
1890.000000	55.052587
1889.000000	55.108692
1888.000000	55.176022
1887.000000	55.239847
1886.000000	55.289734
1885.000000	55.330151
1884.000000	55.371276
1883.000000	55.416285
1882.000000	55.461690
1881.000000	55.506000
1880.000000	55.552732
1879.000000	55.601148
1878.000000	55.645804
1877.000000	55.684676
1876.000000	55.716545
1875.000000	55.740947
1874.000000	55.763678
1873.000000	55.792424
1872.000000	55.825313
1871.000000	55.849627
1870.000000	55.859774
1869.000000	55.871668
1868.000000	55.901597
1867.000000	55.937415
1866.000000	55.953134
1865.000000	55.938607
1864.000000	55.902695
1863.000000	55.858450
1862.000000	55.813116
1861.000000	55.773198
1860.000000	55.749863
1859.000000	55.752534
1858.000000	55.782060
1857.000000	55.833485
1856.000000	55.899106
1855.000000	55.968323
1854.000000	56.032206
1853.000000	56.088099
1852.000000	56.142973
1851.000000	56.200228
1850.000000	56.257074
1849.000000	56.323691
1848.000000	56.410546
1847.000000	56.504555
1846.000000	56.569068
1845.000000	56.585767
1844.000000	56.585924
1843.000000	56.611410
1842.000000	56.653368
1841.000000	56.674518
1840.000000	56.665145
1839.000000	56.646344
1838.000000	56.643558
1837.000000	56.660115
1836.000000	56.683078
1835.000000	56.711877
1834.000000	56.753673
1833.000000	56.802199
1832.000000	56.838883
1831.000000	56.855089
1830.000000	56.874249
1829.000000	56.927098
1828.000000	57.000338
1827.000000	57.054003
1826.000000	57.070534
1825.000000	57.074606
1824.000000	57.098602
1823.000000	57.140799
1822.000000	57.178904
1821.000000	57.207438
1820.000000	57.241002
1819.000000	57.288319
1818.000000	57.345325
1817.000000	57.406011
1816.000000	57.469867
1815.000000	57.538401
1814.000000	57.602195
1813.000000	57.651922
1812.000000	57.688429
1811.000000	57.718726
1810.000000	57.749819
1809.000000	57.780937
1808.000000	57.812723
1807.000000	57.849534
1806.000000	57.891998
1805.000000	57.937042
1804.000000	57.981764
1803.000000	58.023360
1802.000000	58.053131
1801.000000	58.069226
1800.000000	58.079821
1799.000000	58.088602
1798.000000	58.098007
1797.000000	58.112110
1796.000000	58.136475
1795.000000	58.160127
1794.000000	58.154348
1793.000000	58.113008
1792.000000	58.078616
1791.000000	58.088288
1790.000000	58.126243
1789.000000	58.159127
1788.000000	58.179125
1787.000000	58.195699
1786.000000	58.218225
1785.000000	58.252708
1784.000000	58.303115
1783.000000	58.362489
1782.000000	58.404603
1781.000000	58.420457
1780.000000	58.429385
1779.000000	58.441628
1778.000000	58.453207
1777.000000	58.463313
1776.000000	58.493390
1775.000000	58.547743
1774.000000	58.592048
1773.000000	58.608162
1772.000000	58.639891
1771.000000	58.719692
1770.000000	58.807609
1769.000000	58.855471
1768.000000	58.867784
1767.000000	58.894626
1766.000000	58.959999
1765.000000	59.033180
1764.000000	59.075060
1763.000000	59.083109
1762.000000	59.090764
1761.000000	59.126199
1760.000000	59.176599
1759.000000	59.208956
1758.000000	59.205678
1757.000000	59.179359
1756.000000	59.179219
1755.000000	59.228601
1754.000000	59.295946
1753.000000	59.337370
1752.000000	59.347613
1751.000000	59.366120
1750.000000	59.422898
1749.000000	59.486999
1748.000000	59.520730
1747.000000	59.531387
1746.000000	59.527303
1745.000000	59.505498
1744.000000	59.466375
1743.000000	59.420499
1742.000000	59.363628
1741.000000	59.264204
1740.000000	59.125750
1739.000000	59.029837
1738.000000	59.033991
1737.000000	59.081699
1736.000000	59.074054
1735.000000	58.969790
1734.000000	58.864984
1733.000000	58.870043
1732.000000	58.924116
1731.000000	58.932511
1730.000000	58.893929
1729.000000	58.842854
1728.000000	58.802800
1727.000000	58.771677
1726.000000	58.733478
1725.000000	58.684631
1724.000000	58.633109
1723.000000	58.597582
1722.000000	58.593127
1721.000000	58.600545
1720.000000	58.583052
1719.000000	58.518498
1718.000000	58.434806
1717.000000	58.379427
1716.000000	58.346043
1715.000000	58.300236
1714.000000	58.239512
1713.000000	58.179213
1712.000000	58.127984
1711.000000	58.086392
1710.000000	58.048752
1709.000000	58.010699
1708.000000	57.967548
1707.000000	57.900101
1706.000000	57.805260
1705.000000	57.731359
1704.000000	57.720363
1703.000000	57.731898
1702.000000	57.649117
1701.000000	57.404312
1700.000000	57.168303
1699.000000	57.133615
1698.000000	57.167861
1697.000000	57.070920
1696.000000	56.831700
1695.000000	56.603061
1694.000000	56.479254
1693.000000	56.384387
1692.000000	56.245215
1691.000000	56.070698
1690.000000	55.903726
1689.000000	55.775140
1688.000000	55.690312
1687.000000	55.610497
1686.000000	55.449030
1685.000000	55.139955
1684.000000	54.789668
1683.000000	54.564050
1682.000000	54.410441
1681.000000	54.219726
1680.000000	53.987585
1679.000000	53.770622
1678.000000	53.581882
1677.000000	53.358446
1676.000000	53.052536
1675.000000	52.735286
1674.000000	52.509595
1673.000000	52.350909
1672.000000	52.163868
1671.000000	51.904134
1670.000000	51.599732
1669.000000	51.299672
1668.000000	51.035237
1667.000000	50.807653
1666.000000	50.594748
1665.000000	50.353746
1664.000000	50.051893
1663.000000	49.720873
1662.000000	49.424916
1661.000000	49.171758
1660.000000	48.926037
1659.000000	48.675865
1658.000000	48.453533
1657.000000	48.290781
1656.000000	48.165913
1655.000000	47.983385
1654.000000	47.632394
1653.000000	47.182217
1652.000000	46.856599
1651.000000	46.669241
1650.000000	46.486406
1649.000000	46.223912
1648.000000	45.855015
1647.000000	45.413649
1646.000000	44.989918
1645.000000	44.621643
1644.000000	44.279418
1643.000000	43.940314
1642.000000	43.600529
1641.000000	43.269177
1640.000000	42.976123
1639.000000	42.743852
1638.000000	42.557832
1637.000000	42.370311
1636.000000	42.177551
1635.000000	42.051115
1634.000000	42.026801
1633.000000	42.053639
1632.000000	42.080396
1631.000000	42.112435
1630.000000	42.169886
1629.000000	42.260146
1628.000000	42.382094
1627.000000	42.535439
1626.000000	42.710511
1625.000000	42.893187
1624.000000	43.087019
1623.000000	43.319223
1622.000000	43.599568
1621.000000	43.896975
1620.000000	44.185556
1619.000000	44.474034
1618.000000	44.803320
1617.000000	45.214580
1616.000000	45.692456
1615.000000	46.162400
1614.000000	46.578017
1613.000000	46.953508
1612.000000	47.315488
1611.000000	47.674271
1610.000000	48.016937
1609.000000	48.317279
1608.000000	48.548529
1607.000000	48.692546
1606.000000	48.737242
1605.000000	48.660049
1604.000000	48.423363
1603.000000	47.977315
1602.000000	47.269857
1601.000000	46.224727
1600.000000	44.710221
1599.000000	42.587975
1598.000000	39.796142
1597.000000	36.436219
1596.000000	32.855055
1595.000000	29.646723
1594.000000	27.407372
1593.000000	26.364266
1592.000000	26.322640
1591.000000	26.942232
1590.000000	27.972018
1589.000000	29.236780
1588.000000	30.558483
1587.000000	31.778940
1586.000000	32.841615
1585.000000	33.831760
1584.000000	34.883236
1583.000000	36.029589
1582.000000	37.161005
1581.000000	38.153639
1580.000000	39.009401
1579.000000	39.850277
1578.000000	40.808667
1577.000000	41.921349
1576.000000	43.052858
1575.000000	43.984755
1574.000000	44.635396
1573.000000	45.081449
1572.000000	45.424256
1571.000000	45.745530
1570.000000	46.110040
1569.000000	46.522350
1568.000000	46.929890
1567.000000	47.305186
1566.000000	47.672650
1565.000000	48.056545
1564.000000	48.451369
1563.000000	48.834426
1562.000000	49.188512
1561.000000	49.506840
1560.000000	49.820165
1559.000000	50.255376
1558.000000	50.780718
1557.000000	51.196839
1556.000000	51.486869
1555.000000	51.730988
1554.000000	51.994216
1553.000000	52.287136
1552.000000	52.576110
1551.000000	52.836741
1550.000000	53.091857
1549.000000	53.352820
1548.000000	53.592742
1547.000000	53.789045
1546.000000	53.957143
1545.000000	54.141519
1544.000000	54.355259
1543.000000	54.559843
1542.000000	54.722616
1541.000000	54.853317
1540.000000	54.974318
1539.000000	55.089229
1538.000000	55.196128
1537.000000	55.294739
1536.000000	55.373185
1535.000000	55.439328
1534.000000	55.528403
1533.000000	55.686453
1532.000000	55.883246
1531.000000	56.049896
1530.000000	56.178715
1529.000000	56.295998
1528.000000	56.418476
1527.000000	56.545125
1526.000000	56.674459
1525.000000	56.813727
1524.000000	56.953245
1523.000000	57.064897
1522.000000	57.152264
1521.000000	57.256926
1520.000000	57.383371
1519.000000	57.482956
1518.000000	57.538346
1517.000000	57.588352
1516.000000	57.665741
1515.000000	57.756028
1514.000000	57.826067
1513.000000	57.871556
1512.000000	57.919262
1511.000000	57.998633
1510.000000	58.108882
1509.000000	58.215387
1508.000000	58.288837
1507.000000	58.343326
1506.000000	58.400914
1505.000000	58.461694
1504.000000	58.522516
1503.000000	58.568669
1502.000000	58.613802
1501.000000	58.674213
1500.000000	58.755238
1499.000000	58.847069
1498.000000	58.935754
1497.000000	59.015204
1496.000000	59.089808
1495.000000	59.173275
1494.000000	59.266572
1493.000000	59.357816
1492.000000	59.444706
1491.000000	59.547882
1490.000000	59.696802
1489.000000	59.873835
1488.000000	60.024791
1487.000000	60.137355
1486.000000	60.241221
1485.000000	60.353348
1484.000000	60.476361
1483.000000	60.604011
1482.000000	60.738508
1481.000000	60.888385
1480.000000	61.041856
1479.000000	61.178721
1478.000000	61.296107
1477.000000	61.419366
1476.000000	61.570325
1475.000000	61.743259
1474.000000	61.914613
1473.000000	62.089311
1472.000000	62.283271
1471.000000	62.471406
1470.000000	62.619330
1469.000000	62.719672
1468.000000	62.784466
1467.000000	62.822157
1466.000000	62.817209
1465.000000	62.740644
1464.000000	62.575623
1463.000000	62.312131
1462.000000	61.951873
1461.000000	61.515800
1460.000000	61.044982
1459.000000	60.569822
1458.000000	60.087681
1457.000000	59.618872
1456.000000	59.215986
1455.000000	58.840995
1454.000000	58.350556
1453.000000	57.632059
1452.000000	56.678140
1451.000000	55.546877
1450.000000	54.233677
1449.000000	52.607485
1448.000000	50.583146
1447.000000	48.352955
1446.000000	46.350470
1445.000000	45.044140
1444.000000	44.775879
1443.000000	45.610990
1442.000000	47.255006
1441.000000	49.193723
1440.000000	50.983837
1439.000000	52.406127
1438.000000	53.428912
1437.000000	54.126378
1436.000000	54.643523
1435.000000	55.117691
1434.000000	55.615531
1433.000000	56.165827
1432.000000	56.771456
1431.000000	57.394419
1430.000000	57.974239
1429.000000	58.464906
1428.000000	58.849603
1427.000000	59.141483
1426.000000	59.364588
1425.000000	59.552893
1424.000000	59.738913
1423.000000	59.928444
1422.000000	60.113201
1421.000000	60.287514
1420.000000	60.464315
1419.000000	60.675644
1418.000000	60.922027
1417.000000	61.151155
1416.000000	61.330628
1415.000000	61.476574
1414.000000	61.620871
1413.000000	61.781577
1412.000000	61.948788
1411.000000	62.105073
1410.000000	62.248408
1409.000000	62.377115
1408.000000	62.473666
1407.000000	62.525873
1406.000000	62.535912
1405.000000	62.510216
1404.000000	62.449936
1403.000000	62.358764
1402.000000	62.256202
1401.000000	62.162203
1400.000000	62.096323
1399.000000	62.077910
1398.000000	62.102709
1397.000000	62.135847
1396.000000	62.149896
1395.000000	62.152225
1394.000000	62.149941
1393.000000	62.110839
1392.000000	61.985993
1391.000000	61.765771
1390.000000	61.490623
1389.000000	61.208999
1388.000000	60.955606
1387.000000	60.770480
1386.000000	60.696240
1385.000000	60.748652
1384.000000	60.922747
1383.000000	61.214471
1382.000000	61.616790
1381.000000	62.094041
1380.000000	62.587215
1379.000000	63.048110
1378.000000	63.452982
1377.000000	63.786181
1376.000000	64.025199
1375.000000	64.152400
1374.000000	64.158195
1373.000000	64.018160
1372.000000	63.666429
1371.000000	62.974613
1370.000000	61.737987
1369.000000	59.738614
1368.000000	56.955766
1367.000000	53.774871
1366.000000	50.899360
1365.000000	49.011064
1364.000000	48.505103
1363.000000	49.344054
1362.000000	51.051382
1361.000000	53.009043
1360.000000	54.817786
1359.000000	56.353235
1358.000000	57.628785
1357.000000	58.691610
1356.000000	59.581064
1355.000000	60.318374
1354.000000	60.920662
1353.000000	61.417093
1352.000000	61.838947
1351.000000	62.202826
1350.000000	62.513465
1349.000000	62.780083
1348.000000	63.011239
1347.000000	63.205272
1346.000000	63.364879
1345.000000	63.506015
1344.000000	63.646794
1343.000000	63.793504
1342.000000	63.951150
1341.000000	64.133156
1340.000000	64.344396
1339.000000	64.560137
1338.000000	64.741482
1337.000000	64.868630
1336.000000	64.945204
1335.000000	64.985797
1334.000000	65.013767
1333.000000	65.055518
1332.000000	65.123461
1331.000000	65.209252
1330.000000	65.298366
1329.000000	65.384436
1328.000000	65.462213
1327.000000	65.517925
1326.000000	65.534361
1325.000000	65.497041
1324.000000	65.388923
1323.000000	65.182037
1322.000000	64.845374
1321.000000	64.348155
1320.000000	63.637385
1319.000000	62.622596
1318.000000	61.221223
1317.000000	59.474001
1316.000000	57.642949
1315.000000	56.164774
1314.000000	55.420888
1313.000000	55.498569
1312.000000	56.174944
1311.000000	57.129880
1310.000000	58.162657
1309.000000	59.203496
1308.000000	60.209541
1307.000000	61.129089
1306.000000	61.938137
1305.000000	62.652498
1304.000000	63.286450
1303.000000	63.835909
1302.000000	64.305938
1301.000000	64.717597
1300.000000	65.077396
1299.000000	65.373516
1298.000000	65.603074
1297.000000	65.769355
1296.000000	65.855906
1295.000000	65.820833
1294.000000	65.604761
1293.000000	65.105063
1292.000000	64.185104
1291.000000	62.835534
1290.000000	61.360915
1289.000000	60.295747
1288.000000	60.027775
1287.000000	60.483783
1286.000000	61.217550
1285.000000	61.807037
1284.000000	62.112963
1283.000000	62.221230
1282.000000	62.271444
1281.000000	62.359754
1280.000000	62.520252
1279.000000	62.718731
1278.000000	62.852810
1277.000000	62.752302
1276.000000	62.163288
1275.000000	60.774850
1274.000000	58.424184
1273.000000	55.426755
1272.000000	52.685220
1271.000000	51.266428
1270.000000	51.699470
1269.000000	53.648377
1268.000000	56.239328
1267.000000	58.680223
1266.000000	60.605678
1265.000000	62.010079
1264.000000	63.023898
1263.000000	63.770107
1262.000000	64.338394
1261.000000	64.790670
1260.000000	65.158718
1259.000000	65.454956
1258.000000	65.695797
1257.000000	65.895225
1256.000000	66.052888
1255.000000	66.167076
1254.000000	66.249545
1253.000000	66.320207
1252.000000	66.391100
1251.000000	66.470302
1250.000000	66.572632
1249.000000	66.711250
1248.000000	66.883086
1247.000000	67.074837
1246.000000	67.278601
1245.000000	67.489616
1244.000000	67.694872
1243.000000	67.878971
1242.000000	68.038653
1241.000000	68.178555
1240.000000	68.296049
1239.000000	68.382687
1238.000000	68.438286
1237.000000	68.468823
1236.000000	68.474246
1235.000000	68.453550
1234.000000	68.417394
1233.000000	68.382841
1232.000000	68.356759
1231.000000	68.335648
1230.000000	68.317806
1229.000000	68.299023
1228.000000	68.260476
1227.000000	68.172560
1226.000000	68.007897
1225.000000	67.742477
1224.000000	67.344594
1223.000000	66.786342
1222.000000	66.066780
1221.000000	65.211663
1220.000000	64.260298
1219.000000	63.252263
1218.000000	62.220631
1217.000000	61.177599
1216.000000	60.101680
1215.000000	58.953689
1214.000000	57.702162
1213.000000	56.338858
1212.000000	54.884708
1211.000000	53.395053
1210.000000	51.957608
1209.000000	50.679703
1208.000000	49.662155
1207.000000	48.954279
1206.000000	48.517133
1205.000000	48.232094
1204.000000	47.989832
1203.000000	47.788830
1202.000000	47.745163
1201.000000	48.012370
1200.000000	48.659292
1199.000000	49.618378
1198.000000	50.733742
1197.000000	51.849918
1196.000000	52.881702
1195.000000	53.819514
1194.000000	54.700539
1193.000000	55.574950
1192.000000	56.477237
1191.000000	57.414816
1190.000000	58.374056
1189.000000	59.330082
1188.000000	60.249221
1187.000000	61.096033
1186.000000	61.843858
1185.000000	62.481224
1184.000000	63.006656
1183.000000	63.422901
1182.000000	63.744123
1181.000000	63.992961
1180.000000	64.191155
1179.000000	64.356942
1178.000000	64.505735
1177.000000	64.647993
1176.000000	64.782095
1175.000000	64.901212
1174.000000	65.008334
1173.000000	65.116239
1172.000000	65.236201
1171.000000	65.375335
1170.000000	65.542731
1169.000000	65.744766
1168.000000	65.971880
1167.000000	66.199331
1166.000000	66.401768
1165.000000	66.559842
1164.000000	66.657554
1163.000000	66.689221
1162.000000	66.673642
1161.000000	66.648607
1160.000000	66.647591
1159.000000	66.687866
1158.000000	66.775508
1157.000000	66.907851
1156.000000	67.069761
1155.000000	67.240015
1154.000000	67.405506
1153.000000	67.563036
1152.000000	67.708736
1151.000000	67.838136
1150.000000	67.956497
1149.000000	68.075408
1148.000000	68.195660
1147.000000	68.304502
1146.000000	68.389629
1145.000000	68.443027
1144.000000	68.453867
1143.000000	68.410001
1142.000000	68.311832
1141.000000	68.174084
1140.000000	68.009673
1139.000000	67.824046
1138.000000	67.618379
1137.000000	67.387004
1136.000000	67.110943
1135.000000	66.761186
1134.000000	66.316575
1133.000000	65.767499
1132.000000	65.108900
1131.000000	64.345526
1130.000000	63.498794
1129.000000	62.604116
1128.000000	61.692780
1127.000000	60.776929
1126.000000	59.849837
1125.000000	58.874363
1124.000000	57.781020
1123.000000	56.459630
1122.000000	54.750481
1121.000000	52.455625
1120.000000	49.366486
1119.000000	45.362261
1118.000000	40.558202
1117.000000	35.434648
1116.000000	30.823096
1115.000000	27.682370
1114.000000	26.687691
1113.000000	27.916166
1112.000000	30.851503
1111.000000	34.610773
1110.000000	38.306290
1109.000000	41.337925
1108.000000	43.449610
1107.000000	44.545400
1106.000000	44.478895
1105.000000	43.104261
1104.000000	40.613811
1103.000000	37.796020
1102.000000	35.795884
1101.000000	35.478535
1100.000000	36.957748
1099.000000	39.658559
1098.000000	42.781730
1097.000000	45.748891
1096.000000	48.315258
1095.000000	50.459081
1094.000000	52.249111
1093.000000	53.766108
1092.000000	55.068873
1091.000000	56.194769
1090.000000	57.178599
1089.000000	58.057118
1088.000000	58.860549
1087.000000	59.602697
1086.000000	60.297667
1085.000000	60.962250
1084.000000	61.596616
1083.000000	62.187597
1082.000000	62.728307
1081.000000	63.226158
1080.000000	63.686485
1079.000000	64.107223
1078.000000	64.496278
1077.000000	64.869308
1076.000000	65.229277
1075.000000	65.564160
1074.000000	65.863983
1073.000000	66.125113
1072.000000	66.329048
1071.000000	66.442046
1070.000000	66.439226
1069.000000	66.303807
1068.000000	66.012954
1067.000000	65.532493
1066.000000	64.837251
1065.000000	63.921539
1064.000000	62.775533
1063.000000	61.391962
1062.000000	59.769521
1061.000000	57.898456
1060.000000	55.742030
1059.000000	53.231431
1058.000000	50.310642
1057.000000	46.986945
1056.000000	43.384175
1055.000000	39.778010
1054.000000	36.581799
1053.000000	34.238158
1052.000000	33.081075
1051.000000	33.222396
1050.000000	34.492931
1049.000000	36.539194
1048.000000	38.952864
1047.000000	41.389688
1046.000000	43.647556
1045.000000	45.656375
1044.000000	47.432682
1043.000000	49.014411
1042.000000	50.427363
1041.000000	51.681188
1040.000000	52.778429
1039.000000	53.721324
1038.000000	54.524476
1037.000000	55.216808
1036.000000	55.821380
1035.000000	56.354368
1034.000000	56.832405
1033.000000	57.275893
1032.000000	57.699672
1031.000000	58.108160
1030.000000	58.507797
1029.000000	58.908435
1028.000000	59.313203
1027.000000	59.720607
1026.000000	60.139855
1025.000000	60.590336
1024.000000	61.081503
1023.000000	61.604232
1022.000000	62.144710
1021.000000	62.691822
1020.000000	63.228477
1019.000000	63.729731
1018.000000	64.171300
1017.000000	64.529877
1016.000000	64.757471
1015.000000	64.785039
1014.000000	64.539688
1013.000000	63.945677
1012.000000	62.924282
1011.000000	61.371965
1010.000000	59.162251
1009.000000	56.154890
1008.000000	52.282587
1007.000000	47.765737
1006.000000	43.269742
1005.000000	39.768709
1004.000000	38.101108
1003.000000	38.511887
1002.000000	40.525102
1001.000000	43.252226
1000.000000	45.798105
999.000000	47.476774
998.000000	47.880085
997.000000	46.963401
996.000000	45.179420
995.000000	43.415111
994.000000	42.578281
993.000000	43.089044
992.000000	44.714927
991.000000	46.855662
990.000000	48.974162
989.000000	50.821747
988.000000	52.379307
987.000000	53.701935
986.000000	54.843077
985.000000	55.840731
984.000000	56.711543
983.000000	57.455419
982.000000	58.084263
981.000000	58.629939
980.000000	59.119709
979.000000	59.569327
978.000000	59.994172
977.000000	60.414145
976.000000	60.834227
975.000000	61.239019
974.000000	61.615952
973.000000	61.961990
972.000000	62.268634
971.000000	62.520477
970.000000	62.716479
969.000000	62.875938
968.000000	63.014610
967.000000	63.135919
966.000000	63.247721
965.000000	63.365589
964.000000	63.494303
963.000000	63.624225
962.000000	63.752742
961.000000	63.890859
960.000000	64.043581
959.000000	64.204042
958.000000	64.372408
957.000000	64.559723
956.000000	64.765159
955.000000	64.968254
954.000000	65.150914
953.000000	65.307552
952.000000	65.429506
951.000000	65.502229
950.000000	65.525636
949.000000	65.519415
948.000000	65.500743
947.000000	65.475844
946.000000	65.457108
945.000000	65.464540
944.000000	65.503696
943.000000	65.562256
942.000000	65.635099
941.000000	65.732349
940.000000	65.857609
939.000000	65.999056
938.000000	66.149281
937.000000	66.312084
936.000000	66.480809
935.000000	66.631684
934.000000	66.747354
933.000000	66.826948
932.000000	66.866653
931.000000	66.855629
930.000000	66.798284
929.000000	66.719612
928.000000	66.640099
927.000000	66.565915
926.000000	66.509329
925.000000	66.492946
924.000000	66.525091
923.000000	66.592863
922.000000	66.688046
921.000000	66.815402
920.000000	66.969278
919.000000	67.126074
918.000000	67.270129
917.000000	67.403320
916.000000	67.519688
915.000000	67.596683
914.000000	67.622786
913.000000	67.609246
912.000000	67.563322
911.000000	67.479655
910.000000	67.367413
909.000000	67.258224
908.000000	67.174449
907.000000	67.115461
906.000000	67.084731
905.000000	67.098918
904.000000	67.154667
903.000000	67.215596
902.000000	67.251377
901.000000	67.266310
900.000000	67.277400
899.000000	67.285800
898.000000	67.277600
897.000000	67.215819
896.000000	67.033595
895.000000	66.681007
894.000000	66.184078
893.000000	65.589313
892.000000	64.825358
891.000000	63.727085
890.000000	62.299563
889.000000	60.919496
888.000000	60.138646
887.000000	60.251300
886.000000	61.072168
885.000000	62.141102
884.000000	63.099264
883.000000	63.837539
882.000000	64.398940
881.000000	64.838546
880.000000	65.178505
879.000000	65.434833
878.000000	65.634318
877.000000	65.800127
876.000000	65.935209
875.000000	66.027352
874.000000	66.064993
873.000000	66.049409
872.000000	65.992304
871.000000	65.912214
870.000000	65.835190
869.000000	65.787953
868.000000	65.785534
867.000000	65.828027
866.000000	65.909685
865.000000	66.022534
864.000000	66.150337
863.000000	66.270582
862.000000	66.368925
861.000000	66.442967
860.000000	66.488919
859.000000	66.496192
858.000000	66.460275
857.000000	66.387869
856.000000	66.284130
855.000000	66.149271
854.000000	65.991543
853.000000	65.831250
852.000000	65.685824
851.000000	65.563318
850.000000	65.474410
849.000000	65.436576
848.000000	65.458638
847.000000	65.532696
846.000000	65.647400
845.000000	65.794226
844.000000	65.955710
843.000000	66.101949
842.000000	66.208801
841.000000	66.267476
840.000000	66.271764
839.000000	66.212011
838.000000	66.089927
837.000000	65.923587
836.000000	65.728517
835.000000	65.511350
834.000000	65.287727
833.000000	65.089376
832.000000	64.942180
831.000000	64.850767
830.000000	64.811848
829.000000	64.827914
828.000000	64.897502
827.000000	65.005477
826.000000	65.136143
825.000000	65.280568
824.000000	65.420665
823.000000	65.522581
822.000000	65.560870
821.000000	65.533698
820.000000	65.445082
819.000000	65.291694
818.000000	65.076935
817.000000	64.821344
816.000000	64.540325
815.000000	64.227856
814.000000	63.865307
813.000000	63.417148
812.000000	62.801469
811.000000	61.888854
810.000000	60.594343
809.000000	59.007373
808.000000	57.429000
807.000000	56.246529
806.000000	55.727424
805.000000	55.886394
804.000000	56.520278
803.000000	57.362830
802.000000	58.212542
801.000000	58.963135
800.000000	59.565300
799.000000	59.999438
798.000000	60.279709
797.000000	60.443657
796.000000	60.522968
795.000000	60.534739
794.000000	60.500459
793.000000	60.449470
792.000000	60.402082
791.000000	60.366421
790.000000	60.355313
789.000000	60.387057
788.000000	60.462637
787.000000	60.559717
786.000000	60.653613
785.000000	60.728436
784.000000	60.765349
783.000000	60.741415
782.000000	60.649788
781.000000	60.505246
780.000000	60.325533
779.000000	60.124949
778.000000	59.928470
777.000000	59.771095
776.000000	59.674309
775.000000	59.638766
774.000000	59.663188
773.000000	59.753053
772.000000	59.904410
771.000000	60.098049
770.000000	60.317746
769.000000	60.556192
768.000000	60.796304
767.000000	61.004894
766.000000	61.154776
765.000000	61.235574
764.000000	61.238150
763.000000	61.150640
762.000000	60.980859
761.000000	60.763423
760.000000	60.534635
759.000000	60.317595
758.000000	60.135114
757.000000	60.014074
756.000000	59.964867
755.000000	59.974025
754.000000	60.026080
753.000000	60.116264
752.000000	60.234989
751.000000	60.360559
750.000000	60.478441
749.000000	60.588847
748.000000	60.685187
747.000000	60.743064
746.000000	60.741275
745.000000	60.675159
744.000000	60.541997
743.000000	60.335990
742.000000	60.069263
741.000000	59.778150
740.000000	59.497678
739.000000	59.247645
738.000000	59.048584
737.000000	58.926638
736.000000	58.888071
735.000000	58.906603
734.000000	58.946893
733.000000	58.982099
732.000000	58.979497
731.000000	58.893920
730.000000	58.693005
729.000000	58.371547
728.000000	57.935094
727.000000	57.396003
726.000000	56.799408
725.000000	56.231608
724.000000	55.782557
723.000000	55.506694
722.000000	55.422152
721.000000	55.518988
720.000000	55.751621
719.000000	56.050839
718.000000	56.367240
717.000000	56.690873
716.000000	57.021335
715.000000	57.342519
714.000000	57.637029
713.000000	57.900181
712.000000	58.122792
711.000000	58.281861
710.000000	58.366521
709.000000	58.391948
708.000000	58.373229
707.000000	58.308578
706.000000	58.199198
705.000000	58.062576
704.000000	57.913308
703.000000	57.750263
702.000000	57.579907
701.000000	57.431214
700.000000	57.328892
699.000000	57.276817
698.000000	57.278462
697.000000	57.347140
696.000000	57.479668
695.000000	57.639991
694.000000	57.791403
693.000000	57.922583
692.000000	58.023085
691.000000	58.067904
690.000000	58.045393
689.000000	57.974639
688.000000	57.874424
687.000000	57.738242
686.000000	57.566099
685.000000	57.387685
684.000000	57.226712
683.000000	57.076381
682.000000	56.935566
681.000000	56.836424
680.000000	56.807734
679.000000	56.841118
678.000000	56.923032
677.000000	57.064728
676.000000	57.262813
675.000000	57.470223
674.000000	57.647532
673.000000	57.772913
672.000000	57.734375
671.000000	57.311011
670.000000	56.395459
669.000000	55.287473
668.000000	54.571322
667.000000	54.713791
666.000000	55.625851
665.000000	56.549196
664.000000	56.998437
663.000000	57.072479
662.000000	57.018658
661.000000	56.995393
660.000000	57.029296
659.000000	57.115400
658.000000	57.250322
657.000000	57.420263
656.000000	57.599139
655.000000	57.760795
654.000000	57.884505
653.000000	57.956024
652.000000	57.967527
651.000000	57.918018
650.000000	57.819892
649.000000	57.696167
648.000000	57.567159
647.000000	57.445931
646.000000	57.343575
645.000000	57.272577
644.000000	57.238524
643.000000	57.236888
642.000000	57.266893
641.000000	57.336258
640.000000	57.446789
639.000000	57.587066
638.000000	57.744528
637.000000	57.912915
636.000000	58.079159
635.000000	58.213649
634.000000	58.289751
633.000000	58.302771
632.000000	58.257939
631.000000	58.158800
630.000000	58.020284
629.000000	57.873965
628.000000	57.746713
627.000000	57.648354
626.000000	57.585814
625.000000	57.572370
624.000000	57.609521
623.000000	57.678236
622.000000	57.763634
621.000000	57.869594
620.000000	57.998453
619.000000	58.136974
618.000000	58.275077
617.000000	58.416061
616.000000	58.550600
615.000000	58.644185
614.000000	58.671000
613.000000	58.639079
612.000000	58.564103
611.000000	58.448368
610.000000	58.306540
609.000000	58.180345
608.000000	58.102861
607.000000	58.072445
606.000000	58.079688
605.000000	58.133183
604.000000	58.234117
603.000000	58.353335
602.000000	58.463761
601.000000	58.566800
600.000000	58.659620
599.000000	58.708090
598.000000	58.681343
597.000000	58.572732
596.000000	58.359267
595.000000	57.963970
594.000000	57.257819
593.000000	56.049274
592.000000	54.068345
591.000000	51.139401
590.000000	47.525721
589.000000	44.070329
588.000000	41.852774
587.000000	41.573718
586.000000	43.120480
585.000000	45.678878
584.000000	48.325798
583.000000	50.523844
582.000000	52.180689
581.000000	53.425264
580.000000	54.389286
579.000000	55.140649
578.000000	55.723120
577.000000	56.179367
576.000000	56.528962
575.000000	56.767714
574.000000	56.900935
573.000000	56.963110
572.000000	56.989725
571.000000	56.998739
570.000000	57.012159
569.000000	57.063338
568.000000	57.168388
567.000000	57.309275
566.000000	57.456851
565.000000	57.590976
564.000000	57.685495
563.000000	57.707832
562.000000	57.656778
561.000000	57.574611
560.000000	57.499556
559.000000	57.427443
558.000000	57.336412
557.000000	57.220309
556.000000	57.083175
555.000000	56.933194
554.000000	56.802620
553.000000	56.742560
552.000000	56.778476
551.000000	56.893354
550.000000	57.064190
549.000000	57.289060
548.000000	57.561499
547.000000	57.848412
546.000000	58.118039
545.000000	58.363726
544.000000	58.579060
543.000000	58.741429
542.000000	58.845023
541.000000	58.917549
540.000000	58.978720
539.000000	59.014082
538.000000	59.010928
537.000000	58.984370
536.000000	58.940645
535.000000	58.857259
534.000000	58.726506
533.000000	58.584556
532.000000	58.471813
531.000000	58.398001
530.000000	58.369081
529.000000	58.407605
528.000000	58.516513
527.000000	58.651273
526.000000	58.751929
525.000000	58.779306
524.000000	58.702591
523.000000	58.485461
522.000000	58.119700
521.000000	57.633921
520.000000	57.040083
519.000000	56.299226
518.000000	55.370220
517.000000	54.281973
516.000000	53.137695
515.000000	52.081568
514.000000	51.273558
513.000000	50.856714
512.000000	50.892174
511.000000	51.330808
510.000000	52.060025
509.000000	52.973092
508.000000	53.979742
507.000000	54.967481
506.000000	55.829506
505.000000	56.527602
504.000000	57.078261
503.000000	57.493963
502.000000	57.787314
501.000000	58.001157
500.000000	58.178288
499.000000	58.328260
498.000000	58.453568
497.000000	58.576609
496.000000	58.705696
495.000000	58.812316
494.000000	58.879730
493.000000	58.938560
492.000000	59.019964
491.000000	59.117756
490.000000	59.227216
489.000000	59.375454
488.000000	59.565053
487.000000	59.729230
486.000000	59.783663
485.000000	59.682907
484.000000	59.397018
483.000000	58.873690
482.000000	58.083789
481.000000	57.054674
480.000000	55.803869
479.000000	54.294662
478.000000	52.504765
477.000000	50.539330
476.000000	48.652144
475.000000	47.182668
474.000000	46.455004
473.000000	46.657200
472.000000	47.693033
471.000000	49.195954
470.000000	50.819142
469.000000	52.414906
468.000000	53.919246
467.000000	55.222821
466.000000	56.241801
465.000000	57.011185
464.000000	57.601337
463.000000	58.026333
462.000000	58.308001
461.000000	58.538706
460.000000	58.797551
459.000000	59.088382
458.000000	59.398913
457.000000	59.738477
456.000000	60.076759
455.000000	60.344595
454.000000	60.544737
453.000000	60.764746
452.000000	61.043123
451.000000	61.312980
450.000000	61.535754
449.000000	61.773020
448.000000	62.048735
447.000000	62.263518
446.000000	62.340612
445.000000	62.340158
444.000000	62.330216
443.000000	62.279247
442.000000	62.181816
441.000000	62.150432
440.000000	62.259290
439.000000	62.438154
438.000000	62.616961
437.000000	62.839819
436.000000	63.128670
435.000000	63.369348
434.000000	63.480098
433.000000	63.544602
432.000000	63.644373
431.000000	63.721913
430.000000	63.733896
429.000000	63.768252
428.000000	63.865948
427.000000	63.904369
426.000000	63.806584
425.000000	63.685893
424.000000	63.630574
423.000000	63.543425
422.000000	63.379938
421.000000	63.329743
420.000000	63.582068
419.000000	64.024847
418.000000	64.386536
417.000000	64.659595
416.000000	64.925297
415.000000	65.081465
414.000000	65.071501
413.000000	65.076553
412.000000	65.246362
411.000000	65.442927
410.000000	65.511219
409.000000	65.535847
408.000000	65.556054
407.000000	65.364080
406.000000	64.909141
405.000000	64.560010
404.000000	64.590291
403.000000	64.797371
402.000000	64.909177
401.000000	65.085988
400.000000	65.534291
