PE IR       SUBTECH     SPECTRUM    ASCII       PEDS        4.00        
   -1
23ms226_cis.asc
24/10/18
15:41:06.00
24/10/18
15:41:06.00
Administrator
Sample 1305 By Administrator Date Friday, October 18 2024
400.000000
#HDR
-1
-1
#GR
cm-1
%T
1.0
0.0
4000.000000
-1.000000
3601
8
93.510755
18.117730
#DATA
4000.000000	76.607327
3999.000000	76.593061
3998.000000	76.582119
3997.000000	76.573612
3996.000000	76.566321
3995.000000	76.559601
3994.000000	76.553676
3993.000000	76.548773
3992.000000	76.544206
3991.000000	76.538717
3990.000000	76.531707
3989.000000	76.523974
3988.000000	76.517110
3987.000000	76.512409
3986.000000	76.510741
3985.000000	76.512910
3984.000000	76.519652
3983.000000	76.531272
3982.000000	76.547591
3981.000000	76.568463
3980.000000	76.594017
3979.000000	76.624516
3978.000000	76.660044
3977.000000	76.699925
3976.000000	76.742766
3975.000000	76.786848
3974.000000	76.830706
3973.000000	76.873742
3972.000000	76.915805
3971.000000	76.956767
3970.000000	76.996137
3969.000000	77.033548
3968.000000	77.069463
3967.000000	77.104840
3966.000000	77.140830
3965.000000	77.178604
3964.000000	77.218995
3963.000000	77.261677
3962.000000	77.305451
3961.000000	77.349265
3960.000000	77.392964
3959.000000	77.437237
3958.000000	77.481966
3957.000000	77.526247
3956.000000	77.569566
3955.000000	77.611931
3954.000000	77.653780
3953.000000	77.694898
3952.000000	77.734321
3951.000000	77.770942
3950.000000	77.804110
3949.000000	77.834305
3948.000000	77.863215
3947.000000	77.893594
3946.000000	77.927785
3945.000000	77.965067
3944.000000	78.000489
3943.000000	78.027996
3942.000000	78.047894
3941.000000	78.067898
3940.000000	78.094542
3939.000000	78.127853
3938.000000	78.162437
3937.000000	78.194031
3936.000000	78.224113
3935.000000	78.256069
3934.000000	78.291173
3933.000000	78.326409
3932.000000	78.358146
3931.000000	78.385204
3930.000000	78.407184
3929.000000	78.426050
3928.000000	78.444983
3927.000000	78.466373
3926.000000	78.488210
3925.000000	78.504027
3924.000000	78.512030
3923.000000	78.517968
3922.000000	78.526398
3921.000000	78.536113
3920.000000	78.544607
3919.000000	78.553440
3918.000000	78.565642
3917.000000	78.580979
3916.000000	78.597519
3915.000000	78.614223
3914.000000	78.631183
3913.000000	78.647977
3912.000000	78.663468
3911.000000	78.679503
3910.000000	78.698595
3909.000000	78.722267
3908.000000	78.751655
3907.000000	78.783138
3906.000000	78.808711
3905.000000	78.818885
3904.000000	78.814501
3903.000000	78.812291
3902.000000	78.828143
3901.000000	78.861549
3900.000000	78.898303
3899.000000	78.926966
3898.000000	78.950446
3897.000000	78.978179
3896.000000	79.013028
3895.000000	79.053895
3894.000000	79.098056
3893.000000	79.141573
3892.000000	79.176002
3891.000000	79.196499
3890.000000	79.211758
3889.000000	79.234912
3888.000000	79.271589
3887.000000	79.314721
3886.000000	79.350437
3885.000000	79.377330
3884.000000	79.408713
3883.000000	79.450996
3882.000000	79.490618
3881.000000	79.508236
3880.000000	79.502047
3879.000000	79.491843
3878.000000	79.497051
3877.000000	79.519408
3876.000000	79.546995
3875.000000	79.565618
3874.000000	79.571312
3873.000000	79.576204
3872.000000	79.594251
3871.000000	79.620333
3870.000000	79.636913
3869.000000	79.646145
3868.000000	79.667598
3867.000000	79.706773
3866.000000	79.747198
3865.000000	79.769795
3864.000000	79.775900
3863.000000	79.782686
3862.000000	79.797083
3861.000000	79.816348
3860.000000	79.840971
3859.000000	79.877069
3858.000000	79.932022
3857.000000	80.004721
3856.000000	80.081650
3855.000000	80.132368
3854.000000	80.132518
3853.000000	80.108897
3852.000000	80.108065
3851.000000	80.129227
3850.000000	80.143252
3849.000000	80.139567
3848.000000	80.128077
3847.000000	80.126182
3846.000000	80.141276
3845.000000	80.168316
3844.000000	80.198745
3843.000000	80.227412
3842.000000	80.255609
3841.000000	80.289649
3840.000000	80.325647
3839.000000	80.351989
3838.000000	80.369320
3837.000000	80.388581
3836.000000	80.416429
3835.000000	80.447730
3834.000000	80.474749
3833.000000	80.494691
3832.000000	80.507612
3831.000000	80.517795
3830.000000	80.533295
3829.000000	80.557694
3828.000000	80.585880
3827.000000	80.609885
3826.000000	80.626782
3825.000000	80.646391
3824.000000	80.680585
3823.000000	80.727834
3822.000000	80.770028
3821.000000	80.791230
3820.000000	80.805275
3819.000000	80.835709
3818.000000	80.881784
3817.000000	80.920140
3816.000000	80.933300
3815.000000	80.934569
3814.000000	80.949446
3813.000000	80.976788
3812.000000	80.995934
3811.000000	81.001446
3810.000000	81.009082
3809.000000	81.033029
3808.000000	81.067584
3807.000000	81.097087
3806.000000	81.122101
3805.000000	81.160045
3804.000000	81.213800
3803.000000	81.266696
3802.000000	81.292453
3801.000000	81.288515
3800.000000	81.286336
3799.000000	81.304073
3798.000000	81.327858
3797.000000	81.338659
3796.000000	81.337252
3795.000000	81.341317
3794.000000	81.362670
3793.000000	81.393890
3792.000000	81.420497
3791.000000	81.439041
3790.000000	81.455560
3789.000000	81.474843
3788.000000	81.497691
3787.000000	81.523576
3786.000000	81.551051
3785.000000	81.576606
3784.000000	81.597402
3783.000000	81.616189
3782.000000	81.637095
3781.000000	81.658338
3780.000000	81.673261
3779.000000	81.681564
3778.000000	81.692647
3777.000000	81.713748
3776.000000	81.740193
3775.000000	81.762971
3774.000000	81.781327
3773.000000	81.802323
3772.000000	81.829842
3771.000000	81.858320
3770.000000	81.880903
3769.000000	81.902052
3768.000000	81.931296
3767.000000	81.968347
3766.000000	82.003968
3765.000000	82.030117
3764.000000	82.050864
3763.000000	82.077977
3762.000000	82.114666
3761.000000	82.152742
3760.000000	82.182908
3759.000000	82.208403
3758.000000	82.237910
3757.000000	82.272431
3756.000000	82.310913
3755.000000	82.353353
3754.000000	82.398355
3753.000000	82.440541
3752.000000	82.475573
3751.000000	82.509342
3750.000000	82.549069
3749.000000	82.592738
3748.000000	82.638644
3747.000000	82.690856
3746.000000	82.745588
3745.000000	82.780754
3744.000000	82.791137
3743.000000	82.808990
3742.000000	82.846357
3741.000000	82.878728
3740.000000	82.888072
3739.000000	82.886263
3738.000000	82.900678
3737.000000	82.940342
3736.000000	82.992559
3735.000000	83.040358
3734.000000	83.080530
3733.000000	83.115932
3732.000000	83.141876
3731.000000	83.156580
3730.000000	83.165940
3729.000000	83.176383
3728.000000	83.189533
3727.000000	83.201352
3726.000000	83.211785
3725.000000	83.226958
3724.000000	83.248762
3723.000000	83.269589
3722.000000	83.282111
3721.000000	83.291388
3720.000000	83.305571
3719.000000	83.327776
3718.000000	83.355297
3717.000000	83.384046
3716.000000	83.417050
3715.000000	83.457972
3714.000000	83.505653
3713.000000	83.554811
3712.000000	83.600530
3711.000000	83.644277
3710.000000	83.689159
3709.000000	83.734676
3708.000000	83.775437
3707.000000	83.807954
3706.000000	83.835471
3705.000000	83.864212
3704.000000	83.896687
3703.000000	83.928919
3702.000000	83.955654
3701.000000	83.977446
3700.000000	83.999280
3699.000000	84.023761
3698.000000	84.050024
3697.000000	84.073857
3696.000000	84.094260
3695.000000	84.115808
3694.000000	84.142431
3693.000000	84.174381
3692.000000	84.208544
3691.000000	84.240444
3690.000000	84.265124
3689.000000	84.284945
3688.000000	84.307978
3687.000000	84.335527
3686.000000	84.360728
3685.000000	84.376516
3684.000000	84.381001
3683.000000	84.381974
3682.000000	84.393288
3681.000000	84.417943
3680.000000	84.447040
3679.000000	84.472149
3678.000000	84.498005
3677.000000	84.530874
3676.000000	84.559215
3675.000000	84.577098
3674.000000	84.597795
3673.000000	84.628277
3672.000000	84.658570
3671.000000	84.676447
3670.000000	84.678742
3669.000000	84.680383
3668.000000	84.696345
3667.000000	84.718540
3666.000000	84.730815
3665.000000	84.731796
3664.000000	84.730692
3663.000000	84.736347
3662.000000	84.749514
3661.000000	84.763785
3660.000000	84.777607
3659.000000	84.793715
3658.000000	84.813246
3657.000000	84.830724
3656.000000	84.841234
3655.000000	84.850794
3654.000000	84.864930
3653.000000	84.880609
3652.000000	84.892160
3651.000000	84.897024
3650.000000	84.899454
3649.000000	84.910854
3648.000000	84.937427
3647.000000	84.968344
3646.000000	84.988301
3645.000000	84.995001
3644.000000	84.996155
3643.000000	84.999393
3642.000000	85.005899
3641.000000	85.014214
3640.000000	85.024693
3639.000000	85.035657
3638.000000	85.043262
3637.000000	85.046167
3636.000000	85.047779
3635.000000	85.050100
3634.000000	85.049426
3633.000000	85.044231
3632.000000	85.038384
3631.000000	85.035720
3630.000000	85.030601
3629.000000	85.013595
3628.000000	84.991783
3627.000000	84.977737
3626.000000	84.960750
3625.000000	84.924054
3624.000000	84.868788
3623.000000	84.809991
3622.000000	84.760227
3621.000000	84.717230
3620.000000	84.666708
3619.000000	84.600018
3618.000000	84.524275
3617.000000	84.449102
3616.000000	84.375511
3615.000000	84.298245
3614.000000	84.212255
3613.000000	84.119655
3612.000000	84.029895
3611.000000	83.950219
3610.000000	83.879173
3609.000000	83.811076
3608.000000	83.739729
3607.000000	83.662430
3606.000000	83.578877
3605.000000	83.488542
3604.000000	83.393509
3603.000000	83.297182
3602.000000	83.203349
3601.000000	83.114528
3600.000000	83.031744
3599.000000	82.953293
3598.000000	82.875923
3597.000000	82.795221
3596.000000	82.709692
3595.000000	82.619101
3594.000000	82.523470
3593.000000	82.425788
3592.000000	82.329189
3591.000000	82.236636
3590.000000	82.152695
3589.000000	82.082500
3588.000000	82.025103
3587.000000	81.974701
3586.000000	81.926658
3585.000000	81.877697
3584.000000	81.823781
3583.000000	81.762479
3582.000000	81.695862
3581.000000	81.627471
3580.000000	81.559131
3579.000000	81.489489
3578.000000	81.416762
3577.000000	81.340859
3576.000000	81.262322
3575.000000	81.181400
3574.000000	81.097570
3573.000000	81.010931
3572.000000	80.921911
3571.000000	80.830349
3570.000000	80.737052
3569.000000	80.644738
3568.000000	80.553950
3567.000000	80.460800
3566.000000	80.361356
3565.000000	80.254276
3564.000000	80.139152
3563.000000	80.017346
3562.000000	79.891916
3561.000000	79.765704
3560.000000	79.638891
3559.000000	79.509002
3558.000000	79.373278
3557.000000	79.230822
3556.000000	79.082296
3555.000000	78.928323
3554.000000	78.768549
3553.000000	78.602307
3552.000000	78.430399
3551.000000	78.254167
3550.000000	78.072990
3549.000000	77.885161
3548.000000	77.689813
3547.000000	77.487980
3546.000000	77.281084
3545.000000	77.070284
3544.000000	76.855991
3543.000000	76.637097
3542.000000	76.410910
3541.000000	76.175047
3540.000000	75.928504
3539.000000	75.670235
3538.000000	75.398982
3537.000000	75.114617
3536.000000	74.819287
3535.000000	74.514640
3534.000000	74.199987
3533.000000	73.873780
3532.000000	73.535164
3531.000000	73.182976
3530.000000	72.813853
3529.000000	72.424617
3528.000000	72.015012
3527.000000	71.586870
3526.000000	71.141303
3525.000000	70.679012
3524.000000	70.201847
3523.000000	69.711526
3522.000000	69.207281
3521.000000	68.686024
3520.000000	68.144561
3519.000000	67.580165
3518.000000	66.991181
3517.000000	66.378540
3516.000000	65.745835
3515.000000	65.096656
3514.000000	64.433046
3513.000000	63.755634
3512.000000	63.062635
3511.000000	62.349176
3510.000000	61.611686
3509.000000	60.854272
3508.000000	60.085615
3507.000000	59.308164
3506.000000	58.514493
3505.000000	57.696819
3504.000000	56.857328
3503.000000	56.006641
3502.000000	55.154440
3501.000000	54.303679
3500.000000	53.451195
3499.000000	52.590979
3498.000000	51.719242
3497.000000	50.838571
3496.000000	49.956268
3495.000000	49.077770
3494.000000	48.204619
3493.000000	47.338690
3492.000000	46.483154
3491.000000	45.638227
3490.000000	44.801384
3489.000000	43.974334
3488.000000	43.165886
3487.000000	42.385423
3486.000000	41.636471
3485.000000	40.917019
3484.000000	40.221207
3483.000000	39.541120
3482.000000	38.872949
3481.000000	38.223076
3480.000000	37.602872
3479.000000	37.015244
3478.000000	36.451298
3477.000000	35.900299
3476.000000	35.357204
3475.000000	34.821007
3474.000000	34.291713
3473.000000	33.771610
3472.000000	33.265761
3471.000000	32.780408
3470.000000	32.325955
3469.000000	31.919620
3468.000000	31.578956
3467.000000	31.311708
3466.000000	31.115705
3465.000000	30.988308
3464.000000	30.929309
3463.000000	30.937253
3462.000000	31.011583
3461.000000	31.156694
3460.000000	31.377673
3459.000000	31.670000
3458.000000	32.018710
3457.000000	32.407767
3456.000000	32.823090
3455.000000	33.248419
3454.000000	33.665723
3453.000000	34.059301
3452.000000	34.415280
3451.000000	34.718214
3450.000000	34.952233
3449.000000	35.107038
3448.000000	35.178347
3447.000000	35.163182
3446.000000	35.061819
3445.000000	34.880517
3444.000000	34.629086
3443.000000	34.317482
3442.000000	33.956385
3441.000000	33.561716
3440.000000	33.152555
3439.000000	32.746113
3438.000000	32.359894
3437.000000	32.015136
3436.000000	31.731890
3435.000000	31.520348
3434.000000	31.380510
3433.000000	31.309208
3432.000000	31.306502
3431.000000	31.375570
3430.000000	31.522774
3429.000000	31.757774
3428.000000	32.086298
3427.000000	32.507347
3426.000000	33.016769
3425.000000	33.612660
3424.000000	34.295604
3423.000000	35.062127
3422.000000	35.906314
3421.000000	36.821940
3420.000000	37.799207
3419.000000	38.823372
3418.000000	39.877891
3417.000000	40.950801
3416.000000	42.033904
3415.000000	43.118793
3414.000000	44.198244
3413.000000	45.267557
3412.000000	46.320941
3411.000000	47.349056
3410.000000	48.343566
3409.000000	49.301960
3408.000000	50.224854
3407.000000	51.109444
3406.000000	51.950392
3405.000000	52.745570
3404.000000	53.496973
3403.000000	54.209000
3402.000000	54.888474
3401.000000	55.544312
3400.000000	56.182726
3399.000000	56.801543
3398.000000	57.393476
3397.000000	57.954408
3396.000000	58.485451
3395.000000	58.990164
3394.000000	59.472995
3393.000000	59.940663
3392.000000	60.400269
3391.000000	60.853981
3390.000000	61.299040
3389.000000	61.731959
3388.000000	62.151533
3387.000000	62.558516
3386.000000	62.954893
3385.000000	63.343894
3384.000000	63.727841
3383.000000	64.106516
3382.000000	64.479136
3381.000000	64.846830
3380.000000	65.211360
3379.000000	65.572500
3378.000000	65.929201
3377.000000	66.282503
3376.000000	66.634167
3375.000000	66.983183
3374.000000	67.326075
3373.000000	67.660607
3372.000000	67.987376
3371.000000	68.308202
3370.000000	68.625574
3369.000000	68.942830
3368.000000	69.262367
3367.000000	69.583386
3366.000000	69.902677
3365.000000	70.217319
3364.000000	70.525383
3363.000000	70.825386
3362.000000	71.117340
3361.000000	71.403563
3360.000000	71.686649
3359.000000	71.966834
3358.000000	72.242771
3357.000000	72.514240
3356.000000	72.781775
3355.000000	73.044617
3354.000000	73.300995
3353.000000	73.550495
3352.000000	73.794752
3351.000000	74.035534
3350.000000	74.273299
3349.000000	74.507267
3348.000000	74.735690
3347.000000	74.956736
3346.000000	75.170238
3345.000000	75.378292
3344.000000	75.582931
3343.000000	75.783223
3342.000000	75.976089
3341.000000	76.159588
3340.000000	76.334602
3339.000000	76.503762
3338.000000	76.669251
3337.000000	76.831525
3336.000000	76.988664
3335.000000	77.137262
3334.000000	77.274639
3333.000000	77.399461
3332.000000	77.510669
3331.000000	77.606520
3330.000000	77.685601
3329.000000	77.748149
3328.000000	77.794709
3327.000000	77.825028
3326.000000	77.838228
3325.000000	77.832752
3324.000000	77.805486
3323.000000	77.750929
3322.000000	77.663965
3321.000000	77.542453
3320.000000	77.385393
3319.000000	77.191078
3318.000000	76.955897
3317.000000	76.676141
3316.000000	76.347355
3315.000000	75.962266
3314.000000	75.512909
3313.000000	74.991572
3312.000000	74.390336
3311.000000	73.700620
3310.000000	72.913107
3309.000000	72.022971
3308.000000	71.027047
3307.000000	69.919956
3306.000000	68.694591
3305.000000	67.340873
3304.000000	65.849323
3303.000000	64.207858
3302.000000	62.405339
3301.000000	60.438418
3300.000000	58.310672
3299.000000	56.035148
3298.000000	53.638187
3297.000000	51.162714
3296.000000	48.664576
3295.000000	46.201096
3294.000000	43.827623
3293.000000	41.598215
3292.000000	39.557311
3291.000000	37.724436
3290.000000	36.093722
3289.000000	34.640404
3288.000000	33.329540
3287.000000	32.122780
3286.000000	30.983714
3285.000000	29.889151
3284.000000	28.827164
3283.000000	27.794603
3282.000000	26.801573
3281.000000	25.872254
3280.000000	25.040611
3279.000000	24.340473
3278.000000	23.804516
3277.000000	23.467334
3276.000000	23.354234
3275.000000	23.472156
3274.000000	23.808080
3273.000000	24.331188
3272.000000	24.995563
3271.000000	25.737215
3270.000000	26.482968
3269.000000	27.161775
3268.000000	27.709377
3267.000000	28.073491
3266.000000	28.224199
3265.000000	28.158917
3264.000000	27.896988
3263.000000	27.474429
3262.000000	26.939437
3261.000000	26.352286
3260.000000	25.773666
3259.000000	25.252785
3258.000000	24.827803
3257.000000	24.526603
3256.000000	24.359958
3255.000000	24.315426
3254.000000	24.363637
3253.000000	24.468916
3252.000000	24.599197
3251.000000	24.732189
3250.000000	24.866688
3249.000000	25.027225
3248.000000	25.247095
3247.000000	25.547885
3246.000000	25.927782
3245.000000	26.362946
3244.000000	26.815752
3243.000000	27.246751
3242.000000	27.628738
3241.000000	27.951219
3240.000000	28.212969
3239.000000	28.414016
3238.000000	28.557596
3237.000000	28.651970
3236.000000	28.707042
3235.000000	28.732108
3234.000000	28.736693
3233.000000	28.730067
3232.000000	28.712250
3231.000000	28.671164
3230.000000	28.593484
3229.000000	28.472715
3228.000000	28.306679
3227.000000	28.091246
3226.000000	27.822811
3225.000000	27.503652
3224.000000	27.137968
3223.000000	26.728956
3222.000000	26.282714
3221.000000	25.812204
3220.000000	25.332996
3219.000000	24.856223
3218.000000	24.389898
3217.000000	23.941198
3216.000000	23.512862
3215.000000	23.101108
3214.000000	22.701306
3213.000000	22.311983
3212.000000	21.930195
3211.000000	21.548708
3210.000000	21.162597
3209.000000	20.775247
3208.000000	20.393294
3207.000000	20.020711
3206.000000	19.662300
3205.000000	19.326884
3204.000000	19.022929
3203.000000	18.754347
3202.000000	18.524995
3201.000000	18.343043
3200.000000	18.214576
3199.000000	18.139762
3198.000000	18.117730
3197.000000	18.150612
3196.000000	18.239593
3195.000000	18.379336
3194.000000	18.564351
3193.000000	18.793239
3192.000000	19.063010
3191.000000	19.366739
3190.000000	19.698070
3189.000000	20.055880
3188.000000	20.438975
3187.000000	20.840905
3186.000000	21.255703
3185.000000	21.681864
3184.000000	22.118005
3183.000000	22.559081
3182.000000	23.001050
3181.000000	23.444994
3180.000000	23.891747
3179.000000	24.337729
3178.000000	24.779492
3177.000000	25.217566
3176.000000	25.652034
3175.000000	26.078976
3174.000000	26.495221
3173.000000	26.902222
3172.000000	27.302204
3171.000000	27.694661
3170.000000	28.080279
3169.000000	28.463226
3168.000000	28.845608
3167.000000	29.224163
3166.000000	29.594864
3165.000000	29.956631
3164.000000	30.307329
3163.000000	30.640816
3162.000000	30.952313
3161.000000	31.241478
3160.000000	31.507991
3159.000000	31.748717
3158.000000	31.961856
3157.000000	32.150807
3156.000000	32.319643
3155.000000	32.470139
3154.000000	32.606383
3153.000000	32.736717
3152.000000	32.868031
3151.000000	33.000971
3150.000000	33.134320
3149.000000	33.269788
3148.000000	33.408742
3147.000000	33.549040
3146.000000	33.688542
3145.000000	33.827947
3144.000000	33.966948
3143.000000	34.101442
3142.000000	34.228011
3141.000000	34.347250
3140.000000	34.459586
3139.000000	34.562025
3138.000000	34.651631
3137.000000	34.728634
3136.000000	34.792540
3135.000000	34.838729
3134.000000	34.862455
3133.000000	34.860835
3132.000000	34.829034
3131.000000	34.758067
3130.000000	34.639374
3129.000000	34.469868
3128.000000	34.248433
3127.000000	33.974500
3126.000000	33.652841
3125.000000	33.295295
3124.000000	32.916134
3123.000000	32.527380
3122.000000	32.141734
3121.000000	31.773475
3120.000000	31.431814
3119.000000	31.117149
3118.000000	30.826731
3117.000000	30.559719
3116.000000	30.313586
3115.000000	30.081395
3114.000000	29.856148
3113.000000	29.634542
3112.000000	29.413560
3111.000000	29.188896
3110.000000	28.960840
3109.000000	28.736403
3108.000000	28.522571
3107.000000	28.322101
3106.000000	28.138335
3105.000000	27.979613
3104.000000	27.853995
3103.000000	27.765546
3102.000000	27.719659
3101.000000	27.725334
3100.000000	27.790373
3099.000000	27.916148
3098.000000	28.101904
3097.000000	28.349386
3096.000000	28.657419
3095.000000	29.020089
3094.000000	29.431126
3093.000000	29.887409
3092.000000	30.385507
3091.000000	30.917315
3090.000000	31.474262
3089.000000	32.049169
3088.000000	32.632922
3087.000000	33.215208
3086.000000	33.790760
3085.000000	34.361577
3084.000000	34.929598
3083.000000	35.492213
3082.000000	36.047276
3081.000000	36.597225
3080.000000	37.145351
3079.000000	37.692111
3078.000000	38.237637
3077.000000	38.782886
3076.000000	39.325890
3075.000000	39.860929
3074.000000	40.384165
3073.000000	40.896385
3072.000000	41.397983
3071.000000	41.886206
3070.000000	42.359423
3069.000000	42.820037
3068.000000	43.270795
3067.000000	43.711091
3066.000000	44.139584
3065.000000	44.556411
3064.000000	44.960901
3063.000000	45.351143
3062.000000	45.727109
3061.000000	46.091571
3060.000000	46.445912
3059.000000	46.788599
3058.000000	47.119748
3057.000000	47.442788
3056.000000	47.760325
3055.000000	48.071525
3054.000000	48.375465
3053.000000	48.673998
3052.000000	48.968880
3051.000000	49.259502
3050.000000	49.544805
3049.000000	49.824407
3048.000000	50.096960
3047.000000	50.360429
3046.000000	50.615785
3045.000000	50.867148
3044.000000	51.116998
3043.000000	51.364763
3042.000000	51.610741
3041.000000	51.857403
3040.000000	52.104898
3039.000000	52.349016
3038.000000	52.586152
3037.000000	52.817225
3036.000000	53.045416
3035.000000	53.273164
3034.000000	53.502685
3033.000000	53.735932
3032.000000	53.971773
3031.000000	54.206207
3030.000000	54.436935
3029.000000	54.664662
3028.000000	54.889150
3027.000000	55.107938
3026.000000	55.320583
3025.000000	55.530277
3024.000000	55.738689
3023.000000	55.942648
3022.000000	56.137769
3021.000000	56.321763
3020.000000	56.492257
3019.000000	56.643721
3018.000000	56.769718
3017.000000	56.866022
3016.000000	56.930399
3015.000000	56.963499
3014.000000	56.972685
3013.000000	56.974183
3012.000000	56.988556
3011.000000	57.034732
3010.000000	57.127082
3009.000000	57.272709
3008.000000	57.467329
3007.000000	57.694726
3006.000000	57.931518
3005.000000	58.150978
3004.000000	58.321448
3003.000000	58.405764
3002.000000	58.369212
3001.000000	58.192191
3000.000000	57.881808
2999.000000	57.476006
2998.000000	57.039749
2997.000000	56.651744
2996.000000	56.386239
2995.000000	56.297994
2994.000000	56.411079
2993.000000	56.712540
2992.000000	57.152377
2991.000000	57.660630
2990.000000	58.172461
2989.000000	58.644618
2988.000000	59.055702
2987.000000	59.398417
2986.000000	59.673726
2985.000000	59.884930
2984.000000	60.033534
2983.000000	60.120550
2982.000000	60.154470
2981.000000	60.153470
2980.000000	60.137304
2979.000000	60.115990
2978.000000	60.086229
2977.000000	60.037782
2976.000000	59.962452
2975.000000	59.862939
2974.000000	59.756016
2973.000000	59.666674
2972.000000	59.616399
2971.000000	59.613612
2970.000000	59.650031
2969.000000	59.699270
2968.000000	59.717651
2967.000000	59.655092
2966.000000	59.475162
2965.000000	59.169882
2964.000000	58.758702
2963.000000	58.275498
2962.000000	57.758874
2961.000000	57.250716
2960.000000	56.801822
2959.000000	56.471864
2958.000000	56.316101
2957.000000	56.359395
2956.000000	56.578699
2955.000000	56.914982
2954.000000	57.303279
2953.000000	57.694334
2952.000000	58.053207
2951.000000	58.354175
2950.000000	58.583135
2949.000000	58.742841
2948.000000	58.849477
2947.000000	58.920151
2946.000000	58.957357
2945.000000	58.932247
2944.000000	58.783060
2943.000000	58.444909
2942.000000	57.907554
2941.000000	57.259127
2940.000000	56.676635
2939.000000	56.358765
2938.000000	56.436801
2937.000000	56.918913
2936.000000	57.695912
2935.000000	58.604278
2934.000000	59.499664
2933.000000	60.297364
2932.000000	60.969389
2931.000000	61.523730
2930.000000	61.985724
2929.000000	62.382608
2928.000000	62.734343
2927.000000	63.051471
2926.000000	63.340986
2925.000000	63.608859
2924.000000	63.857472
2923.000000	64.084948
2922.000000	64.289746
2921.000000	64.473028
2920.000000	64.635580
2919.000000	64.776863
2918.000000	64.897665
2917.000000	65.001002
2916.000000	65.089183
2915.000000	65.162743
2914.000000	65.223266
2913.000000	65.273846
2912.000000	65.315903
2911.000000	65.348220
2910.000000	65.369472
2909.000000	65.378679
2908.000000	65.372276
2907.000000	65.342850
2906.000000	65.281608
2905.000000	65.178279
2904.000000	65.018358
2903.000000	64.784837
2902.000000	64.467698
2901.000000	64.071112
2900.000000	63.615721
2899.000000	63.139444
2898.000000	62.694770
2897.000000	62.339568
2896.000000	62.119045
2895.000000	62.052301
2894.000000	62.132254
2893.000000	62.332276
2892.000000	62.614685
2891.000000	62.939854
2890.000000	63.276273
2889.000000	63.603806
2888.000000	63.910392
2887.000000	64.188725
2886.000000	64.435909
2885.000000	64.652889
2884.000000	64.840624
2883.000000	64.999427
2882.000000	65.131793
2881.000000	65.243166
2880.000000	65.338814
2879.000000	65.421985
2878.000000	65.495522
2877.000000	65.562421
2876.000000	65.624179
2875.000000	65.680994
2874.000000	65.734783
2873.000000	65.789213
2872.000000	65.846542
2871.000000	65.907932
2870.000000	65.977709
2869.000000	66.064080
2868.000000	66.173509
2867.000000	66.306117
2866.000000	66.456963
2865.000000	66.618513
2864.000000	66.780946
2863.000000	66.934275
2862.000000	67.073002
2861.000000	67.197472
2860.000000	67.310309
2859.000000	67.413798
2858.000000	67.511359
2857.000000	67.608100
2856.000000	67.707830
2855.000000	67.811438
2854.000000	67.918829
2853.000000	68.029446
2852.000000	68.139552
2851.000000	68.241823
2850.000000	68.329857
2849.000000	68.401973
2848.000000	68.460377
2847.000000	68.509086
2846.000000	68.553545
2845.000000	68.599451
2844.000000	68.649918
2843.000000	68.704754
2842.000000	68.763147
2841.000000	68.825703
2840.000000	68.893393
2839.000000	68.966513
2838.000000	69.045236
2837.000000	69.129356
2836.000000	69.217144
2835.000000	69.306296
2834.000000	69.396316
2833.000000	69.488259
2832.000000	69.582079
2831.000000	69.676273
2830.000000	69.770212
2829.000000	69.864465
2828.000000	69.958506
2827.000000	70.050467
2826.000000	70.139505
2825.000000	70.226175
2824.000000	70.310158
2823.000000	70.389926
2822.000000	70.465289
2821.000000	70.538036
2820.000000	70.609446
2819.000000	70.679269
2818.000000	70.747513
2817.000000	70.814878
2816.000000	70.880662
2815.000000	70.942315
2814.000000	70.997955
2813.000000	71.047712
2812.000000	71.092406
2811.000000	71.133131
2810.000000	71.172470
2809.000000	71.213714
2808.000000	71.257991
2807.000000	71.303987
2806.000000	71.350814
2805.000000	71.398898
2804.000000	71.447476
2803.000000	71.493748
2802.000000	71.535675
2801.000000	71.573845
2800.000000	71.609978
2799.000000	71.645498
2798.000000	71.682126
2797.000000	71.721658
2796.000000	71.764072
2795.000000	71.807460
2794.000000	71.850348
2793.000000	71.892375
2792.000000	71.932506
2791.000000	71.968975
2790.000000	72.001715
2789.000000	72.032732
2788.000000	72.063231
2787.000000	72.092344
2786.000000	72.119453
2785.000000	72.145806
2784.000000	72.173016
2783.000000	72.201996
2782.000000	72.234186
2781.000000	72.271723
2780.000000	72.315181
2779.000000	72.362629
2778.000000	72.411777
2777.000000	72.461666
2776.000000	72.511642
2775.000000	72.560410
2774.000000	72.607052
2773.000000	72.651651
2772.000000	72.694315
2771.000000	72.734978
2770.000000	72.774545
2769.000000	72.814703
2768.000000	72.856072
2767.000000	72.897741
2766.000000	72.938720
2765.000000	72.978134
2764.000000	73.013847
2763.000000	73.043060
2762.000000	73.065074
2761.000000	73.082244
2760.000000	73.097938
2759.000000	73.114874
2758.000000	73.135337
2757.000000	73.160710
2756.000000	73.189927
2755.000000	73.219894
2754.000000	73.247987
2753.000000	73.273173
2752.000000	73.295100
2751.000000	73.314106
2750.000000	73.332292
2749.000000	73.352501
2748.000000	73.375553
2747.000000	73.399851
2746.000000	73.423728
2745.000000	73.446502
2744.000000	73.467370
2743.000000	73.485486
2742.000000	73.501334
2741.000000	73.515915
2740.000000	73.528279
2739.000000	73.536012
2738.000000	73.539039
2737.000000	73.541655
2736.000000	73.550545
2735.000000	73.572236
2734.000000	73.611821
2733.000000	73.670704
2732.000000	73.744525
2731.000000	73.825154
2730.000000	73.905574
2729.000000	73.982112
2728.000000	74.052552
2727.000000	74.114839
2726.000000	74.168431
2725.000000	74.214559
2724.000000	74.254063
2723.000000	74.286667
2722.000000	74.312732
2721.000000	74.333796
2720.000000	74.351171
2719.000000	74.365663
2718.000000	74.379279
2717.000000	74.395341
2716.000000	74.415886
2715.000000	74.440445
2714.000000	74.467669
2713.000000	74.496478
2712.000000	74.525353
2711.000000	74.552514
2710.000000	74.577623
2709.000000	74.602040
2708.000000	74.627054
2707.000000	74.653166
2706.000000	74.680909
2705.000000	74.710346
2704.000000	74.739267
2703.000000	74.763696
2702.000000	74.780693
2701.000000	74.789193
2700.000000	74.788599
2699.000000	74.778769
2698.000000	74.761887
2697.000000	74.742574
2696.000000	74.725275
2695.000000	74.712878
2694.000000	74.707433
2693.000000	74.709585
2692.000000	74.716753
2691.000000	74.724124
2690.000000	74.728455
2689.000000	74.729730
2688.000000	74.729230
2687.000000	74.728058
2686.000000	74.727934
2685.000000	74.731081
2684.000000	74.738434
2683.000000	74.749734
2682.000000	74.765627
2681.000000	74.787912
2680.000000	74.817072
2679.000000	74.851275
2678.000000	74.888323
2677.000000	74.926537
2676.000000	74.963562
2675.000000	74.996376
2674.000000	75.023152
2673.000000	75.043676
2672.000000	75.057872
2671.000000	75.065920
2670.000000	75.070193
2669.000000	75.075184
2668.000000	75.084849
2667.000000	75.101503
2666.000000	75.127036
2665.000000	75.162494
2664.000000	75.205606
2663.000000	75.250858
2662.000000	75.292801
2661.000000	75.327856
2660.000000	75.353232
2659.000000	75.366926
2658.000000	75.369912
2657.000000	75.366564
2656.000000	75.361797
2655.000000	75.358987
2654.000000	75.360829
2653.000000	75.369723
2652.000000	75.386275
2651.000000	75.409141
2650.000000	75.437105
2649.000000	75.469786
2648.000000	75.506139
2647.000000	75.544110
2646.000000	75.582461
2645.000000	75.621447
2644.000000	75.661025
2643.000000	75.700385
2642.000000	75.739709
2641.000000	75.780466
2640.000000	75.823186
2639.000000	75.866381
2638.000000	75.908204
2637.000000	75.947619
2636.000000	75.983545
2635.000000	76.014601
2634.000000	76.040553
2633.000000	76.062553
2632.000000	76.081476
2631.000000	76.097561
2630.000000	76.111738
2629.000000	76.125699
2628.000000	76.139932
2627.000000	76.153130
2626.000000	76.164177
2625.000000	76.173058
2624.000000	76.179716
2623.000000	76.183707
2622.000000	76.185493
2621.000000	76.186618
2620.000000	76.187838
2619.000000	76.188512
2618.000000	76.187950
2617.000000	76.185706
2616.000000	76.180322
2615.000000	76.169304
2614.000000	76.151122
2613.000000	76.126021
2612.000000	76.094820
2611.000000	76.058914
2610.000000	76.021666
2609.000000	75.988067
2608.000000	75.962361
2607.000000	75.947208
2606.000000	75.944678
2605.000000	75.956140
2604.000000	75.980475
2603.000000	76.014110
2602.000000	76.053677
2601.000000	76.096632
2600.000000	76.139857
2599.000000	76.179916
2598.000000	76.215248
2597.000000	76.246803
2596.000000	76.275973
2595.000000	76.303681
2594.000000	76.331578
2593.000000	76.361939
2592.000000	76.395509
2591.000000	76.430922
2590.000000	76.466392
2589.000000	76.500284
2588.000000	76.530060
2587.000000	76.552819
2586.000000	76.567882
2585.000000	76.577496
2584.000000	76.584820
2583.000000	76.592913
2582.000000	76.605650
2581.000000	76.627119
2580.000000	76.659102
2579.000000	76.700501
2578.000000	76.749407
2577.000000	76.804363
2576.000000	76.863219
2575.000000	76.922860
2574.000000	76.980983
2573.000000	77.036608
2572.000000	77.088952
2571.000000	77.137375
2570.000000	77.182689
2569.000000	77.226728
2568.000000	77.270155
2567.000000	77.312103
2566.000000	77.352204
2565.000000	77.391317
2564.000000	77.429825
2563.000000	77.467090
2562.000000	77.502875
2561.000000	77.537747
2560.000000	77.571742
2559.000000	77.604124
2558.000000	77.634897
2557.000000	77.664948
2556.000000	77.694539
2555.000000	77.723347
2554.000000	77.752178
2553.000000	77.782882
2552.000000	77.816088
2551.000000	77.850540
2550.000000	77.884963
2549.000000	77.918898
2548.000000	77.951511
2547.000000	77.981390
2546.000000	78.008088
2545.000000	78.032416
2544.000000	78.054741
2543.000000	78.074582
2542.000000	78.092100
2541.000000	78.108197
2540.000000	78.122861
2539.000000	78.134706
2538.000000	78.142680
2537.000000	78.146648
2536.000000	78.145823
2535.000000	78.138680
2534.000000	78.124706
2533.000000	78.105093
2532.000000	78.081381
2531.000000	78.054663
2530.000000	78.026660
2529.000000	77.999547
2528.000000	77.974278
2527.000000	77.950496
2526.000000	77.928236
2525.000000	77.908235
2524.000000	77.890143
2523.000000	77.872096
2522.000000	77.852466
2521.000000	77.830372
2520.000000	77.804391
2519.000000	77.772594
2518.000000	77.734500
2517.000000	77.691491
2516.000000	77.644662
2515.000000	77.594182
2514.000000	77.541123
2513.000000	77.488343
2512.000000	77.439058
2511.000000	77.396092
2510.000000	77.362614
2509.000000	77.341696
2508.000000	77.334450
2507.000000	77.339573
2506.000000	77.355544
2505.000000	77.381053
2504.000000	77.413402
2503.000000	77.448800
2502.000000	77.484422
2501.000000	77.519315
2500.000000	77.552826
2499.000000	77.583952
2498.000000	77.612581
2497.000000	77.639281
2496.000000	77.663533
2495.000000	77.683917
2494.000000	77.700301
2493.000000	77.713915
2492.000000	77.725173
2491.000000	77.733274
2490.000000	77.738543
2489.000000	77.743337
2488.000000	77.749888
2487.000000	77.758993
2486.000000	77.771138
2485.000000	77.786992
2484.000000	77.806061
2483.000000	77.826458
2482.000000	77.846647
2481.000000	77.866177
2480.000000	77.884655
2479.000000	77.901678
2478.000000	77.918234
2477.000000	77.936377
2476.000000	77.957221
2475.000000	77.980758
2474.000000	78.007655
2473.000000	78.039590
2472.000000	78.077275
2471.000000	78.119943
2470.000000	78.166941
2469.000000	78.217758
2468.000000	78.270365
2467.000000	78.321359
2466.000000	78.368388
2465.000000	78.410946
2464.000000	78.448654
2463.000000	78.480675
2462.000000	78.507373
2461.000000	78.530830
2460.000000	78.553062
2459.000000	78.575283
2458.000000	78.598729
2457.000000	78.624246
2456.000000	78.650506
2455.000000	78.674289
2454.000000	78.693376
2453.000000	78.707635
2452.000000	78.717325
2451.000000	78.722467
2450.000000	78.724598
2449.000000	78.727492
2448.000000	78.735251
2447.000000	78.750773
2446.000000	78.776013
2445.000000	78.811816
2444.000000	78.856403
2443.000000	78.905579
2442.000000	78.954987
2441.000000	79.001148
2440.000000	79.040742
2439.000000	79.071059
2438.000000	79.092081
2437.000000	79.106640
2436.000000	79.118082
2435.000000	79.128661
2434.000000	79.140156
2433.000000	79.153772
2432.000000	79.168441
2431.000000	79.181017
2430.000000	79.188499
2429.000000	79.189252
2428.000000	79.181970
2427.000000	79.165166
2426.000000	79.138720
2425.000000	79.104241
2424.000000	79.063878
2423.000000	79.020175
2422.000000	78.977287
2421.000000	78.940588
2420.000000	78.913998
2419.000000	78.898762
2418.000000	78.894689
2417.000000	78.900773
2416.000000	78.913910
2415.000000	78.929053
2414.000000	78.941362
2413.000000	78.947097
2412.000000	78.942612
2411.000000	78.924818
2410.000000	78.893560
2409.000000	78.852121
2408.000000	78.804976
2407.000000	78.755963
2406.000000	78.708758
2405.000000	78.666377
2404.000000	78.629126
2403.000000	78.594728
2402.000000	78.561156
2401.000000	78.528193
2400.000000	78.496065
2399.000000	78.464664
2398.000000	78.434709
2397.000000	78.407861
2396.000000	78.384598
2395.000000	78.363416
2394.000000	78.342353
2393.000000	78.319687
2392.000000	78.292817
2391.000000	78.259178
2390.000000	78.219667
2389.000000	78.179358
2388.000000	78.145158
2387.000000	78.123560
2386.000000	78.121586
2385.000000	78.146719
2384.000000	78.202599
2383.000000	78.286718
2382.000000	78.391367
2381.000000	78.505944
2380.000000	78.617658
2379.000000	78.711884
2378.000000	78.777663
2377.000000	78.811280
2376.000000	78.815251
2375.000000	78.795904
2374.000000	78.762670
2373.000000	78.727516
2372.000000	78.700363
2371.000000	78.684214
2370.000000	78.678212
2369.000000	78.685856
2368.000000	78.711118
2367.000000	78.749928
2366.000000	78.797643
2365.000000	78.860564
2364.000000	78.940683
2363.000000	79.030948
2362.000000	79.127508
2361.000000	79.218461
2360.000000	79.295492
2359.000000	79.348851
2358.000000	79.369534
2357.000000	79.363464
2356.000000	79.330628
2355.000000	79.279698
2354.000000	79.228043
2353.000000	79.215403
2352.000000	79.273172
2351.000000	79.363417
2350.000000	79.432140
2349.000000	79.448974
2348.000000	79.443563
2347.000000	79.456128
2346.000000	79.480035
2345.000000	79.500178
2344.000000	79.498844
2343.000000	79.494564
2342.000000	79.502158
2341.000000	79.519527
2340.000000	79.538334
2339.000000	79.546577
2338.000000	79.542548
2337.000000	79.533436
2336.000000	79.529079
2335.000000	79.537201
2334.000000	79.552238
2333.000000	79.557573
2332.000000	79.540599
2331.000000	79.483500
2330.000000	79.406295
2329.000000	79.326065
2328.000000	79.263021
2327.000000	79.224323
2326.000000	79.200230
2325.000000	79.189383
2324.000000	79.169965
2323.000000	79.134934
2322.000000	79.076185
2321.000000	79.000851
2320.000000	78.921025
2319.000000	78.848217
2318.000000	78.797219
2317.000000	78.769717
2316.000000	78.760400
2315.000000	78.750059
2314.000000	78.724825
2313.000000	78.673686
2312.000000	78.595707
2311.000000	78.493678
2310.000000	78.375329
2309.000000	78.249391
2308.000000	78.121793
2307.000000	77.998852
2306.000000	77.885810
2305.000000	77.788306
2304.000000	77.705294
2303.000000	77.630655
2302.000000	77.557248
2301.000000	77.478360
2300.000000	77.389712
2299.000000	77.288706
2298.000000	77.179119
2297.000000	77.067819
2296.000000	76.963175
2295.000000	76.873285
2294.000000	76.806039
2293.000000	76.767842
2292.000000	76.758452
2291.000000	76.773527
2290.000000	76.806494
2289.000000	76.852042
2288.000000	76.904210
2287.000000	76.959649
2286.000000	77.018873
2285.000000	77.085700
2284.000000	77.161947
2283.000000	77.247296
2282.000000	77.340673
2281.000000	77.440305
2280.000000	77.541452
2279.000000	77.637558
2278.000000	77.724533
2277.000000	77.801540
2276.000000	77.870215
2275.000000	77.932916
2274.000000	77.993782
2273.000000	78.056921
2272.000000	78.124315
2271.000000	78.196535
2270.000000	78.274895
2269.000000	78.361419
2268.000000	78.456679
2267.000000	78.559773
2266.000000	78.670568
2265.000000	78.788959
2264.000000	78.912890
2263.000000	79.038598
2262.000000	79.161914
2261.000000	79.279267
2260.000000	79.386294
2259.000000	79.480394
2258.000000	79.562885
2257.000000	79.638156
2256.000000	79.710607
2255.000000	79.783200
2254.000000	79.859016
2253.000000	79.939820
2252.000000	80.024411
2251.000000	80.108634
2250.000000	80.188560
2249.000000	80.261224
2248.000000	80.324385
2247.000000	80.377677
2246.000000	80.423673
2245.000000	80.466955
2244.000000	80.510945
2243.000000	80.557276
2242.000000	80.606607
2241.000000	80.658094
2240.000000	80.707497
2239.000000	80.748346
2238.000000	80.775551
2237.000000	80.787442
2236.000000	80.785415
2235.000000	80.773591
2234.000000	80.758793
2233.000000	80.748387
2232.000000	80.747052
2231.000000	80.756043
2230.000000	80.774579
2229.000000	80.800108
2228.000000	80.827816
2227.000000	80.852347
2226.000000	80.870749
2225.000000	80.882791
2224.000000	80.889150
2223.000000	80.891067
2222.000000	80.891245
2221.000000	80.892739
2220.000000	80.896592
2219.000000	80.902051
2218.000000	80.908900
2217.000000	80.917985
2216.000000	80.929761
2215.000000	80.944305
2214.000000	80.962710
2213.000000	80.986487
2212.000000	81.015454
2211.000000	81.047670
2210.000000	81.081267
2209.000000	81.114572
2208.000000	81.144856
2207.000000	81.169205
2206.000000	81.186941
2205.000000	81.199687
2204.000000	81.208946
2203.000000	81.215193
2202.000000	81.219076
2201.000000	81.221565
2200.000000	81.222659
2199.000000	81.221573
2198.000000	81.218434
2197.000000	81.214481
2196.000000	81.210925
2195.000000	81.209268
2194.000000	81.212745
2193.000000	81.225442
2192.000000	81.249439
2191.000000	81.283798
2190.000000	81.325810
2189.000000	81.371668
2188.000000	81.416385
2187.000000	81.455442
2186.000000	81.487190
2185.000000	81.512845
2184.000000	81.534616
2183.000000	81.555099
2182.000000	81.577722
2181.000000	81.605373
2180.000000	81.638146
2179.000000	81.673532
2178.000000	81.708467
2177.000000	81.739906
2176.000000	81.764247
2175.000000	81.778669
2174.000000	81.783412
2173.000000	81.781489
2172.000000	81.776308
2171.000000	81.770811
2170.000000	81.768099
2169.000000	81.770480
2168.000000	81.777514
2167.000000	81.786518
2166.000000	81.795176
2165.000000	81.802379
2164.000000	81.807134
2163.000000	81.808784
2162.000000	81.808463
2161.000000	81.808707
2160.000000	81.811493
2159.000000	81.817831
2158.000000	81.828742
2157.000000	81.844675
2156.000000	81.864092
2155.000000	81.884354
2154.000000	81.904042
2153.000000	81.923048
2152.000000	81.940927
2151.000000	81.956978
2150.000000	81.971636
2149.000000	81.985797
2148.000000	81.998681
2147.000000	82.008157
2146.000000	82.013115
2145.000000	82.014021
2144.000000	82.011595
2143.000000	82.006845
2142.000000	82.002169
2141.000000	82.000593
2140.000000	82.003479
2139.000000	82.010061
2138.000000	82.018821
2137.000000	82.027750
2136.000000	82.033835
2135.000000	82.034385
2134.000000	82.029242
2133.000000	82.020424
2132.000000	82.009992
2131.000000	81.999623
2130.000000	81.991594
2129.000000	81.987843
2128.000000	81.987678
2127.000000	81.988016
2126.000000	81.986039
2125.000000	81.980511
2124.000000	81.971201
2123.000000	81.959314
2122.000000	81.948569
2121.000000	81.944031
2120.000000	81.949468
2119.000000	81.966332
2118.000000	81.994187
2117.000000	82.030131
2116.000000	82.068262
2115.000000	82.101907
2114.000000	82.126983
2113.000000	82.142515
2112.000000	82.149049
2111.000000	82.148413
2110.000000	82.144300
2109.000000	82.140823
2108.000000	82.140095
2107.000000	82.142239
2106.000000	82.147198
2105.000000	82.154875
2104.000000	82.163916
2103.000000	82.172320
2102.000000	82.179139
2101.000000	82.183989
2100.000000	82.185446
2099.000000	82.181489
2098.000000	82.171439
2097.000000	82.155784
2096.000000	82.134524
2095.000000	82.107974
2094.000000	82.078789
2093.000000	82.051373
2092.000000	82.029686
2091.000000	82.017068
2090.000000	82.017320
2089.000000	82.033337
2088.000000	82.064341
2087.000000	82.106145
2086.000000	82.153439
2085.000000	82.200333
2084.000000	82.240613
2083.000000	82.270252
2082.000000	82.289518
2081.000000	82.301168
2080.000000	82.307185
2079.000000	82.308564
2078.000000	82.306942
2077.000000	82.303295
2076.000000	82.295466
2075.000000	82.279808
2074.000000	82.254404
2073.000000	82.219370
2072.000000	82.175194
2071.000000	82.123112
2070.000000	82.067257
2069.000000	82.013053
2068.000000	81.962693
2067.000000	81.914000
2066.000000	81.863594
2065.000000	81.809261
2064.000000	81.749311
2063.000000	81.682480
2062.000000	81.609336
2061.000000	81.532072
2060.000000	81.453040
2059.000000	81.375047
2058.000000	81.302305
2057.000000	81.238375
2056.000000	81.183065
2055.000000	81.133372
2054.000000	81.086977
2053.000000	81.042947
2052.000000	81.000104
2051.000000	80.957603
2050.000000	80.917337
2049.000000	80.883449
2048.000000	80.858495
2047.000000	80.842159
2046.000000	80.834202
2045.000000	80.834958
2044.000000	80.842349
2043.000000	80.851798
2042.000000	80.860403
2041.000000	80.869151
2040.000000	80.880331
2039.000000	80.895889
2038.000000	80.918656
2037.000000	80.951597
2036.000000	80.994918
2035.000000	81.045976
2034.000000	81.102473
2033.000000	81.163234
2032.000000	81.226042
2031.000000	81.288201
2030.000000	81.349211
2029.000000	81.410561
2028.000000	81.472477
2027.000000	81.533422
2026.000000	81.592487
2025.000000	81.649666
2024.000000	81.703790
2023.000000	81.752535
2022.000000	81.796227
2021.000000	81.838721
2020.000000	81.883328
2019.000000	81.930582
2018.000000	81.980989
2017.000000	82.036819
2016.000000	82.099434
2015.000000	82.167141
2014.000000	82.236633
2013.000000	82.304571
2012.000000	82.367459
2011.000000	82.423116
2010.000000	82.473374
2009.000000	82.523108
2008.000000	82.575982
2007.000000	82.633492
2006.000000	82.697022
2005.000000	82.767347
2004.000000	82.841873
2003.000000	82.914414
2002.000000	82.979746
2001.000000	83.035196
2000.000000	83.079778
1999.000000	83.114829
1998.000000	83.143956
1997.000000	83.172695
1996.000000	83.206435
1995.000000	83.246995
1994.000000	83.291380
1993.000000	83.334723
1992.000000	83.374668
1991.000000	83.412805
1990.000000	83.451608
1989.000000	83.491662
1988.000000	83.532520
1987.000000	83.574461
1986.000000	83.618808
1985.000000	83.666567
1984.000000	83.717277
1983.000000	83.769380
1982.000000	83.821668
1981.000000	83.873417
1980.000000	83.925048
1979.000000	83.978218
1978.000000	84.033483
1977.000000	84.090199
1976.000000	84.148178
1975.000000	84.207288
1974.000000	84.265187
1973.000000	84.318078
1972.000000	84.364343
1971.000000	84.405055
1970.000000	84.440412
1969.000000	84.468758
1968.000000	84.489637
1967.000000	84.505793
1966.000000	84.521166
1965.000000	84.537198
1964.000000	84.551816
1963.000000	84.560355
1962.000000	84.557143
1961.000000	84.539238
1960.000000	84.509552
1959.000000	84.475091
1958.000000	84.442495
1957.000000	84.416651
1956.000000	84.402105
1955.000000	84.402488
1954.000000	84.417228
1953.000000	84.442012
1952.000000	84.471902
1951.000000	84.502942
1950.000000	84.532705
1949.000000	84.558734
1948.000000	84.579520
1947.000000	84.597353
1946.000000	84.616397
1945.000000	84.637431
1944.000000	84.656290
1943.000000	84.669147
1942.000000	84.678110
1941.000000	84.688369
1940.000000	84.701886
1939.000000	84.716630
1938.000000	84.728891
1937.000000	84.735675
1936.000000	84.736538
1935.000000	84.732451
1934.000000	84.723348
1933.000000	84.709081
1932.000000	84.690035
1931.000000	84.668312
1930.000000	84.648968
1929.000000	84.634642
1928.000000	84.625911
1927.000000	84.624741
1926.000000	84.634191
1925.000000	84.652376
1924.000000	84.668321
1923.000000	84.674349
1922.000000	84.675613
1921.000000	84.679125
1920.000000	84.682456
1919.000000	84.679288
1918.000000	84.671506
1917.000000	84.667897
1916.000000	84.669923
1915.000000	84.672860
1914.000000	84.675462
1913.000000	84.678402
1912.000000	84.678248
1911.000000	84.670496
1910.000000	84.656784
1909.000000	84.641319
1908.000000	84.626693
1907.000000	84.615041
1906.000000	84.611772
1905.000000	84.621551
1904.000000	84.640428
1903.000000	84.664654
1902.000000	84.698198
1901.000000	84.743207
1900.000000	84.794399
1899.000000	84.846603
1898.000000	84.900696
1897.000000	84.956803
1896.000000	85.006135
1895.000000	85.042076
1894.000000	85.071949
1893.000000	85.106436
1892.000000	85.145022
1891.000000	85.180412
1890.000000	85.211164
1889.000000	85.242836
1888.000000	85.277453
1887.000000	85.312026
1886.000000	85.345650
1885.000000	85.377227
1884.000000	85.401888
1883.000000	85.418695
1882.000000	85.435188
1881.000000	85.456886
1880.000000	85.481902
1879.000000	85.508092
1878.000000	85.538241
1877.000000	85.575280
1876.000000	85.613980
1875.000000	85.645799
1874.000000	85.670668
1873.000000	85.694147
1872.000000	85.716523
1871.000000	85.733442
1870.000000	85.744210
1869.000000	85.754753
1868.000000	85.770706
1867.000000	85.793441
1866.000000	85.825514
1865.000000	85.867835
1864.000000	85.913564
1863.000000	85.954997
1862.000000	85.992986
1861.000000	86.031777
1860.000000	86.068802
1859.000000	86.099627
1858.000000	86.127582
1857.000000	86.157644
1856.000000	86.186354
1855.000000	86.207943
1854.000000	86.225379
1853.000000	86.243922
1852.000000	86.265989
1851.000000	86.294492
1850.000000	86.331243
1849.000000	86.375116
1848.000000	86.421045
1847.000000	86.465490
1846.000000	86.506086
1845.000000	86.535874
1844.000000	86.550765
1843.000000	86.558403
1842.000000	86.567332
1841.000000	86.580542
1840.000000	86.601041
1839.000000	86.629806
1838.000000	86.665892
1837.000000	86.706377
1836.000000	86.744665
1835.000000	86.777298
1834.000000	86.806290
1833.000000	86.833321
1832.000000	86.858359
1831.000000	86.876490
1830.000000	86.884987
1829.000000	86.896455
1828.000000	86.923519
1827.000000	86.963120
1826.000000	87.004420
1825.000000	87.042746
1824.000000	87.080874
1823.000000	87.118536
1822.000000	87.152625
1821.000000	87.184674
1820.000000	87.217452
1819.000000	87.246815
1818.000000	87.269282
1817.000000	87.289893
1816.000000	87.311237
1815.000000	87.328676
1814.000000	87.337944
1813.000000	87.342331
1812.000000	87.345749
1811.000000	87.344886
1810.000000	87.343530
1809.000000	87.352169
1808.000000	87.367955
1807.000000	87.378040
1806.000000	87.379205
1805.000000	87.377424
1804.000000	87.370874
1803.000000	87.351787
1802.000000	87.321757
1801.000000	87.298441
1800.000000	87.297425
1799.000000	87.315246
1798.000000	87.344518
1797.000000	87.380824
1796.000000	87.415739
1795.000000	87.441186
1794.000000	87.453483
1793.000000	87.453092
1792.000000	87.443693
1791.000000	87.429867
1790.000000	87.420948
1789.000000	87.426967
1788.000000	87.447915
1787.000000	87.473599
1786.000000	87.497486
1785.000000	87.521726
1784.000000	87.545969
1783.000000	87.565423
1782.000000	87.572991
1781.000000	87.567082
1780.000000	87.557810
1779.000000	87.555661
1778.000000	87.564863
1777.000000	87.582132
1776.000000	87.605892
1775.000000	87.639944
1774.000000	87.680474
1773.000000	87.717535
1772.000000	87.755331
1771.000000	87.797716
1770.000000	87.833792
1769.000000	87.862817
1768.000000	87.895592
1767.000000	87.933959
1766.000000	87.968526
1765.000000	87.994543
1764.000000	88.015728
1763.000000	88.028928
1762.000000	88.025818
1761.000000	88.017905
1760.000000	88.023812
1759.000000	88.043181
1758.000000	88.064362
1757.000000	88.076035
1756.000000	88.086578
1755.000000	88.103061
1754.000000	88.112296
1753.000000	88.105427
1752.000000	88.094971
1751.000000	88.100895
1750.000000	88.124725
1749.000000	88.151472
1748.000000	88.179049
1747.000000	88.220182
1746.000000	88.268740
1745.000000	88.307628
1744.000000	88.334673
1743.000000	88.355675
1742.000000	88.371196
1741.000000	88.379721
1740.000000	88.384631
1739.000000	88.393214
1738.000000	88.405548
1737.000000	88.419153
1736.000000	88.434946
1735.000000	88.443678
1734.000000	88.449247
1733.000000	88.471754
1732.000000	88.495586
1731.000000	88.499563
1730.000000	88.491938
1729.000000	88.479932
1728.000000	88.471355
1727.000000	88.470291
1726.000000	88.471465
1725.000000	88.469015
1724.000000	88.463921
1723.000000	88.461166
1722.000000	88.469917
1721.000000	88.493321
1720.000000	88.525484
1719.000000	88.546150
1718.000000	88.545220
1717.000000	88.551243
1716.000000	88.568628
1715.000000	88.569817
1714.000000	88.563252
1713.000000	88.570711
1712.000000	88.587473
1711.000000	88.601926
1710.000000	88.619290
1709.000000	88.648769
1708.000000	88.688131
1707.000000	88.724693
1706.000000	88.752705
1705.000000	88.783118
1704.000000	88.815654
1703.000000	88.846060
1702.000000	88.878744
1701.000000	88.913380
1700.000000	88.952590
1699.000000	88.989332
1698.000000	89.009358
1697.000000	89.027701
1696.000000	89.058676
1695.000000	89.098748
1694.000000	89.137039
1693.000000	89.159000
1692.000000	89.172019
1691.000000	89.184187
1690.000000	89.193231
1689.000000	89.192861
1688.000000	89.189981
1687.000000	89.200900
1686.000000	89.226459
1685.000000	89.234673
1684.000000	89.218249
1683.000000	89.223960
1682.000000	89.241048
1681.000000	89.228753
1680.000000	89.196982
1679.000000	89.169610
1678.000000	89.154656
1677.000000	89.130411
1676.000000	89.082151
1675.000000	89.031934
1674.000000	88.999791
1673.000000	88.967173
1672.000000	88.924006
1671.000000	88.880917
1670.000000	88.840890
1669.000000	88.791228
1668.000000	88.729624
1667.000000	88.671006
1666.000000	88.620587
1665.000000	88.566892
1664.000000	88.495199
1663.000000	88.413442
1662.000000	88.339824
1661.000000	88.258802
1660.000000	88.152884
1659.000000	88.036304
1658.000000	87.925436
1657.000000	87.812609
1656.000000	87.689493
1655.000000	87.544249
1654.000000	87.302971
1653.000000	86.944583
1652.000000	86.587597
1651.000000	86.251177
1650.000000	85.866171
1649.000000	85.369128
1648.000000	84.616894
1647.000000	83.510616
1646.000000	82.112646
1645.000000	80.534342
1644.000000	78.749861
1643.000000	76.661136
1642.000000	74.201555
1641.000000	71.414333
1640.000000	68.510538
1639.000000	65.753270
1638.000000	63.298975
1637.000000	61.225643
1636.000000	59.748311
1635.000000	59.167219
1634.000000	59.445687
1633.000000	60.277096
1632.000000	61.436584
1631.000000	62.818556
1630.000000	64.368384
1629.000000	66.044622
1628.000000	67.785530
1627.000000	69.483777
1626.000000	71.069871
1625.000000	72.600181
1624.000000	74.169177
1623.000000	75.735169
1622.000000	77.124410
1621.000000	78.241385
1620.000000	79.152688
1619.000000	79.970180
1618.000000	80.758209
1617.000000	81.523729
1616.000000	82.216875
1615.000000	82.758181
1614.000000	83.126837
1613.000000	83.384045
1612.000000	83.593828
1611.000000	83.760167
1610.000000	83.835172
1609.000000	83.787193
1608.000000	83.617801
1607.000000	83.314092
1606.000000	82.826566
1605.000000	82.093913
1604.000000	81.065275
1603.000000	79.672152
1602.000000	77.860255
1601.000000	75.701332
1600.000000	73.448440
1599.000000	71.448324
1598.000000	69.956116
1597.000000	69.017603
1596.000000	68.508329
1595.000000	68.255027
1594.000000	68.113584
1593.000000	67.998001
1592.000000	67.881661
1591.000000	67.768052
1590.000000	67.667545
1589.000000	67.584626
1588.000000	67.503126
1587.000000	67.361142
1586.000000	67.071161
1585.000000	66.594937
1584.000000	65.985911
1583.000000	65.324939
1582.000000	64.631363
1581.000000	63.885497
1580.000000	63.088004
1579.000000	62.216399
1578.000000	61.131397
1577.000000	59.618202
1576.000000	57.702039
1575.000000	55.778577
1574.000000	54.137548
1573.000000	52.714751
1572.000000	51.366050
1571.000000	50.041369
1570.000000	48.800091
1569.000000	47.765174
1568.000000	47.045932
1567.000000	46.679355
1566.000000	46.615224
1565.000000	46.756731
1564.000000	47.054653
1563.000000	47.511012
1562.000000	48.141866
1561.000000	48.984648
1560.000000	50.220062
1559.000000	51.974765
1558.000000	53.798691
1557.000000	55.174396
1556.000000	56.185353
1555.000000	57.120457
1554.000000	58.053934
1553.000000	58.896036
1552.000000	59.601464
1551.000000	60.264964
1550.000000	60.984353
1549.000000	61.763453
1548.000000	62.571331
1547.000000	63.442052
1546.000000	64.427816
1545.000000	65.497681
1544.000000	66.556500
1543.000000	67.560535
1542.000000	68.553467
1541.000000	69.588235
1540.000000	70.644923
1539.000000	71.626802
1538.000000	72.429238
1537.000000	73.046332
1536.000000	73.584978
1535.000000	74.173950
1534.000000	74.866169
1533.000000	75.586557
1532.000000	76.231106
1531.000000	76.784916
1530.000000	77.295678
1529.000000	77.786969
1528.000000	78.253131
1527.000000	78.698177
1526.000000	79.122710
1525.000000	79.506034
1524.000000	79.845396
1523.000000	80.177453
1522.000000	80.526924
1521.000000	80.864231
1520.000000	81.150682
1519.000000	81.391459
1518.000000	81.611232
1517.000000	81.812243
1516.000000	81.990165
1515.000000	82.160526
1514.000000	82.333972
1513.000000	82.512340
1512.000000	82.699210
1511.000000	82.896301
1510.000000	83.096337
1509.000000	83.291161
1508.000000	83.480473
1507.000000	83.676781
1506.000000	83.907146
1505.000000	84.126377
1504.000000	84.274298
1503.000000	84.385275
1502.000000	84.500211
1501.000000	84.625450
1500.000000	84.760544
1499.000000	84.912126
1498.000000	85.071013
1497.000000	85.220310
1496.000000	85.358699
1495.000000	85.487441
1494.000000	85.593007
1493.000000	85.665609
1492.000000	85.719685
1491.000000	85.776438
1490.000000	85.836891
1489.000000	85.892509
1488.000000	85.944725
1487.000000	85.996578
1486.000000	86.036340
1485.000000	86.027711
1484.000000	85.950950
1483.000000	85.806405
1482.000000	85.571368
1481.000000	85.219169
1480.000000	84.754027
1479.000000	84.168572
1478.000000	83.380013
1477.000000	82.296506
1476.000000	80.928804
1475.000000	79.351820
1474.000000	77.568299
1473.000000	75.598555
1472.000000	73.708836
1471.000000	72.226120
1470.000000	71.211857
1469.000000	70.565710
1468.000000	70.243461
1467.000000	70.287475
1466.000000	70.768357
1465.000000	71.667060
1464.000000	72.783161
1463.000000	73.823261
1462.000000	74.600176
1461.000000	75.073803
1460.000000	75.248248
1459.000000	75.093713
1458.000000	74.529714
1457.000000	73.626748
1456.000000	72.739458
1455.000000	72.123538
1454.000000	71.729889
1453.000000	71.451258
1452.000000	71.230723
1451.000000	71.031031
1450.000000	70.812787
1449.000000	70.564171
1448.000000	70.333279
1447.000000	70.216857
1446.000000	70.306654
1445.000000	70.656248
1444.000000	71.279073
1443.000000	72.130779
1442.000000	73.129137
1441.000000	74.200692
1440.000000	75.308720
1439.000000	76.458519
1438.000000	77.689303
1437.000000	78.996728
1436.000000	80.232057
1435.000000	81.214989
1434.000000	81.938656
1433.000000	82.520722
1432.000000	83.035326
1431.000000	83.482748
1430.000000	83.854345
1429.000000	84.172776
1428.000000	84.456056
1427.000000	84.706453
1426.000000	84.932288
1425.000000	85.142825
1424.000000	85.339470
1423.000000	85.513823
1422.000000	85.668348
1421.000000	85.816837
1420.000000	85.960534
1419.000000	86.083995
1418.000000	86.186706
1417.000000	86.292375
1416.000000	86.411932
1415.000000	86.537637
1414.000000	86.659437
1413.000000	86.775431
1412.000000	86.885814
1411.000000	86.986875
1410.000000	87.080122
1409.000000	87.178828
1408.000000	87.287619
1407.000000	87.396506
1406.000000	87.496110
1405.000000	87.580339
1404.000000	87.642567
1403.000000	87.668989
1402.000000	87.642085
1401.000000	87.536396
1400.000000	87.320148
1399.000000	87.004582
1398.000000	86.680496
1397.000000	86.461694
1396.000000	86.404969
1395.000000	86.486416
1394.000000	86.614604
1393.000000	86.700277
1392.000000	86.729971
1391.000000	86.756733
1390.000000	86.849197
1389.000000	87.053248
1388.000000	87.374762
1387.000000	87.775665
1386.000000	88.189044
1385.000000	88.548740
1384.000000	88.813483
1383.000000	88.970694
1382.000000	89.038349
1381.000000	89.051953
1380.000000	89.034360
1379.000000	88.988939
1378.000000	88.909869
1377.000000	88.769200
1376.000000	88.472180
1375.000000	87.829337
1374.000000	86.581606
1373.000000	84.500369
1372.000000	81.517631
1371.000000	77.850154
1370.000000	74.094897
1369.000000	71.153575
1368.000000	69.818935
1367.000000	70.232210
1366.000000	71.818880
1365.000000	73.729742
1364.000000	75.230233
1363.000000	75.873769
1362.000000	75.637603
1361.000000	74.968171
1360.000000	74.551261
1359.000000	74.940850
1358.000000	76.294905
1357.000000	78.329239
1356.000000	80.532315
1355.000000	82.476512
1354.000000	83.986906
1353.000000	85.098581
1352.000000	85.915298
1351.000000	86.527655
1350.000000	87.004888
1349.000000	87.392818
1348.000000	87.716695
1347.000000	87.994292
1346.000000	88.243318
1345.000000	88.469802
1344.000000	88.666103
1343.000000	88.824385
1342.000000	88.948071
1341.000000	89.043420
1340.000000	89.113439
1339.000000	89.170499
1338.000000	89.238051
1337.000000	89.330687
1336.000000	89.439759
1335.000000	89.539660
1334.000000	89.597270
1333.000000	89.563816
1332.000000	89.369767
1331.000000	88.943975
1330.000000	88.244331
1329.000000	87.272625
1328.000000	86.047681
1327.000000	84.569073
1326.000000	82.826196
1325.000000	80.884082
1324.000000	78.992174
1323.000000	77.540724
1322.000000	76.814996
1321.000000	76.773741
1320.000000	77.096215
1319.000000	77.449891
1318.000000	77.719067
1317.000000	77.992044
1316.000000	78.387191
1315.000000	78.935115
1314.000000	79.591448
1313.000000	80.319328
1312.000000	81.133075
1311.000000	82.061011
1310.000000	83.076320
1309.000000	84.073732
1308.000000	84.918618
1307.000000	85.521207
1306.000000	85.867043
1305.000000	85.977418
1304.000000	85.865343
1303.000000	85.526947
1302.000000	84.955644
1301.000000	84.167177
1300.000000	83.231817
1299.000000	82.296392
1298.000000	81.539838
1297.000000	81.066701
1296.000000	80.835868
1295.000000	80.693035
1294.000000	80.471623
1293.000000	80.067197
1292.000000	79.440599
1291.000000	78.574244
1290.000000	77.429231
1289.000000	75.964777
1288.000000	74.234944
1287.000000	72.480379
1286.000000	71.080877
1285.000000	70.366155
1284.000000	70.445028
1283.000000	71.191890
1282.000000	72.383562
1281.000000	73.832041
1280.000000	75.393090
1279.000000	76.882701
1278.000000	78.045405
1277.000000	78.647261
1276.000000	78.609089
1275.000000	78.066739
1274.000000	77.327693
1273.000000	76.761984
1272.000000	76.673812
1271.000000	77.195917
1270.000000	78.256124
1269.000000	79.639668
1268.000000	81.103028
1267.000000	82.467358
1266.000000	83.647878
1265.000000	84.636192
1264.000000	85.463665
1263.000000	86.166555
1262.000000	86.766761
1261.000000	87.272061
1260.000000	87.684492
1259.000000	88.008038
1258.000000	88.256826
1257.000000	88.451157
1256.000000	88.611076
1255.000000	88.754630
1254.000000	88.895819
1253.000000	89.042010
1252.000000	89.190891
1251.000000	89.335085
1250.000000	89.469617
1249.000000	89.593242
1248.000000	89.706559
1247.000000	89.811727
1246.000000	89.912424
1245.000000	90.010570
1244.000000	90.102541
1243.000000	90.181506
1242.000000	90.241708
1241.000000	90.279068
1240.000000	90.291365
1239.000000	90.281379
1238.000000	90.258792
1237.000000	90.233904
1236.000000	90.210287
1235.000000	90.185453
1234.000000	90.153153
1233.000000	90.102482
1232.000000	90.017391
1231.000000	89.882943
1230.000000	89.694235
1229.000000	89.455009
1228.000000	89.172140
1227.000000	88.851844
1226.000000	88.494499
1225.000000	88.089419
1224.000000	87.607184
1223.000000	87.003883
1222.000000	86.229066
1221.000000	85.230218
1220.000000	83.971344
1219.000000	82.449324
1218.000000	80.702387
1217.000000	78.805093
1216.000000	76.858793
1215.000000	74.984301
1214.000000	73.307513
1213.000000	71.941776
1212.000000	70.974072
1211.000000	70.451116
1210.000000	70.350072
1209.000000	70.583264
1208.000000	71.030610
1207.000000	71.562156
1206.000000	72.053481
1205.000000	72.395076
1204.000000	72.509192
1203.000000	72.362308
1202.000000	71.971567
1201.000000	71.415818
1200.000000	70.840905
1199.000000	70.433242
1198.000000	70.355791
1197.000000	70.685572
1196.000000	71.403261
1195.000000	72.419724
1194.000000	73.620425
1193.000000	74.907735
1192.000000	76.215073
1191.000000	77.503662
1190.000000	78.747163
1189.000000	79.924760
1188.000000	81.021141
1187.000000	82.025688
1186.000000	82.930569
1185.000000	83.733551
1184.000000	84.438634
1183.000000	85.048561
1182.000000	85.564546
1181.000000	85.986694
1180.000000	86.320813
1179.000000	86.583942
1178.000000	86.796464
1177.000000	86.973844
1176.000000	87.119686
1175.000000	87.229201
1174.000000	87.294897
1173.000000	87.300037
1172.000000	87.216793
1171.000000	87.005780
1170.000000	86.620301
1169.000000	86.014503
1168.000000	85.151812
1167.000000	84.032962
1166.000000	82.721930
1165.000000	81.353609
1164.000000	80.115640
1163.000000	79.203770
1162.000000	78.754235
1161.000000	78.797750
1160.000000	79.262963
1159.000000	80.008418
1158.000000	80.876960
1157.000000	81.735455
1156.000000	82.496792
1155.000000	83.123180
1154.000000	83.611876
1153.000000	83.976820
1152.000000	84.232568
1151.000000	84.385940
1150.000000	84.430355
1149.000000	84.350911
1148.000000	84.120810
1147.000000	83.705705
1146.000000	83.068443
1145.000000	82.159226
1144.000000	80.922860
1143.000000	79.300897
1142.000000	77.253758
1141.000000	74.801256
1140.000000	72.052317
1139.000000	69.204641
1138.000000	66.465886
1137.000000	63.950344
1136.000000	61.634535
1135.000000	59.412674
1134.000000	57.216817
1133.000000	55.160177
1132.000000	53.594481
1131.000000	52.981671
1130.000000	53.665038
1129.000000	55.650241
1128.000000	58.573802
1127.000000	61.831142
1126.000000	64.758649
1125.000000	66.795758
1124.000000	67.585072
1123.000000	67.031372
1122.000000	65.322129
1121.000000	62.861818
1120.000000	60.065123
1119.000000	57.193810
1118.000000	54.392053
1117.000000	51.906491
1116.000000	50.223739
1115.000000	49.905935
1114.000000	51.213765
1113.000000	53.887716
1112.000000	57.267167
1111.000000	60.560684
1110.000000	63.134047
1109.000000	64.715268
1108.000000	65.446746
1107.000000	65.723653
1106.000000	65.904495
1105.000000	66.121025
1104.000000	66.341587
1103.000000	66.541100
1102.000000	66.711151
1101.000000	66.748244
1100.000000	66.443907
1099.000000	65.704928
1098.000000	64.801046
1097.000000	64.330248
1096.000000	64.853198
1095.000000	66.517890
1094.000000	68.986189
1093.000000	71.690726
1092.000000	74.171063
1091.000000	76.219383
1090.000000	77.837224
1089.000000	79.118085
1088.000000	80.156951
1087.000000	81.014077
1086.000000	81.724905
1085.000000	82.314424
1084.000000	82.798742
1083.000000	83.193609
1082.000000	83.514818
1081.000000	83.780831
1080.000000	84.007101
1079.000000	84.197605
1078.000000	84.349849
1077.000000	84.451481
1076.000000	84.475875
1075.000000	84.383177
1074.000000	84.120329
1073.000000	83.631410
1072.000000	82.836485
1071.000000	81.618435
1070.000000	79.819452
1069.000000	77.214275
1068.000000	73.556259
1067.000000	68.695917
1066.000000	62.802775
1065.000000	56.538910
1064.000000	50.952260
1063.000000	47.005690
1062.000000	44.978875
1061.000000	44.221533
1060.000000	43.540142
1059.000000	42.012862
1058.000000	39.602248
1057.000000	37.192353
1056.000000	36.015786
1055.000000	36.858902
1054.000000	39.687966
1053.000000	43.825609
1052.000000	48.442602
1051.000000	52.927917
1050.000000	56.952258
1049.000000	60.413142
1048.000000	63.345271
1047.000000	65.838844
1046.000000	67.967484
1045.000000	69.775984
1044.000000	71.293050
1043.000000	72.555799
1042.000000	73.610728
1041.000000	74.497888
1040.000000	75.259504
1039.000000	75.931713
1038.000000	76.535354
1037.000000	77.073416
1036.000000	77.537030
1035.000000	77.920784
1034.000000	78.221452
1033.000000	78.438156
1032.000000	78.579871
1031.000000	78.667063
1030.000000	78.726699
1029.000000	78.782189
1028.000000	78.850738
1027.000000	78.942795
1026.000000	79.054398
1025.000000	79.165273
1024.000000	79.245074
1023.000000	79.261771
1022.000000	79.186973
1021.000000	78.994301
1020.000000	78.665908
1019.000000	78.191303
1018.000000	77.555277
1017.000000	76.733720
1016.000000	75.692177
1015.000000	74.407192
1014.000000	72.889955
1013.000000	71.210795
1012.000000	69.508542
1011.000000	67.937037
1010.000000	66.567578
1009.000000	65.333045
1008.000000	64.105734
1007.000000	62.861584
1006.000000	61.808302
1005.000000	61.332987
1004.000000	61.785551
1003.000000	63.246555
1002.000000	65.438219
1001.000000	67.867756
1000.000000	70.048851
999.000000	71.646344
998.000000	72.511872
997.000000	72.672533
996.000000	72.319275
995.000000	71.768408
994.000000	71.368277
993.000000	71.380737
992.000000	71.913069
991.000000	72.913327
990.000000	74.216987
989.000000	75.624745
988.000000	76.981103
987.000000	78.203699
986.000000	79.270797
985.000000	80.188104
984.000000	80.964936
983.000000	81.606059
982.000000	82.117024
981.000000	82.508064
980.000000	82.797827
979.000000	83.020121
978.000000	83.216215
977.000000	83.423787
976.000000	83.666769
975.000000	83.951376
974.000000	84.267050
973.000000	84.586716
972.000000	84.874774
971.000000	85.101300
970.000000	85.253368
969.000000	85.337773
968.000000	85.377070
967.000000	85.405229
966.000000	85.458736
965.000000	85.562532
964.000000	85.721681
963.000000	85.923175
962.000000	86.142709
961.000000	86.350760
960.000000	86.520093
959.000000	86.636363
958.000000	86.704141
957.000000	86.742276
956.000000	86.773910
955.000000	86.819415
954.000000	86.892569
953.000000	86.996014
952.000000	87.120616
951.000000	87.252344
950.000000	87.380238
949.000000	87.498232
948.000000	87.604262
947.000000	87.701184
946.000000	87.795659
945.000000	87.891180
944.000000	87.983190
943.000000	88.062820
942.000000	88.124131
941.000000	88.166556
940.000000	88.194288
939.000000	88.218688
938.000000	88.258462
937.000000	88.331194
936.000000	88.442743
935.000000	88.584779
934.000000	88.738132
933.000000	88.875785
932.000000	88.968706
931.000000	88.999469
930.000000	88.973503
929.000000	88.916726
928.000000	88.863601
927.000000	88.847692
926.000000	88.894718
925.000000	89.012265
924.000000	89.181962
923.000000	89.365137
922.000000	89.519107
921.000000	89.610803
920.000000	89.624296
919.000000	89.567925
918.000000	89.475959
917.000000	89.395277
916.000000	89.365362
915.000000	89.406611
914.000000	89.517674
913.000000	89.675077
912.000000	89.836120
911.000000	89.953152
910.000000	89.990525
909.000000	89.928903
908.000000	89.759639
907.000000	89.478445
906.000000	89.085788
905.000000	88.580503
904.000000	87.959819
903.000000	87.247014
902.000000	86.529205
901.000000	85.957186
900.000000	85.684773
899.000000	85.783054
898.000000	86.195366
897.000000	86.778114
896.000000	87.382476
895.000000	87.917348
894.000000	88.355409
893.000000	88.689652
892.000000	88.899568
891.000000	88.964500
890.000000	88.910016
889.000000	88.823972
888.000000	88.811025
887.000000	88.917683
886.000000	89.095296
885.000000	89.232018
884.000000	89.225709
883.000000	89.045739
882.000000	88.740394
881.000000	88.390658
880.000000	88.046606
879.000000	87.703399
878.000000	87.343305
877.000000	87.003441
876.000000	86.798667
875.000000	86.856969
874.000000	87.221828
873.000000	87.807272
872.000000	88.447551
871.000000	88.992305
870.000000	89.370110
869.000000	89.589674
868.000000	89.703632
867.000000	89.777024
866.000000	89.866546
865.000000	90.006565
864.000000	90.200675
863.000000	90.426535
862.000000	90.646799
861.000000	90.819596
860.000000	90.911012
859.000000	90.908897
858.000000	90.831205
857.000000	90.718604
856.000000	90.617613
855.000000	90.568122
854.000000	90.595330
853.000000	90.701936
852.000000	90.864619
851.000000	91.042129
850.000000	91.190836
849.000000	91.277524
848.000000	91.287166
847.000000	91.228279
846.000000	91.131019
845.000000	91.034837
844.000000	90.973833
843.000000	90.969078
842.000000	91.025659
841.000000	91.130782
840.000000	91.257221
839.000000	91.375190
838.000000	91.464104
837.000000	91.514701
836.000000	91.526036
835.000000	91.505929
834.000000	91.470579
833.000000	91.436470
832.000000	91.412495
831.000000	91.401970
830.000000	91.408827
829.000000	91.436622
828.000000	91.484371
827.000000	91.548459
826.000000	91.626814
825.000000	91.715068
824.000000	91.800733
823.000000	91.866605
822.000000	91.899369
821.000000	91.890623
820.000000	91.835570
819.000000	91.739046
818.000000	91.620726
817.000000	91.507269
816.000000	91.416013
815.000000	91.345943
814.000000	91.275776
813.000000	91.163368
812.000000	90.957738
811.000000	90.628009
810.000000	90.191691
809.000000	89.710719
808.000000	89.254867
807.000000	88.866620
806.000000	88.549232
805.000000	88.274531
804.000000	87.997497
803.000000	87.664089
802.000000	87.213231
801.000000	86.573143
800.000000	85.666841
799.000000	84.437535
798.000000	82.870625
797.000000	81.006040
796.000000	78.931199
795.000000	76.768611
794.000000	74.657051
793.000000	72.730955
792.000000	71.107503
791.000000	69.877650
790.000000	69.098363
789.000000	68.779578
788.000000	68.885489
787.000000	69.336390
786.000000	70.025901
785.000000	70.849226
784.000000	71.719643
783.000000	72.574672
782.000000	73.366613
781.000000	74.056106
780.000000	74.608546
779.000000	74.998852
778.000000	75.218686
777.000000	75.277697
776.000000	75.194288
775.000000	74.985662
774.000000	74.675466
773.000000	74.313020
772.000000	73.989375
771.000000	73.825183
770.000000	73.932865
769.000000	74.370859
768.000000	75.122851
767.000000	76.112875
766.000000	77.244604
765.000000	78.438821
764.000000	79.642650
763.000000	80.821798
762.000000	81.947129
761.000000	82.986216
760.000000	83.901536
759.000000	84.662492
758.000000	85.263422
757.000000	85.729987
756.000000	86.110605
755.000000	86.462830
754.000000	86.841891
753.000000	87.284002
752.000000	87.790225
751.000000	88.325315
750.000000	88.831873
749.000000	89.248977
748.000000	89.528303
747.000000	89.651904
746.000000	89.644495
745.000000	89.565381
744.000000	89.485421
743.000000	89.466585
742.000000	89.549346
741.000000	89.740833
740.000000	90.007331
739.000000	90.285446
738.000000	90.507929
737.000000	90.622508
736.000000	90.598393
735.000000	90.432634
734.000000	90.155786
733.000000	89.822212
732.000000	89.488379
731.000000	89.199002
730.000000	88.984654
729.000000	88.858053
728.000000	88.807575
727.000000	88.798879
726.000000	88.787607
725.000000	88.733785
724.000000	88.605126
723.000000	88.371129
722.000000	87.994357
721.000000	87.430964
720.000000	86.649924
719.000000	85.662806
718.000000	84.536533
717.000000	83.380557
716.000000	82.325091
715.000000	81.499570
714.000000	81.009038
713.000000	80.902973
712.000000	81.152546
711.000000	81.661863
710.000000	82.313970
709.000000	83.012413
708.000000	83.694972
707.000000	84.333873
706.000000	84.934604
705.000000	85.527008
704.000000	86.140444
703.000000	86.784611
702.000000	87.451417
701.000000	88.118870
700.000000	88.746726
699.000000	89.284569
698.000000	89.694860
697.000000	89.969935
696.000000	90.128461
695.000000	90.207384
694.000000	90.262306
693.000000	90.354836
692.000000	90.524307
691.000000	90.773240
690.000000	91.077853
689.000000	91.401602
688.000000	91.694267
687.000000	91.900638
686.000000	91.990316
685.000000	91.972296
684.000000	91.879829
683.000000	91.754807
682.000000	91.647435
681.000000	91.608252
680.000000	91.659979
679.000000	91.788132
678.000000	91.957353
677.000000	92.127746
676.000000	92.262783
675.000000	92.322405
674.000000	92.305871
673.000000	92.294066
672.000000	92.417223
671.000000	92.745341
670.000000	93.214241
669.000000	93.510755
668.000000	93.225196
667.000000	92.597610
666.000000	92.217527
665.000000	92.117498
664.000000	92.131826
663.000000	92.158318
662.000000	92.160088
661.000000	92.121748
660.000000	92.044537
659.000000	91.954248
658.000000	91.883099
657.000000	91.840149
656.000000	91.825841
655.000000	91.841901
654.000000	91.884048
653.000000	91.936375
652.000000	91.984153
651.000000	92.018991
650.000000	92.025269
649.000000	91.976967
648.000000	91.861769
647.000000	91.697583
646.000000	91.516359
645.000000	91.343634
644.000000	91.197989
643.000000	91.097709
642.000000	91.053666
641.000000	91.057270
640.000000	91.087123
639.000000	91.119148
638.000000	91.122581
637.000000	91.061162
636.000000	90.913522
635.000000	90.689714
634.000000	90.424597
633.000000	90.159819
632.000000	89.936102
631.000000	89.790292
630.000000	89.739209
629.000000	89.764623
628.000000	89.822596
627.000000	89.861294
626.000000	89.828264
625.000000	89.682533
624.000000	89.413167
623.000000	89.051568
622.000000	88.661540
621.000000	88.312718
620.000000	88.055282
619.000000	87.900176
618.000000	87.810359
617.000000	87.720689
616.000000	87.578241
615.000000	87.356199
614.000000	87.032750
613.000000	86.583903
612.000000	86.009885
611.000000	85.353193
610.000000	84.670761
609.000000	83.993649
608.000000	83.325794
607.000000	82.659462
606.000000	81.967988
605.000000	81.201345
604.000000	80.311923
603.000000	79.282715
602.000000	78.114298
601.000000	76.807231
600.000000	75.379491
599.000000	73.880885
598.000000	72.356211
597.000000	70.810525
596.000000	69.243502
595.000000	67.682375
594.000000	66.139762
593.000000	64.571213
592.000000	62.932246
591.000000	61.260616
590.000000	59.668185
589.000000	58.282563
588.000000	57.212103
587.000000	56.496096
586.000000	56.020841
585.000000	55.546060
584.000000	54.888509
583.000000	54.042142
582.000000	53.105225
581.000000	52.181615
580.000000	51.394901
579.000000	50.911602
578.000000	50.844251
577.000000	51.181871
576.000000	51.846781
575.000000	52.741486
574.000000	53.723084
573.000000	54.620900
572.000000	55.356696
571.000000	56.012407
570.000000	56.749556
569.000000	57.687630
568.000000	58.860440
567.000000	60.214833
566.000000	61.607411
565.000000	62.865985
564.000000	63.896035
563.000000	64.709436
562.000000	65.355936
561.000000	65.872631
560.000000	66.307989
559.000000	66.733529
558.000000	67.198495
557.000000	67.704435
556.000000	68.241855
555.000000	68.818191
554.000000	69.425700
553.000000	70.024803
552.000000	70.583797
551.000000	71.103935
550.000000	71.590480
549.000000	72.032498
548.000000	72.432331
547.000000	72.823358
546.000000	73.236274
545.000000	73.671678
544.000000	74.123286
543.000000	74.597391
542.000000	75.090157
541.000000	75.570020
540.000000	76.003632
539.000000	76.379002
538.000000	76.692242
537.000000	76.938008
536.000000	77.127570
535.000000	77.300356
534.000000	77.495007
533.000000	77.725740
532.000000	77.987351
531.000000	78.265366
530.000000	78.529276
529.000000	78.732207
528.000000	78.829027
527.000000	78.796039
526.000000	78.621029
525.000000	78.294615
524.000000	77.828470
523.000000	77.265456
522.000000	76.667925
521.000000	76.088809
520.000000	75.550971
519.000000	75.024848
518.000000	74.395447
517.000000	73.487324
516.000000	72.167798
515.000000	70.452764
514.000000	68.514642
513.000000	66.620010
512.000000	65.061603
511.000000	64.096588
510.000000	63.860059
509.000000	64.333283
508.000000	65.418576
507.000000	66.974012
506.000000	68.796940
505.000000	70.673711
504.000000	72.468582
503.000000	74.123245
502.000000	75.577152
501.000000	76.768393
500.000000	77.700851
499.000000	78.454125
498.000000	79.114884
497.000000	79.741123
496.000000	80.371323
495.000000	81.026369
494.000000	81.698297
493.000000	82.342504
492.000000	82.901969
491.000000	83.341195
490.000000	83.654976
489.000000	83.869854
488.000000	84.031393
487.000000	84.189366
486.000000	84.381520
485.000000	84.620556
484.000000	84.893991
483.000000	85.168135
482.000000	85.395969
481.000000	85.531086
480.000000	85.543065
479.000000	85.420340
478.000000	85.154263
477.000000	84.751205
476.000000	84.260656
475.000000	83.760769
474.000000	83.298520
473.000000	82.855820
472.000000	82.389748
471.000000	81.901324
470.000000	81.439298
469.000000	81.072371
468.000000	80.878728
467.000000	80.892308
466.000000	81.007472
465.000000	80.993114
464.000000	80.637956
463.000000	79.904919
462.000000	79.000710
461.000000	78.283069
460.000000	78.102505
459.000000	78.680692
458.000000	79.976585
457.000000	81.619340
456.000000	83.155235
455.000000	84.372583
454.000000	85.269211
453.000000	85.875453
452.000000	86.213644
451.000000	86.349428
450.000000	86.357622
449.000000	86.264803
448.000000	86.056889
447.000000	85.716107
446.000000	85.238704
445.000000	84.649146
444.000000	84.036285
443.000000	83.557587
442.000000	83.350936
441.000000	83.431193
440.000000	83.725822
439.000000	84.162224
438.000000	84.686711
437.000000	85.247225
436.000000	85.790083
435.000000	86.268253
434.000000	86.637133
433.000000	86.854325
432.000000	86.894669
431.000000	86.777777
430.000000	86.574135
429.000000	86.356317
428.000000	86.163254
427.000000	86.011616
426.000000	85.909167
425.000000	85.848481
424.000000	85.817328
423.000000	85.817971
422.000000	85.840873
421.000000	85.837343
420.000000	85.747396
419.000000	85.578643
418.000000	85.416442
417.000000	85.286726
416.000000	85.161452
415.000000	85.058736
414.000000	85.023179
413.000000	85.065239
412.000000	85.171784
411.000000	85.345238
410.000000	85.582083
409.000000	85.801557
408.000000	85.889995
407.000000	85.820116
406.000000	85.676831
405.000000	85.564599
404.000000	85.540820
403.000000	85.633211
402.000000	85.846919
401.000000	86.148411
400.000000	86.481170
