PE IR       SUBTECH     SPECTRUM    ASCII       PEDS        4.00        
   -1
23ms007 trans.asc
24/10/14
16:12:39.00
24/10/14
16:12:39.00
Administrator
Sample 1266 By Administrator Date Monday, October 14 2024
400.000000
#HDR
-1
-1
#GR
cm-1
%T
1.0
0.0
4000.000000
-1.000000
3601
8
110.192572
6.719714
#DATA
4000.000000	73.458359
3999.000000	73.394214
3998.000000	73.334058
3997.000000	73.276521
3996.000000	73.216460
3995.000000	73.151398
3994.000000	73.084424
3993.000000	73.019109
3992.000000	72.953968
3991.000000	72.885033
3990.000000	72.811134
3989.000000	72.734633
3988.000000	72.658835
3987.000000	72.586701
3986.000000	72.521248
3985.000000	72.463904
3984.000000	72.412529
3983.000000	72.361866
3982.000000	72.305945
3981.000000	72.242170
3980.000000	72.173244
3979.000000	72.104938
3978.000000	72.044479
3977.000000	71.999233
3976.000000	71.973738
3975.000000	71.967823
3974.000000	71.979396
3973.000000	72.011293
3972.000000	72.069053
3971.000000	72.154587
3970.000000	72.263845
3969.000000	72.386264
3968.000000	72.509762
3967.000000	72.626873
3966.000000	72.737035
3965.000000	72.843715
3964.000000	72.947902
3963.000000	73.043908
3962.000000	73.124999
3961.000000	73.192489
3960.000000	73.250310
3959.000000	73.299712
3958.000000	73.343217
3957.000000	73.383994
3956.000000	73.425701
3955.000000	73.469854
3954.000000	73.518600
3953.000000	73.576890
3952.000000	73.650234
3951.000000	73.744866
3950.000000	73.858533
3949.000000	73.973647
3948.000000	74.077082
3947.000000	74.183167
3946.000000	74.317624
3945.000000	74.481243
3944.000000	74.644929
3943.000000	74.778196
3942.000000	74.877865
3941.000000	74.969986
3940.000000	75.069602
3939.000000	75.160139
3938.000000	75.223419
3937.000000	75.263244
3936.000000	75.304186
3935.000000	75.363690
3934.000000	75.443581
3933.000000	75.536187
3932.000000	75.622612
3931.000000	75.683778
3930.000000	75.710422
3929.000000	75.723169
3928.000000	75.763271
3927.000000	75.835546
3926.000000	75.897609
3925.000000	75.916657
3924.000000	75.908947
3923.000000	75.911674
3922.000000	75.932173
3921.000000	75.962978
3920.000000	76.017429
3919.000000	76.105233
3918.000000	76.200036
3917.000000	76.267273
3916.000000	76.311452
3915.000000	76.365892
3914.000000	76.437731
3913.000000	76.513892
3912.000000	76.579053
3911.000000	76.615530
3910.000000	76.622995
3909.000000	76.619700
3908.000000	76.646871
3907.000000	76.726798
3906.000000	76.827079
3905.000000	76.890840
3904.000000	76.905844
3903.000000	76.941133
3902.000000	77.072734
3901.000000	77.268680
3900.000000	77.424095
3899.000000	77.483989
3898.000000	77.468942
3897.000000	77.437872
3896.000000	77.432178
3895.000000	77.486180
3894.000000	77.626606
3893.000000	77.805392
3892.000000	77.877343
3891.000000	77.753121
3890.000000	77.581368
3889.000000	77.570551
3888.000000	77.731988
3887.000000	77.912554
3886.000000	77.946714
3885.000000	77.832318
3884.000000	77.753100
3883.000000	77.838294
3882.000000	78.025096
3881.000000	78.150622
3880.000000	78.107244
3879.000000	77.973273
3878.000000	77.924049
3877.000000	78.002210
3876.000000	78.091485
3875.000000	78.065385
3874.000000	77.958848
3873.000000	77.949190
3872.000000	78.100942
3871.000000	78.256879
3870.000000	78.229608
3869.000000	78.083299
3868.000000	78.057699
3867.000000	78.191911
3866.000000	78.338155
3865.000000	78.428397
3864.000000	78.462492
3863.000000	78.457900
3862.000000	78.439630
3861.000000	78.408231
3860.000000	78.359338
3859.000000	78.300267
3858.000000	78.284096
3857.000000	78.391767
3856.000000	78.667811
3855.000000	79.043256
3854.000000	79.213560
3853.000000	78.919831
3852.000000	78.499233
3851.000000	78.404308
3850.000000	78.556766
3849.000000	78.728192
3848.000000	78.838563
3847.000000	78.890088
3846.000000	78.912179
3845.000000	78.916965
3844.000000	78.867168
3843.000000	78.775116
3842.000000	78.732965
3841.000000	78.795374
3840.000000	78.937618
3839.000000	79.066077
3838.000000	79.088106
3837.000000	79.009386
3836.000000	78.945714
3835.000000	79.001989
3834.000000	79.156432
3833.000000	79.294310
3832.000000	79.332329
3831.000000	79.293102
3830.000000	79.277789
3829.000000	79.353732
3828.000000	79.442433
3827.000000	79.415653
3826.000000	79.289817
3825.000000	79.228890
3824.000000	79.350472
3823.000000	79.594474
3822.000000	79.740745
3821.000000	79.602971
3820.000000	79.376757
3819.000000	79.410742
3818.000000	79.698469
3817.000000	79.961521
3816.000000	79.982190
3815.000000	79.832094
3814.000000	79.748819
3813.000000	79.783358
3812.000000	79.829918
3811.000000	79.868866
3810.000000	79.980418
3809.000000	80.176816
3808.000000	80.294303
3807.000000	80.169761
3806.000000	79.922144
3805.000000	79.868666
3804.000000	80.103072
3803.000000	80.429029
3802.000000	80.567928
3801.000000	80.410384
3800.000000	80.212012
3799.000000	80.240743
3798.000000	80.437650
3797.000000	80.607123
3796.000000	80.660094
3795.000000	80.653406
3794.000000	80.669875
3793.000000	80.721671
3792.000000	80.782094
3791.000000	80.827961
3790.000000	80.852714
3789.000000	80.867444
3788.000000	80.894969
3787.000000	80.950044
3786.000000	81.001196
3785.000000	81.002463
3784.000000	80.968750
3783.000000	80.974695
3782.000000	81.060380
3781.000000	81.185178
3780.000000	81.263132
3779.000000	81.255767
3778.000000	81.226692
3777.000000	81.239727
3776.000000	81.261705
3775.000000	81.242811
3774.000000	81.219767
3773.000000	81.261741
3772.000000	81.353342
3771.000000	81.405528
3770.000000	81.364549
3769.000000	81.284561
3768.000000	81.275979
3767.000000	81.346811
3766.000000	81.389106
3765.000000	81.339560
3764.000000	81.261700
3763.000000	81.253129
3762.000000	81.304643
3761.000000	81.358667
3760.000000	81.392074
3759.000000	81.371496
3758.000000	81.284773
3757.000000	81.184030
3756.000000	81.142581
3755.000000	81.177254
3754.000000	81.252510
3753.000000	81.372502
3752.000000	81.549724
3751.000000	81.647081
3750.000000	81.496078
3749.000000	81.241057
3748.000000	81.243337
3747.000000	81.601485
3746.000000	82.106096
3745.000000	82.404585
3744.000000	82.212944
3743.000000	81.827008
3742.000000	81.687502
3741.000000	81.733406
3740.000000	81.795972
3739.000000	81.855246
3738.000000	81.940396
3737.000000	82.046904
3736.000000	82.164738
3735.000000	82.336311
3734.000000	82.552812
3733.000000	82.704972
3732.000000	82.700956
3731.000000	82.599272
3730.000000	82.556603
3729.000000	82.623193
3728.000000	82.722574
3727.000000	82.780686
3726.000000	82.800702
3725.000000	82.834893
3724.000000	82.891420
3723.000000	82.947447
3722.000000	82.975418
3721.000000	82.982771
3720.000000	83.011073
3719.000000	83.036939
3718.000000	83.009172
3717.000000	82.948279
3716.000000	82.925646
3715.000000	82.982151
3714.000000	83.100382
3713.000000	83.242164
3712.000000	83.348129
3711.000000	83.369299
3710.000000	83.351452
3709.000000	83.360864
3708.000000	83.388556
3707.000000	83.407781
3706.000000	83.430001
3705.000000	83.488521
3704.000000	83.587939
3703.000000	83.685495
3702.000000	83.714827
3701.000000	83.656428
3700.000000	83.593149
3699.000000	83.593979
3698.000000	83.616493
3697.000000	83.603059
3696.000000	83.555453
3695.000000	83.500308
3694.000000	83.447457
3693.000000	83.413754
3692.000000	83.441968
3691.000000	83.554403
3690.000000	83.692501
3689.000000	83.721737
3688.000000	83.602280
3687.000000	83.491845
3686.000000	83.512476
3685.000000	83.592715
3684.000000	83.636526
3683.000000	83.629032
3682.000000	83.584042
3681.000000	83.470745
3680.000000	83.293481
3679.000000	83.187831
3678.000000	83.263414
3677.000000	83.458007
3676.000000	83.512381
3675.000000	83.254276
3674.000000	82.970098
3673.000000	82.976701
3672.000000	83.173010
3671.000000	83.335374
3670.000000	83.325483
3669.000000	83.151710
3668.000000	82.989105
3667.000000	82.942506
3666.000000	82.944335
3665.000000	82.917075
3664.000000	82.855291
3663.000000	82.756471
3662.000000	82.606276
3661.000000	82.413847
3660.000000	82.250591
3659.000000	82.188752
3658.000000	82.191639
3657.000000	82.112764
3656.000000	81.841432
3655.000000	81.481597
3654.000000	81.213000
3653.000000	81.052960
3652.000000	80.931098
3651.000000	80.827839
3650.000000	80.728539
3649.000000	80.576360
3648.000000	80.354698
3647.000000	80.135074
3646.000000	79.972250
3645.000000	79.852782
3644.000000	79.735830
3643.000000	79.583303
3642.000000	79.389191
3641.000000	79.168793
3640.000000	78.931810
3639.000000	78.669812
3638.000000	78.388705
3637.000000	78.122706
3636.000000	77.868421
3635.000000	77.567724
3634.000000	77.193692
3633.000000	76.829506
3632.000000	76.584868
3631.000000	76.470794
3630.000000	76.371188
3629.000000	76.085464
3628.000000	75.587344
3627.000000	75.126171
3626.000000	74.829980
3625.000000	74.583302
3624.000000	74.298214
3623.000000	73.998524
3622.000000	73.724276
3621.000000	73.466043
3620.000000	73.168167
3619.000000	72.769546
3618.000000	72.304870
3617.000000	71.897509
3616.000000	71.599322
3615.000000	71.348614
3614.000000	71.066068
3613.000000	70.733049
3612.000000	70.397860
3611.000000	70.107729
3610.000000	69.847311
3609.000000	69.568589
3608.000000	69.246264
3607.000000	68.895441
3606.000000	68.551718
3605.000000	68.226038
3604.000000	67.910006
3603.000000	67.591120
3602.000000	67.250469
3601.000000	66.878550
3600.000000	66.497461
3599.000000	66.128933
3598.000000	65.780787
3597.000000	65.456228
3596.000000	65.138090
3595.000000	64.795467
3594.000000	64.409151
3593.000000	63.997067
3592.000000	63.604622
3591.000000	63.259814
3590.000000	62.954174
3589.000000	62.660441
3588.000000	62.341850
3587.000000	61.976485
3586.000000	61.597214
3585.000000	61.254554
3584.000000	60.955494
3583.000000	60.672488
3582.000000	60.383200
3581.000000	60.084976
3580.000000	59.783571
3579.000000	59.481574
3578.000000	59.177221
3577.000000	58.876757
3576.000000	58.586318
3575.000000	58.299181
3574.000000	58.002955
3573.000000	57.691995
3572.000000	57.379229
3571.000000	57.089557
3570.000000	56.841221
3569.000000	56.637759
3568.000000	56.465080
3567.000000	56.292117
3566.000000	56.103433
3565.000000	55.917771
3564.000000	55.750383
3563.000000	55.595721
3562.000000	55.446124
3561.000000	55.301787
3560.000000	55.162929
3559.000000	55.023477
3558.000000	54.876445
3557.000000	54.724934
3556.000000	54.582151
3555.000000	54.454404
3554.000000	54.333129
3553.000000	54.203463
3552.000000	54.058619
3551.000000	53.906236
3550.000000	53.756830
3549.000000	53.614462
3548.000000	53.480251
3547.000000	53.355253
3546.000000	53.237683
3545.000000	53.127206
3544.000000	53.024922
3543.000000	52.926999
3542.000000	52.825000
3541.000000	52.712518
3540.000000	52.590622
3539.000000	52.460880
3538.000000	52.325752
3537.000000	52.191207
3536.000000	52.062489
3535.000000	51.937847
3534.000000	51.808832
3533.000000	51.670498
3532.000000	51.524478
3531.000000	51.373256
3530.000000	51.214293
3529.000000	51.042947
3528.000000	50.859372
3527.000000	50.670436
3526.000000	50.485733
3525.000000	50.312689
3524.000000	50.151545
3523.000000	49.992874
3522.000000	49.826611
3521.000000	49.650286
3520.000000	49.465428
3519.000000	49.268422
3518.000000	49.054202
3517.000000	48.824969
3516.000000	48.586181
3515.000000	48.340211
3514.000000	48.090587
3513.000000	47.845761
3512.000000	47.610792
3511.000000	47.377909
3510.000000	47.132532
3509.000000	46.869567
3508.000000	46.597016
3507.000000	46.322138
3506.000000	46.043268
3505.000000	45.759129
3504.000000	45.476182
3503.000000	45.203462
3502.000000	44.945531
3501.000000	44.701758
3500.000000	44.467413
3499.000000	44.235160
3498.000000	44.001798
3497.000000	43.772605
3496.000000	43.555231
3495.000000	43.350872
3494.000000	43.156739
3493.000000	42.973294
3492.000000	42.802216
3491.000000	42.641329
3490.000000	42.487029
3489.000000	42.340258
3488.000000	42.206011
3487.000000	42.087699
3486.000000	41.986815
3485.000000	41.904014
3484.000000	41.834732
3483.000000	41.768945
3482.000000	41.701833
3481.000000	41.642778
3480.000000	41.605949
3479.000000	41.594137
3478.000000	41.598192
3477.000000	41.609010
3476.000000	41.622666
3475.000000	41.635486
3474.000000	41.643160
3473.000000	41.644448
3472.000000	41.639985
3471.000000	41.631146
3470.000000	41.624799
3469.000000	41.633770
3468.000000	41.666252
3467.000000	41.717021
3466.000000	41.774189
3465.000000	41.829560
3464.000000	41.877872
3463.000000	41.913439
3462.000000	41.936085
3461.000000	41.956434
3460.000000	41.986783
3459.000000	42.028087
3458.000000	42.072854
3457.000000	42.115300
3456.000000	42.154242
3455.000000	42.189904
3454.000000	42.222151
3453.000000	42.252181
3452.000000	42.281267
3451.000000	42.309992
3450.000000	42.340323
3449.000000	42.374920
3448.000000	42.413087
3447.000000	42.450803
3446.000000	42.488168
3445.000000	42.530947
3444.000000	42.580845
3443.000000	42.630267
3442.000000	42.670747
3441.000000	42.701368
3440.000000	42.725500
3439.000000	42.744786
3438.000000	42.762709
3437.000000	42.787744
3436.000000	42.827590
3435.000000	42.881726
3434.000000	42.941347
3433.000000	42.997245
3432.000000	43.045058
3431.000000	43.086498
3430.000000	43.128264
3429.000000	43.177160
3428.000000	43.233487
3427.000000	43.290070
3426.000000	43.340446
3425.000000	43.385126
3424.000000	43.427927
3423.000000	43.470028
3422.000000	43.511492
3421.000000	43.555074
3420.000000	43.603483
3419.000000	43.655028
3418.000000	43.705194
3417.000000	43.750908
3416.000000	43.791223
3415.000000	43.827004
3414.000000	43.862732
3413.000000	43.905109
3412.000000	43.956531
3411.000000	44.013014
3410.000000	44.071255
3409.000000	44.133890
3408.000000	44.203521
3407.000000	44.274593
3406.000000	44.337085
3405.000000	44.385519
3404.000000	44.421088
3403.000000	44.449813
3402.000000	44.484064
3401.000000	44.540880
3400.000000	44.628753
3399.000000	44.737149
3398.000000	44.845050
3397.000000	44.938452
3396.000000	45.015363
3395.000000	45.078936
3394.000000	45.135371
3393.000000	45.196730
3392.000000	45.276076
3391.000000	45.376610
3390.000000	45.489758
3389.000000	45.603970
3388.000000	45.712068
3387.000000	45.811636
3386.000000	45.904136
3385.000000	45.993605
3384.000000	46.082568
3383.000000	46.170178
3382.000000	46.256351
3381.000000	46.345275
3380.000000	46.440574
3379.000000	46.540524
3378.000000	46.642174
3377.000000	46.746648
3376.000000	46.855293
3375.000000	46.963308
3374.000000	47.062844
3373.000000	47.150972
3372.000000	47.231399
3371.000000	47.311605
3370.000000	47.402007
3369.000000	47.513336
3368.000000	47.648927
3367.000000	47.801123
3366.000000	47.958595
3365.000000	48.114388
3364.000000	48.265192
3363.000000	48.408679
3362.000000	48.546655
3361.000000	48.686894
3360.000000	48.835858
3359.000000	48.991984
3358.000000	49.149908
3357.000000	49.307494
3356.000000	49.463837
3355.000000	49.614555
3354.000000	49.755852
3353.000000	49.892048
3352.000000	50.034214
3351.000000	50.191665
3350.000000	50.366685
3349.000000	50.553767
3348.000000	50.741467
3347.000000	50.918112
3346.000000	51.080652
3345.000000	51.236995
3344.000000	51.395957
3343.000000	51.557446
3342.000000	51.715225
3341.000000	51.866266
3340.000000	52.013899
3339.000000	52.163673
3338.000000	52.318787
3337.000000	52.477241
3336.000000	52.630529
3335.000000	52.767760
3334.000000	52.883513
3333.000000	52.978977
3332.000000	53.055189
3331.000000	53.107746
3330.000000	53.130188
3329.000000	53.119599
3328.000000	53.076318
3327.000000	53.002703
3326.000000	52.902455
3325.000000	52.776762
3324.000000	52.619244
3323.000000	52.416439
3322.000000	52.158379
3321.000000	51.842825
3320.000000	51.466863
3319.000000	51.021942
3318.000000	50.495950
3317.000000	49.878612
3316.000000	49.157659
3315.000000	48.314011
3314.000000	47.330885
3313.000000	46.199836
3312.000000	44.920610
3311.000000	43.500190
3310.000000	41.954957
3309.000000	40.316542
3308.000000	38.623928
3307.000000	36.914110
3306.000000	35.223110
3305.000000	33.585237
3304.000000	32.026684
3303.000000	30.562438
3302.000000	29.204722
3301.000000	27.970287
3300.000000	26.876762
3299.000000	25.934564
3298.000000	25.151780
3297.000000	24.538010
3296.000000	24.091038
3295.000000	23.790077
3294.000000	23.600018
3293.000000	23.482517
3292.000000	23.399671
3291.000000	23.312300
3290.000000	23.192756
3289.000000	23.033443
3288.000000	22.842215
3287.000000	22.633400
3286.000000	22.423014
3285.000000	22.225344
3284.000000	22.043513
3283.000000	21.865971
3282.000000	21.676277
3281.000000	21.462329
3280.000000	21.212666
3279.000000	20.913327
3278.000000	20.555535
3277.000000	20.141715
3276.000000	19.679996
3275.000000	19.176926
3274.000000	18.642831
3273.000000	18.099340
3272.000000	17.575696
3271.000000	17.101609
3270.000000	16.708104
3269.000000	16.427299
3268.000000	16.283860
3267.000000	16.292600
3266.000000	16.460766
3265.000000	16.789546
3264.000000	17.263796
3263.000000	17.843582
3262.000000	18.476053
3261.000000	19.104874
3260.000000	19.671123
3259.000000	20.116557
3258.000000	20.396446
3257.000000	20.485123
3256.000000	20.370844
3255.000000	20.046394
3254.000000	19.509877
3253.000000	18.772024
3252.000000	17.843765
3251.000000	16.735488
3250.000000	15.466946
3249.000000	14.075741
3248.000000	12.618651
3247.000000	11.163052
3246.000000	9.788663
3245.000000	8.585706
3244.000000	7.638970
3243.000000	7.007191
3242.000000	6.719714
3241.000000	6.769470
3240.000000	7.102610
3239.000000	7.630044
3238.000000	8.250398
3237.000000	8.879168
3236.000000	9.457413
3235.000000	9.951548
3234.000000	10.356857
3233.000000	10.685877
3232.000000	10.949171
3231.000000	11.148459
3230.000000	11.289757
3229.000000	11.392272
3228.000000	11.480606
3227.000000	11.575496
3226.000000	11.696130
3225.000000	11.862709
3224.000000	12.087652
3223.000000	12.369895
3222.000000	12.701912
3221.000000	13.074821
3220.000000	13.472036
3219.000000	13.866815
3218.000000	14.232705
3217.000000	14.551778
3216.000000	14.811221
3215.000000	15.001975
3214.000000	15.125589
3213.000000	15.196884
3212.000000	15.233496
3211.000000	15.248740
3210.000000	15.257817
3209.000000	15.280073
3208.000000	15.330646
3207.000000	15.415107
3206.000000	15.536140
3205.000000	15.697908
3204.000000	15.900338
3203.000000	16.136427
3202.000000	16.399967
3201.000000	16.689734
3200.000000	17.001478
3199.000000	17.324797
3198.000000	17.651062
3197.000000	17.977788
3196.000000	18.302245
3195.000000	18.617636
3194.000000	18.919601
3193.000000	19.208608
3192.000000	19.482257
3191.000000	19.732329
3190.000000	19.954055
3189.000000	20.151161
3188.000000	20.328693
3187.000000	20.488588
3186.000000	20.635013
3185.000000	20.776400
3184.000000	20.917041
3183.000000	21.053771
3182.000000	21.184288
3181.000000	21.310535
3180.000000	21.431268
3179.000000	21.538849
3178.000000	21.628469
3177.000000	21.704514
3176.000000	21.774589
3175.000000	21.844895
3174.000000	21.924657
3173.000000	22.027386
3172.000000	22.162566
3171.000000	22.333841
3170.000000	22.547158
3169.000000	22.813342
3168.000000	23.139074
3167.000000	23.520186
3166.000000	23.950368
3165.000000	24.427427
3164.000000	24.949777
3163.000000	25.515651
3162.000000	26.126217
3161.000000	26.784055
3160.000000	27.481330
3159.000000	28.195694
3158.000000	28.899327
3157.000000	29.564290
3156.000000	30.158673
3155.000000	30.647625
3154.000000	31.004299
3153.000000	31.214359
3152.000000	31.274973
3151.000000	31.195821
3150.000000	31.006576
3149.000000	30.755084
3148.000000	30.485688
3147.000000	30.223798
3146.000000	29.973506
3145.000000	29.719877
3144.000000	29.431577
3143.000000	29.067937
3142.000000	28.598389
3141.000000	28.012489
3140.000000	27.313171
3139.000000	26.512345
3138.000000	25.632868
3137.000000	24.709520
3136.000000	23.778184
3135.000000	22.868830
3134.000000	22.012138
3133.000000	21.242633
3132.000000	20.589441
3131.000000	20.069583
3130.000000	19.693993
3129.000000	19.467752
3128.000000	19.385208
3127.000000	19.429016
3126.000000	19.580088
3125.000000	19.824573
3124.000000	20.144531
3123.000000	20.518816
3122.000000	20.933148
3121.000000	21.382759
3120.000000	21.863125
3119.000000	22.362469
3118.000000	22.870248
3117.000000	23.381333
3116.000000	23.888215
3115.000000	24.375807
3114.000000	24.827536
3113.000000	25.229275
3112.000000	25.565050
3111.000000	25.819349
3110.000000	25.983919
3109.000000	26.059005
3108.000000	26.042267
3107.000000	25.926220
3106.000000	25.710908
3105.000000	25.408267
3104.000000	25.037299
3103.000000	24.620036
3102.000000	24.188051
3101.000000	23.783717
3100.000000	23.448435
3099.000000	23.213352
3098.000000	23.101869
3097.000000	23.132915
3096.000000	23.312134
3095.000000	23.631032
3094.000000	24.074494
3093.000000	24.626643
3092.000000	25.269825
3091.000000	25.982100
3090.000000	26.744824
3089.000000	27.542342
3088.000000	28.355543
3087.000000	29.164814
3086.000000	29.959108
3085.000000	30.737017
3084.000000	31.495099
3083.000000	32.223280
3082.000000	32.913816
3081.000000	33.567655
3080.000000	34.189097
3079.000000	34.781100
3078.000000	35.348282
3077.000000	35.895822
3076.000000	36.423974
3075.000000	36.928571
3074.000000	37.409221
3073.000000	37.871471
3072.000000	38.318449
3071.000000	38.748405
3070.000000	39.161720
3069.000000	39.564411
3068.000000	39.962359
3067.000000	40.356296
3066.000000	40.745089
3065.000000	41.128298
3064.000000	41.503852
3063.000000	41.868249
3062.000000	42.220541
3061.000000	42.562661
3060.000000	42.894849
3059.000000	43.215233
3058.000000	43.524783
3057.000000	43.827035
3056.000000	44.122176
3055.000000	44.406490
3054.000000	44.678254
3053.000000	44.940398
3052.000000	45.195922
3051.000000	45.445138
3050.000000	45.687814
3049.000000	45.923082
3048.000000	46.147380
3047.000000	46.356816
3046.000000	46.552791
3045.000000	46.741145
3044.000000	46.925463
3043.000000	47.106035
3042.000000	47.284847
3041.000000	47.465289
3040.000000	47.646110
3039.000000	47.821166
3038.000000	47.987199
3037.000000	48.148084
3036.000000	48.310711
3035.000000	48.480927
3034.000000	48.663382
3033.000000	48.859474
3032.000000	49.063951
3031.000000	49.268732
3030.000000	49.470834
3029.000000	49.672170
3028.000000	49.872460
3027.000000	50.069126
3026.000000	50.264576
3025.000000	50.466325
3024.000000	50.678064
3023.000000	50.896044
3022.000000	51.115803
3021.000000	51.337275
3020.000000	51.561614
3019.000000	51.787494
3018.000000	52.012699
3017.000000	52.235838
3016.000000	52.455191
3015.000000	52.669169
3014.000000	52.878849
3013.000000	53.086798
3012.000000	53.292324
3011.000000	53.490154
3010.000000	53.674136
3009.000000	53.838692
3008.000000	53.976641
3007.000000	54.079654
3006.000000	54.140425
3005.000000	54.153720
3004.000000	54.114050
3003.000000	54.015477
3002.000000	53.853256
3001.000000	53.617285
3000.000000	53.280282
2999.000000	52.789683
2998.000000	52.087817
2997.000000	51.167329
2996.000000	50.133803
2995.000000	49.212841
2994.000000	48.656716
2993.000000	48.603836
2992.000000	48.999019
2991.000000	49.647517
2990.000000	50.341192
2989.000000	50.948221
2988.000000	51.423674
2987.000000	51.775859
2986.000000	52.037695
2985.000000	52.245289
2984.000000	52.424562
2983.000000	52.588535
2982.000000	52.743957
2981.000000	52.890295
2980.000000	53.008762
2979.000000	53.060376
2978.000000	53.006930
2977.000000	52.846153
2976.000000	52.636851
2975.000000	52.493408
2974.000000	52.537749
2973.000000	52.831934
2972.000000	53.341037
2971.000000	53.959052
2970.000000	54.569464
2969.000000	55.087861
2968.000000	55.467352
2967.000000	55.689200
2966.000000	55.755454
2965.000000	55.678003
2964.000000	55.468282
2963.000000	55.131445
2962.000000	54.669775
2961.000000	54.077357
2960.000000	53.323764
2959.000000	52.346039
2958.000000	51.069279
2957.000000	49.472881
2956.000000	47.673133
2955.000000	45.958301
2954.000000	44.695139
2953.000000	44.132410
2952.000000	44.246531
2951.000000	44.769381
2950.000000	45.374240
2949.000000	45.850466
2948.000000	46.161045
2947.000000	46.390511
2946.000000	46.658310
2945.000000	47.041614
2944.000000	47.535632
2943.000000	48.073197
2942.000000	48.582150
2941.000000	49.033484
2940.000000	49.448086
2939.000000	49.876498
2938.000000	50.374512
2937.000000	50.979631
2936.000000	51.694454
2935.000000	52.490377
2934.000000	53.327462
2933.000000	54.168586
2932.000000	54.981396
2931.000000	55.742415
2930.000000	56.443459
2929.000000	57.087064
2928.000000	57.674301
2927.000000	58.203338
2926.000000	58.679294
2925.000000	59.114015
2924.000000	59.514683
2923.000000	59.880245
2922.000000	60.210221
2921.000000	60.508416
2920.000000	60.776306
2919.000000	61.012060
2918.000000	61.216918
2917.000000	61.395912
2916.000000	61.551703
2915.000000	61.684548
2914.000000	61.799083
2913.000000	61.902786
2912.000000	61.997625
2911.000000	62.080149
2910.000000	62.150036
2909.000000	62.212548
2908.000000	62.271011
2907.000000	62.324883
2906.000000	62.375753
2905.000000	62.428362
2904.000000	62.484108
2903.000000	62.540774
2902.000000	62.598757
2901.000000	62.660461
2900.000000	62.724078
2899.000000	62.782145
2898.000000	62.828579
2897.000000	62.859604
2896.000000	62.868342
2895.000000	62.845808
2894.000000	62.789267
2893.000000	62.703903
2892.000000	62.595081
2891.000000	62.465200
2890.000000	62.318322
2889.000000	62.161118
2888.000000	61.997564
2887.000000	61.829284
2886.000000	61.662717
2885.000000	61.509547
2884.000000	61.378921
2883.000000	61.274216
2882.000000	61.198397
2881.000000	61.155920
2880.000000	61.147321
2879.000000	61.167593
2878.000000	61.210774
2877.000000	61.271026
2876.000000	61.339778
2875.000000	61.409352
2874.000000	61.480358
2873.000000	61.558750
2872.000000	61.644235
2871.000000	61.728685
2870.000000	61.808986
2869.000000	61.896471
2868.000000	62.012328
2867.000000	62.177968
2866.000000	62.408404
2865.000000	62.705176
2864.000000	63.051593
2863.000000	63.420463
2862.000000	63.789235
2861.000000	64.145420
2860.000000	64.480715
2859.000000	64.788065
2858.000000	65.066319
2857.000000	65.320918
2856.000000	65.557093
2855.000000	65.777308
2854.000000	65.985162
2853.000000	66.185532
2852.000000	66.379693
2851.000000	66.565873
2850.000000	66.745425
2849.000000	66.923208
2848.000000	67.101027
2847.000000	67.275830
2846.000000	67.445487
2845.000000	67.611045
2844.000000	67.772505
2843.000000	67.927429
2842.000000	68.075452
2841.000000	68.220587
2840.000000	68.367895
2839.000000	68.520839
2838.000000	68.681506
2837.000000	68.849675
2836.000000	69.021689
2835.000000	69.193696
2834.000000	69.365608
2833.000000	69.538681
2832.000000	69.710603
2831.000000	69.877202
2830.000000	70.037837
2829.000000	70.194541
2828.000000	70.346647
2827.000000	70.491264
2826.000000	70.628497
2825.000000	70.761266
2824.000000	70.890156
2823.000000	71.012793
2822.000000	71.128384
2821.000000	71.238542
2820.000000	71.343596
2819.000000	71.442326
2818.000000	71.535287
2817.000000	71.624443
2816.000000	71.709697
2815.000000	71.789435
2814.000000	71.864262
2813.000000	71.936700
2812.000000	72.007938
2811.000000	72.078603
2810.000000	72.151589
2809.000000	72.229742
2808.000000	72.311519
2807.000000	72.393026
2806.000000	72.473546
2805.000000	72.554964
2804.000000	72.636700
2803.000000	72.715969
2802.000000	72.792564
2801.000000	72.869046
2800.000000	72.946730
2799.000000	73.025483
2798.000000	73.106591
2797.000000	73.191336
2796.000000	73.277263
2795.000000	73.360202
2794.000000	73.439489
2793.000000	73.517350
2792.000000	73.594245
2791.000000	73.669204
2790.000000	73.743688
2789.000000	73.820240
2788.000000	73.897873
2787.000000	73.973444
2786.000000	74.047142
2785.000000	74.122212
2784.000000	74.199720
2783.000000	74.278151
2782.000000	74.357743
2781.000000	74.440432
2780.000000	74.525530
2779.000000	74.609840
2778.000000	74.692232
2777.000000	74.774336
2776.000000	74.856819
2775.000000	74.938548
2774.000000	75.019026
2773.000000	75.098002
2772.000000	75.173232
2771.000000	75.242438
2770.000000	75.306731
2769.000000	75.368422
2768.000000	75.426518
2767.000000	75.478102
2766.000000	75.523354
2765.000000	75.565034
2764.000000	75.603815
2763.000000	75.638379
2762.000000	75.669211
2761.000000	75.698086
2760.000000	75.724329
2759.000000	75.745584
2758.000000	75.761962
2757.000000	75.775414
2756.000000	75.785717
2755.000000	75.791142
2754.000000	75.792413
2753.000000	75.792167
2752.000000	75.791003
2751.000000	75.788111
2750.000000	75.785530
2749.000000	75.787912
2748.000000	75.798336
2747.000000	75.817915
2746.000000	75.848524
2745.000000	75.891920
2744.000000	75.946865
2743.000000	76.010268
2742.000000	76.080177
2741.000000	76.154090
2740.000000	76.225632
2739.000000	76.287653
2738.000000	76.338196
2737.000000	76.380275
2736.000000	76.417674
2735.000000	76.455140
2734.000000	76.500956
2733.000000	76.563252
2732.000000	76.643023
2731.000000	76.734076
2730.000000	76.829325
2729.000000	76.923990
2728.000000	77.013980
2727.000000	77.095917
2726.000000	77.169039
2725.000000	77.233951
2724.000000	77.290122
2723.000000	77.337623
2722.000000	77.379603
2721.000000	77.419155
2720.000000	77.455313
2719.000000	77.485830
2718.000000	77.512778
2717.000000	77.541686
2716.000000	77.576280
2715.000000	77.617921
2714.000000	77.668490
2713.000000	77.729034
2712.000000	77.796150
2711.000000	77.863826
2710.000000	77.928214
2709.000000	77.987421
2708.000000	78.038508
2707.000000	78.079209
2706.000000	78.111712
2705.000000	78.140751
2704.000000	78.168601
2703.000000	78.195410
2702.000000	78.222926
2701.000000	78.253395
2700.000000	78.285888
2699.000000	78.317728
2698.000000	78.348604
2697.000000	78.379644
2696.000000	78.409840
2695.000000	78.437684
2694.000000	78.465403
2693.000000	78.497495
2692.000000	78.535731
2691.000000	78.579036
2690.000000	78.626639
2689.000000	78.677198
2688.000000	78.726292
2687.000000	78.769197
2686.000000	78.805442
2685.000000	78.837108
2684.000000	78.864139
2683.000000	78.885416
2682.000000	78.902917
2681.000000	78.919978
2680.000000	78.936429
2679.000000	78.949811
2678.000000	78.960520
2677.000000	78.971807
2676.000000	78.985877
2675.000000	79.004160
2674.000000	79.030464
2673.000000	79.069474
2672.000000	79.122231
2671.000000	79.186904
2670.000000	79.262720
2669.000000	79.348868
2668.000000	79.441149
2667.000000	79.533744
2666.000000	79.623940
2665.000000	79.711617
2664.000000	79.795345
2663.000000	79.873412
2662.000000	79.947372
2661.000000	80.020200
2660.000000	80.091710
2659.000000	80.159679
2658.000000	80.224347
2657.000000	80.287954
2656.000000	80.350749
2655.000000	80.411300
2654.000000	80.469823
2653.000000	80.526773
2652.000000	80.579245
2651.000000	80.622622
2650.000000	80.655138
2649.000000	80.677749
2648.000000	80.690662
2647.000000	80.694358
2646.000000	80.693320
2645.000000	80.694566
2644.000000	80.702879
2643.000000	80.720310
2642.000000	80.748677
2641.000000	80.788643
2640.000000	80.837326
2639.000000	80.890567
2638.000000	80.947206
2637.000000	81.007820
2636.000000	81.070639
2635.000000	81.132568
2634.000000	81.192666
2633.000000	81.250960
2632.000000	81.305139
2631.000000	81.352479
2630.000000	81.394398
2629.000000	81.435716
2628.000000	81.480492
2627.000000	81.531462
2626.000000	81.591445
2625.000000	81.660933
2624.000000	81.735285
2623.000000	81.808138
2622.000000	81.876708
2621.000000	81.940703
2620.000000	81.998081
2619.000000	82.046287
2618.000000	82.086265
2617.000000	82.120974
2616.000000	82.150964
2615.000000	82.174729
2614.000000	82.192556
2613.000000	82.206130
2612.000000	82.215081
2611.000000	82.218140
2610.000000	82.216564
2609.000000	82.213110
2608.000000	82.208479
2607.000000	82.201864
2606.000000	82.194105
2605.000000	82.186740
2604.000000	82.179231
2603.000000	82.170697
2602.000000	82.163215
2601.000000	82.159895
2600.000000	82.160818
2599.000000	82.164129
2598.000000	82.169759
2597.000000	82.178586
2596.000000	82.189236
2595.000000	82.199439
2594.000000	82.209437
2593.000000	82.220499
2592.000000	82.231539
2591.000000	82.240627
2590.000000	82.248514
2589.000000	82.257222
2588.000000	82.266591
2587.000000	82.275760
2586.000000	82.286270
2585.000000	82.299867
2584.000000	82.314729
2583.000000	82.327829
2582.000000	82.339939
2581.000000	82.354646
2580.000000	82.374019
2579.000000	82.399008
2578.000000	82.432127
2577.000000	82.475610
2576.000000	82.527610
2575.000000	82.584178
2574.000000	82.644232
2573.000000	82.708706
2572.000000	82.776522
2571.000000	82.844913
2570.000000	82.912513
2569.000000	82.978688
2568.000000	83.040951
2567.000000	83.096898
2566.000000	83.147719
2565.000000	83.196612
2564.000000	83.245040
2563.000000	83.293783
2562.000000	83.345827
2561.000000	83.404353
2560.000000	83.468948
2559.000000	83.537232
2558.000000	83.608766
2557.000000	83.684198
2556.000000	83.762170
2555.000000	83.840348
2554.000000	83.918164
2553.000000	83.995103
2552.000000	84.068179
2551.000000	84.134667
2550.000000	84.195880
2549.000000	84.254869
2548.000000	84.312274
2547.000000	84.367636
2546.000000	84.422663
2545.000000	84.479427
2544.000000	84.536710
2543.000000	84.591882
2542.000000	84.644750
2541.000000	84.695761
2540.000000	84.742248
2539.000000	84.779950
2538.000000	84.807322
2537.000000	84.825236
2536.000000	84.834038
2535.000000	84.835125
2534.000000	84.833626
2533.000000	84.835936
2532.000000	84.845347
2531.000000	84.862846
2530.000000	84.890317
2529.000000	84.929120
2528.000000	84.976617
2527.000000	85.027393
2526.000000	85.077092
2525.000000	85.122273
2524.000000	85.158741
2523.000000	85.183690
2522.000000	85.198455
2521.000000	85.205823
2520.000000	85.206349
2519.000000	85.199528
2518.000000	85.186482
2517.000000	85.168439
2516.000000	85.143604
2515.000000	85.109572
2514.000000	85.067000
2513.000000	85.018094
2512.000000	84.963794
2511.000000	84.905136
2510.000000	84.845830
2509.000000	84.789843
2508.000000	84.737958
2507.000000	84.689781
2506.000000	84.646980
2505.000000	84.611175
2504.000000	84.580803
2503.000000	84.553995
2502.000000	84.532387
2501.000000	84.519255
2500.000000	84.515599
2499.000000	84.521498
2498.000000	84.539226
2497.000000	84.569953
2496.000000	84.610039
2495.000000	84.654136
2494.000000	84.700436
2493.000000	84.749697
2492.000000	84.800802
2491.000000	84.851898
2490.000000	84.903747
2489.000000	84.957854
2488.000000	85.013234
2487.000000	85.068734
2486.000000	85.127109
2485.000000	85.192847
2484.000000	85.267122
2483.000000	85.348571
2482.000000	85.436549
2481.000000	85.529903
2480.000000	85.624277
2479.000000	85.714561
2478.000000	85.798763
2477.000000	85.876293
2476.000000	85.944932
2475.000000	86.003452
2474.000000	86.055634
2473.000000	86.107485
2472.000000	86.162088
2471.000000	86.219857
2470.000000	86.281283
2469.000000	86.345495
2468.000000	86.407578
2467.000000	86.461643
2466.000000	86.505136
2465.000000	86.536872
2464.000000	86.553732
2463.000000	86.552911
2462.000000	86.536284
2461.000000	86.508783
2460.000000	86.473471
2459.000000	86.432466
2458.000000	86.390122
2457.000000	86.351738
2456.000000	86.320058
2455.000000	86.296277
2454.000000	86.282825
2453.000000	86.281483
2452.000000	86.290365
2451.000000	86.306161
2450.000000	86.328431
2449.000000	86.357725
2448.000000	86.391959
2447.000000	86.428143
2446.000000	86.465930
2445.000000	86.506345
2444.000000	86.548398
2443.000000	86.590898
2442.000000	86.635702
2441.000000	86.685272
2440.000000	86.738789
2439.000000	86.793843
2438.000000	86.850196
2437.000000	86.908360
2436.000000	86.966351
2435.000000	87.021716
2434.000000	87.074922
2433.000000	87.127101
2432.000000	87.175943
2431.000000	87.217611
2430.000000	87.250804
2429.000000	87.275833
2428.000000	87.291667
2427.000000	87.297487
2426.000000	87.296047
2425.000000	87.291355
2424.000000	87.284842
2423.000000	87.276742
2422.000000	87.269052
2421.000000	87.263709
2420.000000	87.259341
2419.000000	87.253830
2418.000000	87.248543
2417.000000	87.246780
2416.000000	87.249760
2415.000000	87.257807
2414.000000	87.273241
2413.000000	87.297700
2412.000000	87.328006
2411.000000	87.358274
2410.000000	87.385028
2409.000000	87.406986
2408.000000	87.421958
2407.000000	87.428127
2406.000000	87.427332
2405.000000	87.423296
2404.000000	87.417391
2403.000000	87.409363
2402.000000	87.400004
2401.000000	87.389695
2400.000000	87.375291
2399.000000	87.351545
2398.000000	87.314830
2397.000000	87.261569
2396.000000	87.185742
2395.000000	87.081821
2394.000000	86.948587
2393.000000	86.788335
2392.000000	86.602838
2391.000000	86.394888
2390.000000	86.171341
2389.000000	85.939446
2388.000000	85.702932
2387.000000	85.463744
2386.000000	85.227747
2385.000000	85.004324
2384.000000	84.800619
2383.000000	84.622150
2382.000000	84.475516
2381.000000	84.366034
2380.000000	84.291833
2379.000000	84.243104
2378.000000	84.210661
2377.000000	84.188286
2376.000000	84.169579
2375.000000	84.149880
2374.000000	84.131218
2373.000000	84.123093
2372.000000	84.131176
2371.000000	84.152345
2370.000000	84.181835
2369.000000	84.223554
2368.000000	84.278966
2367.000000	84.337282
2366.000000	84.391465
2365.000000	84.447776
2364.000000	84.500373
2363.000000	84.534008
2362.000000	84.546027
2361.000000	84.543632
2360.000000	84.545207
2359.000000	84.551814
2358.000000	84.549663
2357.000000	84.534690
2356.000000	84.492045
2355.000000	84.420967
2354.000000	84.341412
2353.000000	84.333507
2352.000000	84.463274
2351.000000	84.679539
2350.000000	84.873620
2349.000000	84.962048
2348.000000	84.969061
2347.000000	84.966039
2346.000000	84.991732
2345.000000	85.062315
2344.000000	85.136328
2343.000000	85.199966
2342.000000	85.238373
2341.000000	85.252363
2340.000000	85.243475
2339.000000	85.212902
2338.000000	85.187769
2337.000000	85.189486
2336.000000	85.236166
2335.000000	85.313074
2334.000000	85.411515
2333.000000	85.508369
2332.000000	85.611979
2331.000000	85.702764
2330.000000	85.813987
2329.000000	85.923911
2328.000000	86.027369
2327.000000	86.091313
2326.000000	86.116081
2325.000000	86.121286
2324.000000	86.113109
2323.000000	86.098122
2322.000000	86.070764
2321.000000	86.034518
2320.000000	85.997570
2319.000000	85.956266
2318.000000	85.914196
2317.000000	85.846819
2316.000000	85.751666
2315.000000	85.611830
2314.000000	85.449578
2313.000000	85.261730
2312.000000	85.064967
2311.000000	84.848106
2310.000000	84.623490
2309.000000	84.383471
2308.000000	84.136942
2307.000000	83.881243
2306.000000	83.631976
2305.000000	83.392762
2304.000000	83.175987
2303.000000	82.986485
2302.000000	82.845755
2301.000000	82.760703
2300.000000	82.737876
2299.000000	82.764352
2298.000000	82.833936
2297.000000	82.926298
2296.000000	83.024607
2295.000000	83.109631
2294.000000	83.176624
2293.000000	83.222647
2292.000000	83.246191
2291.000000	83.246767
2290.000000	83.227523
2289.000000	83.190756
2288.000000	83.132528
2287.000000	83.050188
2286.000000	82.943998
2285.000000	82.815000
2284.000000	82.660407
2283.000000	82.483629
2282.000000	82.299489
2281.000000	82.130342
2280.000000	81.995109
2279.000000	81.907652
2278.000000	81.876888
2277.000000	81.902833
2276.000000	81.977119
2275.000000	82.091959
2274.000000	82.247827
2273.000000	82.446295
2272.000000	82.681869
2271.000000	82.942780
2270.000000	83.217821
2269.000000	83.495331
2268.000000	83.763518
2267.000000	84.015280
2266.000000	84.251664
2265.000000	84.474444
2264.000000	84.681446
2263.000000	84.871429
2262.000000	85.047628
2261.000000	85.214314
2260.000000	85.370906
2259.000000	85.518412
2258.000000	85.662569
2257.000000	85.810084
2256.000000	85.964139
2255.000000	86.127839
2254.000000	86.307840
2253.000000	86.507312
2252.000000	86.722661
2251.000000	86.947180
2250.000000	87.177477
2249.000000	87.408618
2248.000000	87.633792
2247.000000	87.848512
2246.000000	88.054721
2245.000000	88.255007
2244.000000	88.448083
2243.000000	88.633011
2242.000000	88.812189
2241.000000	88.986641
2240.000000	89.152343
2239.000000	89.305640
2238.000000	89.447272
2237.000000	89.577815
2236.000000	89.693879
2235.000000	89.792509
2234.000000	89.875317
2233.000000	89.945283
2232.000000	90.003449
2231.000000	90.051916
2230.000000	90.095036
2229.000000	90.134518
2228.000000	90.167605
2227.000000	90.192123
2226.000000	90.209323
2225.000000	90.218924
2224.000000	90.217320
2223.000000	90.203747
2222.000000	90.183670
2221.000000	90.163217
2220.000000	90.144765
2219.000000	90.130681
2218.000000	90.125731
2217.000000	90.132138
2216.000000	90.146493
2215.000000	90.164416
2214.000000	90.183492
2213.000000	90.199377
2212.000000	90.204834
2211.000000	90.196760
2210.000000	90.180160
2209.000000	90.162754
2208.000000	90.150243
2207.000000	90.148419
2206.000000	90.162879
2205.000000	90.192004
2204.000000	90.224901
2203.000000	90.250192
2202.000000	90.263566
2201.000000	90.266338
2200.000000	90.264005
2199.000000	90.270390
2198.000000	90.305546
2197.000000	90.383080
2196.000000	90.501207
2195.000000	90.648049
2194.000000	90.810159
2193.000000	90.973603
2192.000000	91.124903
2191.000000	91.256774
2190.000000	91.369721
2189.000000	91.464895
2188.000000	91.540148
2187.000000	91.595801
2186.000000	91.638028
2185.000000	91.673201
2184.000000	91.703194
2183.000000	91.728942
2182.000000	91.752745
2181.000000	91.774045
2180.000000	91.788396
2179.000000	91.793818
2178.000000	91.793478
2177.000000	91.789559
2176.000000	91.780450
2175.000000	91.766707
2174.000000	91.753813
2173.000000	91.745767
2172.000000	91.741560
2171.000000	91.740982
2170.000000	91.747734
2169.000000	91.763395
2168.000000	91.783847
2167.000000	91.805389
2166.000000	91.828777
2165.000000	91.853942
2164.000000	91.876874
2163.000000	91.895959
2162.000000	91.915983
2161.000000	91.942210
2160.000000	91.975524
2159.000000	92.016236
2158.000000	92.066432
2157.000000	92.124658
2156.000000	92.183905
2155.000000	92.238671
2154.000000	92.289296
2153.000000	92.336584
2152.000000	92.378249
2151.000000	92.413768
2150.000000	92.447031
2149.000000	92.480494
2148.000000	92.511890
2147.000000	92.540005
2146.000000	92.567802
2145.000000	92.596469
2144.000000	92.622627
2143.000000	92.644348
2142.000000	92.663776
2141.000000	92.681532
2140.000000	92.693709
2139.000000	92.697094
2138.000000	92.692005
2137.000000	92.678508
2136.000000	92.656605
2135.000000	92.633018
2134.000000	92.620965
2133.000000	92.629991
2132.000000	92.660587
2131.000000	92.709776
2130.000000	92.774812
2129.000000	92.848443
2128.000000	92.918024
2127.000000	92.973852
2126.000000	93.013325
2125.000000	93.034526
2124.000000	93.033125
2123.000000	93.008201
2122.000000	92.964225
2121.000000	92.904657
2120.000000	92.830443
2119.000000	92.746941
2118.000000	92.665229
2117.000000	92.592937
2116.000000	92.529670
2115.000000	92.474164
2114.000000	92.428510
2113.000000	92.392408
2112.000000	92.360267
2111.000000	92.327926
2110.000000	92.296303
2109.000000	92.265785
2108.000000	92.233645
2107.000000	92.200423
2106.000000	92.172496
2105.000000	92.155598
2104.000000	92.151461
2103.000000	92.162803
2102.000000	92.194549
2101.000000	92.245744
2100.000000	92.307905
2099.000000	92.373295
2098.000000	92.439542
2097.000000	92.504108
2096.000000	92.561191
2095.000000	92.609434
2094.000000	92.653524
2093.000000	92.694525
2092.000000	92.726791
2091.000000	92.748290
2090.000000	92.766556
2089.000000	92.791339
2088.000000	92.828848
2087.000000	92.886661
2086.000000	92.974313
2085.000000	93.093957
2084.000000	93.237407
2083.000000	93.394907
2082.000000	93.559538
2081.000000	93.721162
2080.000000	93.866906
2079.000000	93.992071
2078.000000	94.102988
2077.000000	94.205774
2076.000000	94.299832
2075.000000	94.387481
2074.000000	94.475782
2073.000000	94.567023
2072.000000	94.656376
2071.000000	94.739517
2070.000000	94.818445
2069.000000	94.894213
2068.000000	94.962167
2067.000000	95.018162
2066.000000	95.063480
2065.000000	95.101483
2064.000000	95.134901
2063.000000	95.168648
2062.000000	95.207764
2061.000000	95.250626
2060.000000	95.291538
2059.000000	95.331493
2058.000000	95.377858
2057.000000	95.432474
2056.000000	95.489575
2055.000000	95.547094
2054.000000	95.608765
2053.000000	95.674405
2052.000000	95.738159
2051.000000	95.795979
2050.000000	95.848941
2049.000000	95.897750
2048.000000	95.939576
2047.000000	95.973739
2046.000000	96.006676
2045.000000	96.044997
2044.000000	96.088984
2043.000000	96.137093
2042.000000	96.191137
2041.000000	96.252013
2040.000000	96.315484
2039.000000	96.376759
2038.000000	96.433051
2037.000000	96.479321
2036.000000	96.509053
2035.000000	96.523682
2034.000000	96.534253
2033.000000	96.549676
2032.000000	96.571596
2031.000000	96.604122
2030.000000	96.655375
2029.000000	96.727581
2028.000000	96.811095
2027.000000	96.895179
2026.000000	96.975883
2025.000000	97.048966
2024.000000	97.106968
2023.000000	97.142975
2022.000000	97.159150
2021.000000	97.161185
2020.000000	97.149230
2019.000000	97.121827
2018.000000	97.085683
2017.000000	97.054563
2016.000000	97.039635
2015.000000	97.046197
2014.000000	97.074213
2013.000000	97.116323
2012.000000	97.159341
2011.000000	97.195414
2010.000000	97.226623
2009.000000	97.254906
2008.000000	97.274666
2007.000000	97.283617
2006.000000	97.288998
2005.000000	97.295716
2004.000000	97.301693
2003.000000	97.303109
2002.000000	97.306687
2001.000000	97.317526
2000.000000	97.333768
1999.000000	97.358748
1998.000000	97.395536
1997.000000	97.444455
1996.000000	97.504284
1995.000000	97.571058
1994.000000	97.631764
1993.000000	97.669825
1992.000000	97.681892
1991.000000	97.682058
1990.000000	97.681775
1989.000000	97.675654
1988.000000	97.653282
1987.000000	97.617443
1986.000000	97.584500
1985.000000	97.567806
1984.000000	97.571906
1983.000000	97.597749
1982.000000	97.646829
1981.000000	97.711494
1980.000000	97.778497
1979.000000	97.839724
1978.000000	97.885306
1977.000000	97.908387
1976.000000	97.914213
1975.000000	97.919368
1974.000000	97.935994
1973.000000	97.967896
1972.000000	98.020152
1971.000000	98.098174
1970.000000	98.194939
1969.000000	98.292308
1968.000000	98.378081
1967.000000	98.454250
1966.000000	98.526886
1965.000000	98.596009
1964.000000	98.656085
1963.000000	98.698371
1962.000000	98.713937
1961.000000	98.703701
1960.000000	98.683690
1959.000000	98.668603
1958.000000	98.653837
1957.000000	98.624486
1956.000000	98.577051
1955.000000	98.523419
1954.000000	98.471291
1953.000000	98.421162
1952.000000	98.373592
1951.000000	98.330754
1950.000000	98.299117
1949.000000	98.275484
1948.000000	98.251628
1947.000000	98.232014
1946.000000	98.226714
1945.000000	98.233415
1944.000000	98.238569
1943.000000	98.241205
1942.000000	98.263467
1941.000000	98.325483
1940.000000	98.427862
1939.000000	98.558247
1938.000000	98.698996
1937.000000	98.837729
1936.000000	98.974362
1935.000000	99.111442
1934.000000	99.237421
1933.000000	99.338352
1932.000000	99.408356
1931.000000	99.451071
1930.000000	99.482268
1929.000000	99.496795
1928.000000	99.490056
1927.000000	99.475444
1926.000000	99.473947
1925.000000	99.489948
1924.000000	99.491775
1923.000000	99.474228
1922.000000	99.474473
1921.000000	99.509362
1920.000000	99.547780
1919.000000	99.549262
1918.000000	99.519197
1917.000000	99.495873
1916.000000	99.486135
1915.000000	99.477371
1914.000000	99.463785
1913.000000	99.443909
1912.000000	99.415046
1911.000000	99.384162
1910.000000	99.371124
1909.000000	99.373728
1908.000000	99.382018
1907.000000	99.394765
1906.000000	99.419603
1905.000000	99.452485
1904.000000	99.454473
1903.000000	99.415273
1902.000000	99.364228
1901.000000	99.305808
1900.000000	99.224573
1899.000000	99.130666
1898.000000	99.059774
1897.000000	99.028642
1896.000000	99.009479
1895.000000	98.993449
1894.000000	99.015815
1893.000000	99.090358
1892.000000	99.178246
1891.000000	99.241879
1890.000000	99.288236
1889.000000	99.343996
1888.000000	99.409560
1887.000000	99.476455
1886.000000	99.548090
1885.000000	99.614588
1884.000000	99.654441
1883.000000	99.679699
1882.000000	99.729221
1881.000000	99.800410
1880.000000	99.860700
1879.000000	99.904140
1878.000000	99.949108
1877.000000	100.003690
1876.000000	100.044275
1875.000000	100.052782
1874.000000	100.054306
1873.000000	100.074907
1872.000000	100.098845
1871.000000	100.100555
1870.000000	100.081905
1869.000000	100.071157
1868.000000	100.086759
1867.000000	100.130103
1866.000000	100.205943
1865.000000	100.296317
1864.000000	100.356288
1863.000000	100.373364
1862.000000	100.389187
1861.000000	100.432769
1860.000000	100.486444
1859.000000	100.542411
1858.000000	100.632476
1857.000000	100.766895
1856.000000	100.906990
1855.000000	101.023382
1854.000000	101.138491
1853.000000	101.254577
1852.000000	101.353559
1851.000000	101.448215
1850.000000	101.546715
1849.000000	101.641468
1848.000000	101.721409
1847.000000	101.801588
1846.000000	101.889781
1845.000000	101.951703
1844.000000	101.984316
1843.000000	102.033327
1842.000000	102.110306
1841.000000	102.176067
1840.000000	102.203632
1839.000000	102.194081
1838.000000	102.185302
1837.000000	102.213205
1836.000000	102.263428
1835.000000	102.325326
1834.000000	102.412730
1833.000000	102.520726
1832.000000	102.630671
1831.000000	102.710733
1830.000000	102.750728
1829.000000	102.802464
1828.000000	102.894464
1827.000000	102.998710
1826.000000	103.071321
1825.000000	103.113619
1824.000000	103.169453
1823.000000	103.258961
1822.000000	103.372938
1821.000000	103.501305
1820.000000	103.635030
1819.000000	103.753472
1818.000000	103.861414
1817.000000	103.983744
1816.000000	104.098167
1815.000000	104.176553
1814.000000	104.226304
1813.000000	104.274074
1812.000000	104.317887
1811.000000	104.328461
1810.000000	104.346186
1809.000000	104.422796
1808.000000	104.518880
1807.000000	104.582405
1806.000000	104.634282
1805.000000	104.711848
1804.000000	104.781381
1803.000000	104.809426
1802.000000	104.815541
1801.000000	104.844946
1800.000000	104.905131
1799.000000	104.959638
1798.000000	105.012292
1797.000000	105.069958
1796.000000	105.098841
1795.000000	105.092509
1794.000000	105.076731
1793.000000	105.075186
1792.000000	105.099809
1791.000000	105.139497
1790.000000	105.195833
1789.000000	105.268615
1788.000000	105.328530
1787.000000	105.354455
1786.000000	105.377655
1785.000000	105.437025
1784.000000	105.504283
1783.000000	105.564755
1782.000000	105.614964
1781.000000	105.645132
1780.000000	105.676432
1779.000000	105.717677
1778.000000	105.775019
1777.000000	105.827556
1776.000000	105.872526
1775.000000	105.945702
1774.000000	106.035786
1773.000000	106.107643
1772.000000	106.218318
1771.000000	106.384851
1770.000000	106.537307
1769.000000	106.666148
1768.000000	106.783145
1767.000000	106.874271
1766.000000	106.936708
1765.000000	107.005175
1764.000000	107.101629
1763.000000	107.189266
1762.000000	107.230594
1761.000000	107.279531
1760.000000	107.368918
1759.000000	107.452465
1758.000000	107.491998
1757.000000	107.466220
1756.000000	107.442106
1755.000000	107.455304
1754.000000	107.456716
1753.000000	107.422333
1752.000000	107.389587
1751.000000	107.397503
1750.000000	107.435252
1749.000000	107.464769
1748.000000	107.476236
1747.000000	107.500790
1746.000000	107.502528
1745.000000	107.450759
1744.000000	107.380904
1743.000000	107.308761
1742.000000	107.228797
1741.000000	107.158651
1740.000000	107.114408
1739.000000	107.090919
1738.000000	107.078994
1737.000000	107.090568
1736.000000	107.129520
1735.000000	107.104192
1734.000000	107.079873
1733.000000	107.180478
1732.000000	107.278668
1731.000000	107.271937
1730.000000	107.210504
1729.000000	107.126885
1728.000000	107.053421
1727.000000	107.016078
1726.000000	106.976919
1725.000000	106.918969
1724.000000	106.846083
1723.000000	106.751504
1722.000000	106.677359
1721.000000	106.654223
1720.000000	106.643280
1719.000000	106.535805
1718.000000	106.369629
1717.000000	106.361591
1716.000000	106.459473
1715.000000	106.479533
1714.000000	106.469177
1713.000000	106.509724
1712.000000	106.541778
1711.000000	106.525490
1710.000000	106.526338
1709.000000	106.580919
1708.000000	106.653238
1707.000000	106.701339
1706.000000	106.748482
1705.000000	106.842812
1704.000000	106.937733
1703.000000	107.022579
1702.000000	107.143381
1701.000000	107.221474
1700.000000	107.282850
1699.000000	107.351039
1698.000000	107.415723
1697.000000	107.517603
1696.000000	107.594962
1695.000000	107.616548
1694.000000	107.623988
1693.000000	107.599057
1692.000000	107.536733
1691.000000	107.434513
1690.000000	107.311738
1689.000000	107.186951
1688.000000	107.101985
1687.000000	107.082678
1686.000000	107.059321
1685.000000	106.889771
1684.000000	106.719599
1683.000000	106.757779
1682.000000	106.822358
1681.000000	106.731078
1680.000000	106.550786
1679.000000	106.391758
1678.000000	106.277604
1677.000000	106.145298
1676.000000	105.954056
1675.000000	105.788747
1674.000000	105.654352
1673.000000	105.469130
1672.000000	105.251126
1671.000000	105.031695
1670.000000	104.809427
1669.000000	104.583692
1668.000000	104.373105
1667.000000	104.180242
1666.000000	103.957656
1665.000000	103.667477
1664.000000	103.288969
1663.000000	102.885806
1662.000000	102.535210
1661.000000	102.172531
1660.000000	101.768619
1659.000000	101.365982
1658.000000	100.944717
1657.000000	100.496827
1656.000000	100.084049
1655.000000	99.662545
1654.000000	98.857006
1653.000000	97.824694
1652.000000	97.006928
1651.000000	96.212362
1650.000000	95.251603
1649.000000	94.108303
1648.000000	92.575357
1647.000000	90.596770
1646.000000	88.462631
1645.000000	86.409672
1644.000000	84.392087
1643.000000	82.343303
1642.000000	80.277852
1641.000000	78.262340
1640.000000	76.478115
1639.000000	75.076201
1638.000000	74.092350
1637.000000	73.478895
1636.000000	73.309582
1635.000000	73.705736
1634.000000	74.462203
1633.000000	75.305260
1632.000000	76.169836
1631.000000	77.105062
1630.000000	78.127808
1629.000000	79.201203
1628.000000	80.277263
1627.000000	81.326608
1626.000000	82.313890
1625.000000	83.235950
1624.000000	84.152121
1623.000000	85.118257
1622.000000	86.066986
1621.000000	86.868039
1620.000000	87.556361
1619.000000	88.271330
1618.000000	89.078748
1617.000000	89.966560
1616.000000	90.900193
1615.000000	91.771161
1614.000000	92.466096
1613.000000	92.987166
1612.000000	93.395733
1611.000000	93.731290
1610.000000	93.927183
1609.000000	93.849740
1608.000000	93.427574
1607.000000	92.637429
1606.000000	91.362593
1605.000000	89.414535
1604.000000	86.745112
1603.000000	83.440963
1602.000000	79.617492
1601.000000	75.362031
1600.000000	70.626184
1599.000000	65.156519
1598.000000	58.586604
1597.000000	50.846546
1596.000000	42.569137
1595.000000	35.004090
1594.000000	29.313977
1593.000000	25.858782
1592.000000	24.258288
1591.000000	23.940276
1590.000000	24.448188
1589.000000	25.384338
1588.000000	26.393762
1587.000000	27.225681
1586.000000	27.723899
1585.000000	27.857496
1584.000000	27.789391
1583.000000	27.793397
1582.000000	28.015290
1581.000000	28.420297
1580.000000	28.982350
1579.000000	29.761722
1578.000000	30.744432
1577.000000	31.719997
1576.000000	32.443128
1575.000000	32.883983
1574.000000	33.132677
1573.000000	33.249448
1572.000000	33.354527
1571.000000	33.688974
1570.000000	34.503418
1569.000000	35.799594
1568.000000	37.411983
1567.000000	39.292646
1566.000000	41.429782
1565.000000	43.644189
1564.000000	45.693536
1563.000000	47.508224
1562.000000	49.191457
1561.000000	50.895270
1560.000000	52.846444
1559.000000	55.370734
1558.000000	58.104539
1557.000000	60.310105
1556.000000	62.039052
1555.000000	63.716128
1554.000000	65.420569
1553.000000	66.986969
1552.000000	68.352705
1551.000000	69.595391
1550.000000	70.777415
1549.000000	71.860896
1548.000000	72.811601
1547.000000	73.695328
1546.000000	74.567139
1545.000000	75.387807
1544.000000	76.123025
1543.000000	76.801960
1542.000000	77.491204
1541.000000	78.227325
1540.000000	79.026150
1539.000000	79.865879
1538.000000	80.594403
1537.000000	81.140339
1536.000000	81.609221
1535.000000	82.109524
1534.000000	82.643230
1533.000000	83.180432
1532.000000	83.692151
1531.000000	84.146912
1530.000000	84.574010
1529.000000	84.992880
1528.000000	85.369598
1527.000000	85.712584
1526.000000	86.055758
1525.000000	86.396732
1524.000000	86.729767
1523.000000	87.058926
1522.000000	87.376075
1521.000000	87.668483
1520.000000	87.903262
1519.000000	88.069753
1518.000000	88.187406
1517.000000	88.260554
1516.000000	88.294097
1515.000000	88.334114
1514.000000	88.412463
1513.000000	88.535918
1512.000000	88.669907
1511.000000	88.785732
1510.000000	88.913488
1509.000000	89.098917
1508.000000	89.299011
1507.000000	89.518359
1506.000000	89.916655
1505.000000	90.364609
1504.000000	90.626032
1503.000000	90.745606
1502.000000	90.840311
1501.000000	90.946318
1500.000000	91.061743
1499.000000	91.182622
1498.000000	91.332441
1497.000000	91.587536
1496.000000	91.942580
1495.000000	92.296174
1494.000000	92.620704
1493.000000	92.963672
1492.000000	93.335207
1491.000000	93.704162
1490.000000	94.090331
1489.000000	94.540056
1488.000000	95.002415
1487.000000	95.417956
1486.000000	95.842112
1485.000000	96.262827
1484.000000	96.635377
1483.000000	96.987602
1482.000000	97.346272
1481.000000	97.703671
1480.000000	98.027909
1479.000000	98.338646
1478.000000	98.671816
1477.000000	99.023294
1476.000000	99.345393
1475.000000	99.663504
1474.000000	100.047793
1473.000000	100.497710
1472.000000	100.969455
1471.000000	101.384073
1470.000000	101.687350
1469.000000	101.879468
1468.000000	101.959044
1467.000000	101.901378
1466.000000	101.613076
1465.000000	100.904217
1464.000000	99.657568
1463.000000	97.839446
1462.000000	95.423268
1461.000000	92.420541
1460.000000	88.888733
1459.000000	84.827482
1458.000000	80.128178
1457.000000	75.209693
1456.000000	71.124335
1455.000000	68.225385
1454.000000	65.906200
1453.000000	63.641843
1452.000000	61.412815
1451.000000	59.488168
1450.000000	58.058482
1449.000000	57.107845
1448.000000	56.518652
1447.000000	56.213596
1446.000000	56.266236
1445.000000	56.967585
1444.000000	58.682598
1443.000000	61.454304
1442.000000	64.855628
1441.000000	68.280031
1440.000000	71.318958
1439.000000	73.849836
1438.000000	75.951721
1437.000000	77.829683
1436.000000	79.640006
1435.000000	81.336367
1434.000000	82.880296
1433.000000	84.384896
1432.000000	85.904791
1431.000000	87.330594
1430.000000	88.538651
1429.000000	89.547093
1428.000000	90.405478
1427.000000	91.131718
1426.000000	91.748936
1425.000000	92.302194
1424.000000	92.860490
1423.000000	93.409488
1422.000000	93.912533
1421.000000	94.396420
1420.000000	94.893771
1419.000000	95.367663
1418.000000	95.769128
1417.000000	96.149484
1416.000000	96.561157
1415.000000	96.968121
1414.000000	97.314894
1413.000000	97.620198
1412.000000	97.935899
1411.000000	98.236210
1410.000000	98.466355
1409.000000	98.651982
1408.000000	98.808752
1407.000000	98.872032
1406.000000	98.742038
1405.000000	98.341786
1404.000000	97.670398
1403.000000	96.769885
1402.000000	95.726060
1401.000000	94.657337
1400.000000	93.664144
1399.000000	92.799666
1398.000000	92.077309
1397.000000	91.542759
1396.000000	91.322080
1395.000000	91.572898
1394.000000	92.285618
1393.000000	93.236679
1392.000000	94.188619
1391.000000	95.004663
1390.000000	95.644331
1389.000000	96.154042
1388.000000	96.637106
1387.000000	97.182163
1386.000000	97.796147
1385.000000	98.424303
1384.000000	99.024225
1383.000000	99.561915
1382.000000	100.024896
1381.000000	100.444604
1380.000000	100.853258
1379.000000	101.249149
1378.000000	101.599634
1377.000000	101.855155
1376.000000	101.935377
1375.000000	101.726336
1374.000000	101.095472
1373.000000	99.933194
1372.000000	98.132092
1371.000000	95.517403
1370.000000	91.850133
1369.000000	87.038939
1368.000000	81.499173
1367.000000	76.191704
1366.000000	72.186559
1365.000000	70.170049
1364.000000	70.268059
1363.000000	72.103088
1362.000000	74.997000
1361.000000	78.339674
1360.000000	81.791343
1359.000000	85.161065
1358.000000	88.260047
1357.000000	90.920883
1356.000000	93.079715
1355.000000	94.775710
1354.000000	96.097652
1353.000000	97.160604
1352.000000	98.058040
1351.000000	98.841072
1350.000000	99.530965
1349.000000	100.142219
1348.000000	100.704843
1347.000000	101.235252
1346.000000	101.726984
1345.000000	102.175209
1344.000000	102.588123
1343.000000	102.965544
1342.000000	103.292935
1341.000000	103.563678
1340.000000	103.791696
1339.000000	103.994740
1338.000000	104.176113
1337.000000	104.343777
1336.000000	104.519207
1335.000000	104.717071
1334.000000	104.939091
1333.000000	105.187691
1332.000000	105.462750
1331.000000	105.744519
1330.000000	105.993986
1329.000000	106.179233
1328.000000	106.274479
1327.000000	106.235483
1326.000000	105.981453
1325.000000	105.402043
1324.000000	104.386902
1323.000000	102.821678
1322.000000	100.616395
1321.000000	97.787417
1320.000000	94.503628
1319.000000	91.031651
1318.000000	87.614899
1317.000000	84.437295
1316.000000	81.727452
1315.000000	79.847497
1314.000000	79.154807
1313.000000	79.730179
1312.000000	81.252507
1311.000000	83.162765
1310.000000	85.005258
1309.000000	86.635691
1308.000000	88.175146
1307.000000	89.824862
1306.000000	91.685541
1305.000000	93.695315
1304.000000	95.684740
1303.000000	97.471902
1302.000000	98.946956
1301.000000	100.100342
1300.000000	100.971333
1299.000000	101.590159
1298.000000	101.968357
1297.000000	102.105658
1296.000000	101.987378
1295.000000	101.562851
1294.000000	100.742443
1293.000000	99.407311
1292.000000	97.454657
1291.000000	94.949582
1290.000000	92.243984
1289.000000	89.830058
1288.000000	87.944057
1287.000000	86.299289
1286.000000	84.320862
1285.000000	81.711609
1284.000000	78.755431
1283.000000	76.117316
1282.000000	74.433438
1281.000000	74.026647
1280.000000	74.864046
1279.000000	76.623769
1278.000000	78.800956
1277.000000	80.851512
1276.000000	82.240536
1275.000000	82.455755
1274.000000	81.245845
1273.000000	79.065251
1272.000000	77.206461
1271.000000	77.128368
1270.000000	79.423518
1269.000000	83.432729
1268.000000	87.850572
1267.000000	91.653610
1266.000000	94.510407
1265.000000	96.576237
1264.000000	98.125308
1263.000000	99.357383
1262.000000	100.386051
1261.000000	101.279217
1260.000000	102.076955
1259.000000	102.796119
1258.000000	103.447145
1257.000000	104.036073
1256.000000	104.562601
1255.000000	105.025996
1254.000000	105.430879
1253.000000	105.790450
1252.000000	106.117027
1251.000000	106.417101
1250.000000	106.696036
1249.000000	106.961241
1248.000000	107.220525
1247.000000	107.477474
1246.000000	107.733382
1245.000000	107.993548
1244.000000	108.263870
1243.000000	108.543225
1242.000000	108.825010
1241.000000	109.103566
1240.000000	109.372171
1239.000000	109.616934
1238.000000	109.822864
1237.000000	109.983665
1236.000000	110.099087
1235.000000	110.168425
1234.000000	110.192572
1233.000000	110.180970
1232.000000	110.143449
1231.000000	110.073636
1230.000000	109.951247
1229.000000	109.745920
1228.000000	109.414496
1227.000000	108.886467
1226.000000	108.055883
1225.000000	106.799887
1224.000000	104.979477
1223.000000	102.468213
1222.000000	99.209967
1221.000000	95.267478
1220.000000	90.850587
1219.000000	86.261506
1218.000000	81.794571
1217.000000	77.646511
1216.000000	73.880414
1215.000000	70.449708
1214.000000	67.257270
1213.000000	64.227850
1212.000000	61.358865
1211.000000	58.721973
1210.000000	56.400298
1209.000000	54.467567
1208.000000	53.002780
1207.000000	52.060373
1206.000000	51.625043
1205.000000	51.593581
1204.000000	51.854427
1203.000000	52.364865
1202.000000	53.145365
1201.000000	54.260259
1200.000000	55.769316
1199.000000	57.685078
1198.000000	59.956935
1197.000000	62.494891
1196.000000	65.225961
1195.000000	68.091600
1194.000000	71.021995
1193.000000	73.942177
1192.000000	76.789399
1191.000000	79.507887
1190.000000	82.039068
1189.000000	84.337357
1188.000000	86.383659
1187.000000	88.180140
1186.000000	89.729283
1185.000000	91.042607
1184.000000	92.150322
1183.000000	93.078533
1182.000000	93.840243
1181.000000	94.434739
1180.000000	94.861000
1179.000000	95.125057
1178.000000	95.237072
1177.000000	95.224858
1176.000000	95.131824
1175.000000	95.003548
1174.000000	94.881219
1173.000000	94.804193
1172.000000	94.810875
1171.000000	94.925231
1170.000000	95.147815
1169.000000	95.463684
1168.000000	95.850886
1167.000000	96.272065
1166.000000	96.670228
1165.000000	96.986658
1164.000000	97.184567
1163.000000	97.264066
1162.000000	97.270828
1161.000000	97.293748
1160.000000	97.432852
1159.000000	97.746990
1158.000000	98.230296
1157.000000	98.836785
1156.000000	99.518603
1155.000000	100.237849
1154.000000	100.960032
1153.000000	101.654003
1152.000000	102.289892
1151.000000	102.831013
1150.000000	103.239627
1149.000000	103.503051
1148.000000	103.641978
1147.000000	103.693725
1146.000000	103.694878
1145.000000	103.671919
1144.000000	103.636190
1143.000000	103.562928
1142.000000	103.389281
1141.000000	103.043331
1140.000000	102.458874
1139.000000	101.581808
1138.000000	100.351689
1137.000000	98.700706
1136.000000	96.565831
1135.000000	93.866540
1134.000000	90.516226
1133.000000	86.437389
1132.000000	81.604269
1131.000000	76.105459
1130.000000	70.174691
1129.000000	64.200683
1128.000000	58.685423
1127.000000	54.119849
1126.000000	50.812214
1125.000000	48.812429
1124.000000	47.933129
1123.000000	47.792873
1122.000000	47.848181
1121.000000	47.453250
1120.000000	45.996097
1119.000000	43.042523
1118.000000	38.523633
1117.000000	32.980537
1116.000000	27.637610
1115.000000	24.073699
1114.000000	23.489791
1113.000000	26.114468
1112.000000	31.201888
1111.000000	37.456340
1110.000000	43.575336
1109.000000	48.630220
1108.000000	52.160421
1107.000000	53.988079
1106.000000	53.977019
1105.000000	52.076999
1104.000000	48.729533
1103.000000	45.184732
1102.000000	43.147508
1101.000000	43.848660
1100.000000	47.333627
1099.000000	52.568210
1098.000000	58.202666
1097.000000	63.311877
1096.000000	67.571702
1095.000000	71.025437
1094.000000	73.832779
1093.000000	76.167651
1092.000000	78.185800
1091.000000	80.001342
1090.000000	81.687404
1089.000000	83.302570
1088.000000	84.905852
1087.000000	86.522273
1086.000000	88.138244
1085.000000	89.724041
1084.000000	91.241911
1083.000000	92.648823
1082.000000	93.908186
1081.000000	95.014300
1080.000000	95.982004
1079.000000	96.813664
1078.000000	97.505220
1077.000000	98.058621
1076.000000	98.474828
1075.000000	98.733992
1074.000000	98.790826
1073.000000	98.607267
1072.000000	98.135311
1071.000000	97.294129
1070.000000	95.976597
1069.000000	94.047170
1068.000000	91.367010
1067.000000	87.785685
1066.000000	83.188796
1065.000000	77.599357
1064.000000	71.227013
1063.000000	64.475834
1062.000000	57.833150
1061.000000	51.699795
1060.000000	46.244953
1059.000000	41.363960
1058.000000	36.776425
1057.000000	32.268568
1056.000000	27.932001
1055.000000	24.172707
1054.000000	21.557477
1053.000000	20.553528
1052.000000	21.382459
1051.000000	23.973716
1050.000000	27.934272
1049.000000	32.696810
1048.000000	37.689561
1047.000000	42.476867
1046.000000	46.829195
1045.000000	50.696683
1044.000000	54.140027
1043.000000	57.226455
1042.000000	59.974251
1041.000000	62.372246
1040.000000	64.436330
1039.000000	66.209422
1038.000000	67.745535
1037.000000	69.107268
1036.000000	70.350790
1035.000000	71.517049
1034.000000	72.619639
1033.000000	73.660929
1032.000000	74.647400
1031.000000	75.579285
1030.000000	76.451790
1029.000000	77.269211
1028.000000	78.053395
1027.000000	78.832798
1026.000000	79.631268
1025.000000	80.471186
1024.000000	81.368148
1023.000000	82.313137
1022.000000	83.271988
1021.000000	84.200678
1020.000000	85.056343
1019.000000	85.787659
1018.000000	86.328160
1017.000000	86.610352
1016.000000	86.542218
1015.000000	86.002835
1014.000000	84.848676
1013.000000	82.936598
1012.000000	80.175169
1011.000000	76.527174
1010.000000	72.021414
1009.000000	66.743660
1008.000000	60.866998
1007.000000	54.812134
1006.000000	49.422744
1005.000000	45.847975
1004.000000	45.003774
1003.000000	46.945298
1002.000000	50.701086
1001.000000	54.806404
1000.000000	57.990887
999.000000	59.480338
998.000000	58.970064
997.000000	56.647723
996.000000	53.332828
995.000000	50.332989
994.000000	48.824099
993.000000	49.205815
992.000000	51.029540
991.000000	53.501486
990.000000	56.048637
989.000000	58.518945
988.000000	61.015947
987.000000	63.622591
986.000000	66.285075
985.000000	68.864547
984.000000	71.232105
983.000000	73.317591
982.000000	75.110865
981.000000	76.645577
980.000000	77.971416
979.000000	79.137155
978.000000	80.176140
977.000000	81.116170
976.000000	81.981085
975.000000	82.780863
974.000000	83.517281
973.000000	84.189454
972.000000	84.799201
971.000000	85.347048
970.000000	85.832517
969.000000	86.265663
968.000000	86.664640
967.000000	87.045813
966.000000	87.420513
965.000000	87.799235
964.000000	88.191150
963.000000	88.594690
962.000000	88.998304
961.000000	89.391564
960.000000	89.767911
959.000000	90.119301
958.000000	90.436509
957.000000	90.717221
956.000000	90.965902
955.000000	91.184618
954.000000	91.374656
953.000000	91.544255
952.000000	91.706455
951.000000	91.869217
950.000000	92.034216
949.000000	92.205075
948.000000	92.386147
947.000000	92.574251
946.000000	92.761136
945.000000	92.942736
944.000000	93.117839
943.000000	93.279163
942.000000	93.416473
941.000000	93.528587
940.000000	93.622220
939.000000	93.701728
938.000000	93.769089
937.000000	93.832259
936.000000	93.903580
935.000000	93.990492
934.000000	94.096560
933.000000	94.228676
932.000000	94.392310
931.000000	94.580167
930.000000	94.774744
929.000000	94.959906
928.000000	95.121976
927.000000	95.244974
926.000000	95.318482
925.000000	95.348475
924.000000	95.352273
923.000000	95.346150
922.000000	95.345782
921.000000	95.371826
920.000000	95.440909
919.000000	95.553135
918.000000	95.697628
917.000000	95.864999
916.000000	96.043227
915.000000	96.209283
914.000000	96.339920
913.000000	96.428103
912.000000	96.478460
911.000000	96.495281
910.000000	96.487597
909.000000	96.477399
908.000000	96.487633
907.000000	96.526853
906.000000	96.596265
905.000000	96.699077
904.000000	96.825764
903.000000	96.941977
902.000000	97.008977
901.000000	97.012337
900.000000	96.953900
899.000000	96.819774
898.000000	96.572511
897.000000	96.163107
896.000000	95.564040
895.000000	94.812780
894.000000	94.009527
893.000000	93.207774
892.000000	92.282551
891.000000	91.007112
890.000000	89.368186
889.000000	87.772947
888.000000	86.801726
887.000000	86.727948
886.000000	87.321363
885.000000	88.128427
884.000000	88.862637
883.000000	89.463058
882.000000	89.926412
881.000000	90.228023
880.000000	90.399915
879.000000	90.580277
878.000000	90.924701
877.000000	91.499929
876.000000	92.262148
875.000000	93.103251
874.000000	93.909427
873.000000	94.608115
872.000000	95.182471
871.000000	95.641559
870.000000	95.986063
869.000000	96.205309
868.000000	96.294417
867.000000	96.250590
866.000000	96.065235
865.000000	95.745042
864.000000	95.334958
863.000000	94.914325
862.000000	94.569845
861.000000	94.373493
860.000000	94.365683
859.000000	94.536071
858.000000	94.821797
857.000000	95.142659
856.000000	95.442904
855.000000	95.696028
854.000000	95.890557
853.000000	96.026576
852.000000	96.117987
851.000000	96.182431
850.000000	96.231529
849.000000	96.277235
848.000000	96.337723
847.000000	96.425636
846.000000	96.536585
845.000000	96.658996
844.000000	96.785868
843.000000	96.908635
842.000000	97.009963
841.000000	97.074328
840.000000	97.100376
839.000000	97.094272
838.000000	97.059569
837.000000	97.002069
836.000000	96.935654
835.000000	96.875029
834.000000	96.828606
833.000000	96.804365
832.000000	96.812210
831.000000	96.851805
830.000000	96.907295
829.000000	96.963473
828.000000	97.018946
827.000000	97.075129
826.000000	97.122799
825.000000	97.149071
824.000000	97.147465
823.000000	97.112530
822.000000	97.037738
821.000000	96.928411
820.000000	96.805968
819.000000	96.690187
818.000000	96.585191
817.000000	96.489124
816.000000	96.398555
815.000000	96.294816
814.000000	96.132263
813.000000	95.836569
812.000000	95.299828
811.000000	94.383726
810.000000	93.001280
809.000000	91.261407
808.000000	89.525187
807.000000	88.251022
806.000000	87.731548
805.000000	87.951297
804.000000	88.668884
803.000000	89.603461
802.000000	90.546017
801.000000	91.373772
800.000000	92.022701
799.000000	92.462132
798.000000	92.676039
797.000000	92.651216
796.000000	92.372904
795.000000	91.827582
794.000000	91.014899
793.000000	89.958921
792.000000	88.722912
791.000000	87.408563
790.000000	86.137998
789.000000	85.028182
788.000000	84.167346
787.000000	83.598318
786.000000	83.313830
785.000000	83.269764
784.000000	83.400322
783.000000	83.627127
782.000000	83.863847
781.000000	84.035276
780.000000	84.104249
779.000000	84.083250
778.000000	84.030009
777.000000	84.029323
776.000000	84.165201
775.000000	84.489125
774.000000	85.000909
773.000000	85.658305
772.000000	86.400866
771.000000	87.168706
770.000000	87.912542
769.000000	88.598846
768.000000	89.209617
767.000000	89.735578
766.000000	90.172912
765.000000	90.525238
764.000000	90.804185
763.000000	91.023362
762.000000	91.194728
761.000000	91.331368
760.000000	91.447979
759.000000	91.557091
758.000000	91.665330
757.000000	91.774565
756.000000	91.883090
755.000000	91.984697
754.000000	92.070494
753.000000	92.132154
752.000000	92.161812
751.000000	92.150693
750.000000	92.093251
749.000000	91.993721
748.000000	91.863949
747.000000	91.714179
746.000000	91.549374
745.000000	91.372213
744.000000	91.183753
743.000000	90.980109
742.000000	90.753775
741.000000	90.500162
740.000000	90.220890
739.000000	89.923316
738.000000	89.619655
737.000000	89.321495
736.000000	89.027391
735.000000	88.715133
734.000000	88.351483
733.000000	87.909061
732.000000	87.373086
731.000000	86.741688
730.000000	86.032445
729.000000	85.290047
728.000000	84.578674
727.000000	83.965204
726.000000	83.511568
725.000000	83.273553
724.000000	83.287306
723.000000	83.550210
722.000000	84.023111
721.000000	84.648118
720.000000	85.355815
719.000000	86.065100
718.000000	86.699995
717.000000	87.214147
716.000000	87.595939
715.000000	87.856217
714.000000	88.018719
713.000000	88.115668
712.000000	88.176622
711.000000	88.218389
710.000000	88.250565
709.000000	88.285025
708.000000	88.331185
707.000000	88.386427
706.000000	88.441756
705.000000	88.494372
704.000000	88.544451
703.000000	88.585391
702.000000	88.611153
701.000000	88.626293
700.000000	88.636932
699.000000	88.641412
698.000000	88.638420
697.000000	88.636461
696.000000	88.641277
695.000000	88.643523
694.000000	88.635460
693.000000	88.623315
692.000000	88.609098
691.000000	88.578625
690.000000	88.523692
689.000000	88.462927
688.000000	88.415739
687.000000	88.370639
686.000000	88.309766
685.000000	88.240925
684.000000	88.179700
683.000000	88.125662
682.000000	88.081365
681.000000	88.070531
680.000000	88.104304
679.000000	88.162235
678.000000	88.229282
677.000000	88.316607
676.000000	88.426108
675.000000	88.530431
674.000000	88.622711
673.000000	88.728121
672.000000	88.836951
671.000000	88.876320
670.000000	88.823873
669.000000	88.697437
668.000000	88.495200
667.000000	88.461958
666.000000	88.722462
665.000000	88.970762
664.000000	89.078801
663.000000	89.144590
662.000000	89.243609
661.000000	89.344663
660.000000	89.402321
659.000000	89.418560
658.000000	89.395079
657.000000	89.310083
656.000000	89.171875
655.000000	89.034248
654.000000	88.937197
653.000000	88.879382
652.000000	88.867725
651.000000	88.925981
650.000000	89.040377
649.000000	89.155386
648.000000	89.240802
647.000000	89.306248
646.000000	89.344908
645.000000	89.325472
644.000000	89.245313
643.000000	89.143328
642.000000	89.050069
641.000000	88.966571
640.000000	88.905909
639.000000	88.903717
638.000000	88.969844
637.000000	89.072725
636.000000	89.184491
635.000000	89.300310
634.000000	89.406336
633.000000	89.471867
632.000000	89.484378
631.000000	89.459678
630.000000	89.410861
629.000000	89.337587
628.000000	89.251642
627.000000	89.180644
626.000000	89.138727
625.000000	89.121089
624.000000	89.128630
623.000000	89.171937
622.000000	89.243095
621.000000	89.312468
620.000000	89.361309
619.000000	89.391663
618.000000	89.406337
617.000000	89.402295
616.000000	89.382273
615.000000	89.349442
614.000000	89.293247
613.000000	89.204216
612.000000	89.097870
611.000000	89.001849
610.000000	88.930055
609.000000	88.885624
608.000000	88.878826
607.000000	88.916081
606.000000	88.976776
605.000000	89.027939
604.000000	89.048420
603.000000	89.019535
602.000000	88.906697
601.000000	88.676217
600.000000	88.320806
599.000000	87.852456
598.000000	87.279003
597.000000	86.604478
596.000000	85.844055
595.000000	85.001414
594.000000	83.995341
593.000000	82.584193
592.000000	80.365432
591.000000	77.011503
590.000000	72.727935
589.000000	68.532314
588.000000	65.869222
587.000000	65.677644
586.000000	67.681298
585.000000	70.645154
584.000000	73.413671
583.000000	75.589225
582.000000	77.325067
581.000000	78.829033
580.000000	80.175251
579.000000	81.377185
578.000000	82.423387
577.000000	83.268433
576.000000	83.884862
575.000000	84.308505
574.000000	84.583356
573.000000	84.718941
572.000000	84.735548
571.000000	84.691526
570.000000	84.629559
569.000000	84.533368
568.000000	84.383421
567.000000	84.185482
566.000000	83.903278
565.000000	83.424558
564.000000	82.642772
563.000000	81.556595
562.000000	80.264771
561.000000	78.911577
560.000000	77.649686
559.000000	76.579899
558.000000	75.677139
557.000000	74.843335
556.000000	74.095402
555.000000	73.638643
554.000000	73.701296
553.000000	74.336084
552.000000	75.413434
551.000000	76.720649
550.000000	78.016673
549.000000	79.104437
548.000000	79.919236
547.000000	80.511427
546.000000	80.932146
545.000000	81.186036
544.000000	81.292195
543.000000	81.308960
542.000000	81.272996
541.000000	81.168102
540.000000	80.990776
539.000000	80.783903
538.000000	80.581717
537.000000	80.379765
536.000000	80.185364
535.000000	80.038183
534.000000	79.947119
533.000000	79.867524
532.000000	79.755141
531.000000	79.608463
530.000000	79.430537
529.000000	79.195256
528.000000	78.876712
527.000000	78.480567
526.000000	78.007376
525.000000	77.433911
524.000000	76.758781
523.000000	76.007929
522.000000	75.187672
521.000000	74.272807
520.000000	73.255163
519.000000	72.149108
518.000000	70.932626
517.000000	69.563685
516.000000	68.100039
515.000000	66.728153
514.000000	65.638414
513.000000	64.938391
512.000000	64.683687
511.000000	64.908224
510.000000	65.565479
509.000000	66.513871
508.000000	67.616436
507.000000	68.798816
506.000000	70.000495
505.000000	71.159554
504.000000	72.273730
503.000000	73.393208
502.000000	74.511997
501.000000	75.533988
500.000000	76.382965
499.000000	77.076908
498.000000	77.655594
497.000000	78.128188
496.000000	78.514736
495.000000	78.865932
494.000000	79.211648
493.000000	79.522967
492.000000	79.773700
491.000000	79.986097
490.000000	80.170761
489.000000	80.291708
488.000000	80.308398
487.000000	80.213318
486.000000	79.984111
485.000000	79.543149
484.000000	78.818838
483.000000	77.792174
482.000000	76.458284
481.000000	74.813461
480.000000	72.933921
479.000000	70.988314
478.000000	69.109419
477.000000	67.348033
476.000000	65.798134
475.000000	64.679980
474.000000	64.194942
473.000000	64.376188
472.000000	65.122005
471.000000	66.303412
470.000000	67.791145
469.000000	69.438025
468.000000	71.133220
467.000000	72.820426
466.000000	74.434156
465.000000	75.891786
464.000000	77.150831
463.000000	78.233369
462.000000	79.157640
461.000000	79.892017
460.000000	80.410527
459.000000	80.743836
458.000000	80.953427
457.000000	81.104236
456.000000	81.267190
455.000000	81.498581
454.000000	81.802462
453.000000	82.127486
452.000000	82.433231
451.000000	82.731291
450.000000	83.017417
449.000000	83.241064
448.000000	83.373044
447.000000	83.446734
446.000000	83.493606
445.000000	83.502125
444.000000	83.466482
443.000000	83.433835
442.000000	83.447167
441.000000	83.492122
440.000000	83.557289
439.000000	83.667134
438.000000	83.815495
437.000000	83.931420
436.000000	83.967838
435.000000	83.956322
434.000000	83.911932
433.000000	83.762006
432.000000	83.434329
431.000000	82.958072
430.000000	82.423463
429.000000	81.878089
428.000000	81.367626
427.000000	81.012737
426.000000	80.906181
425.000000	80.994656
424.000000	81.180007
423.000000	81.459314
422.000000	81.836918
421.000000	82.201482
420.000000	82.414937
419.000000	82.521958
418.000000	82.676521
417.000000	82.841502
416.000000	82.933622
415.000000	83.009376
414.000000	83.125196
413.000000	83.240331
412.000000	83.321493
411.000000	83.431057
410.000000	83.611546
409.000000	83.739353
408.000000	83.677465
407.000000	83.474424
406.000000	83.267749
405.000000	83.098880
404.000000	83.007870
403.000000	83.107139
402.000000	83.440499
401.000000	83.801493
400.000000	84.001177
