PE IR       SUBTECH     SPECTRUM    ASCII       PEDS        4.00        
   -1
23ms126-cis.asc
24/10/17
15:49:30.00
24/10/17
15:49:30.00
Administrator
Sample 1292 By Administrator Date Thursday, October 17 2024
400.000000
#HDR
-1
-1
#GR
cm-1
%T
1.0
0.0
4000.000000
-1.000000
3601
8
87.427472
13.274577
#DATA
4000.000000	65.596763
3999.000000	65.584199
3998.000000	65.575085
3997.000000	65.568142
3996.000000	65.562636
3995.000000	65.558153
3994.000000	65.554001
3993.000000	65.549902
3992.000000	65.547194
3991.000000	65.548174
3990.000000	65.553564
3989.000000	65.562013
3988.000000	65.572639
3987.000000	65.586620
3986.000000	65.605743
3985.000000	65.630110
3984.000000	65.658090
3983.000000	65.688018
3982.000000	65.719229
3981.000000	65.751793
3980.000000	65.785572
3979.000000	65.820360
3978.000000	65.856707
3977.000000	65.895179
3976.000000	65.935174
3975.000000	65.974798
3974.000000	66.012465
3973.000000	66.047944
3972.000000	66.081921
3971.000000	66.115728
3970.000000	66.150377
3969.000000	66.185953
3968.000000	66.221960
3967.000000	66.257927
3966.000000	66.293861
3965.000000	66.330781
3964.000000	66.370683
3963.000000	66.415301
3962.000000	66.465280
3961.000000	66.518807
3960.000000	66.572979
3959.000000	66.627762
3958.000000	66.684889
3957.000000	66.744304
3956.000000	66.803006
3955.000000	66.857642
3954.000000	66.906768
3953.000000	66.949711
3952.000000	66.986046
3951.000000	67.016515
3950.000000	67.043645
3949.000000	67.071908
3948.000000	67.105447
3947.000000	67.143664
3946.000000	67.181460
3945.000000	67.216561
3944.000000	67.253583
3943.000000	67.295387
3942.000000	67.337207
3941.000000	67.372527
3940.000000	67.402937
3939.000000	67.439790
3938.000000	67.489640
3937.000000	67.543807
3936.000000	67.587119
3935.000000	67.614796
3934.000000	67.637767
3933.000000	67.666884
3932.000000	67.701081
3931.000000	67.731756
3930.000000	67.753892
3929.000000	67.771815
3928.000000	67.789573
3927.000000	67.807336
3926.000000	67.827239
3925.000000	67.850292
3924.000000	67.869654
3923.000000	67.875872
3922.000000	67.869773
3921.000000	67.863678
3920.000000	67.865787
3919.000000	67.872826
3918.000000	67.881462
3917.000000	67.896268
3916.000000	67.921003
3915.000000	67.948615
3914.000000	67.973934
3913.000000	68.002719
3912.000000	68.040117
3911.000000	68.083733
3910.000000	68.124766
3909.000000	68.157978
3908.000000	68.182956
3907.000000	68.195019
3906.000000	68.187574
3905.000000	68.160173
3904.000000	68.120988
3903.000000	68.081951
3902.000000	68.052429
3901.000000	68.045320
3900.000000	68.075531
3899.000000	68.139075
3898.000000	68.215241
3897.000000	68.289717
3896.000000	68.363922
3895.000000	68.444119
3894.000000	68.524073
3893.000000	68.590615
3892.000000	68.640590
3891.000000	68.683507
3890.000000	68.716387
3889.000000	68.722942
3888.000000	68.710777
3887.000000	68.720717
3886.000000	68.779877
3885.000000	68.860110
3884.000000	68.906004
3883.000000	68.903819
3882.000000	68.892972
3881.000000	68.913350
3880.000000	68.963541
3879.000000	69.009681
3878.000000	69.025268
3877.000000	69.018086
3876.000000	69.020192
3875.000000	69.054138
3874.000000	69.101317
3873.000000	69.112588
3872.000000	69.070114
3871.000000	69.021959
3870.000000	69.028064
3869.000000	69.081139
3868.000000	69.116504
3867.000000	69.109722
3866.000000	69.111027
3865.000000	69.158808
3864.000000	69.223603
3863.000000	69.262400
3862.000000	69.277541
3861.000000	69.303535
3860.000000	69.359650
3859.000000	69.442768
3858.000000	69.542363
3857.000000	69.639430
3856.000000	69.701555
3855.000000	69.692174
3854.000000	69.615010
3853.000000	69.530365
3852.000000	69.479868
3851.000000	69.458369
3850.000000	69.469246
3849.000000	69.528212
3848.000000	69.621996
3847.000000	69.719872
3846.000000	69.803059
3845.000000	69.866671
3844.000000	69.913432
3843.000000	69.946258
3842.000000	69.959833
3841.000000	69.955911
3840.000000	69.945010
3839.000000	69.937493
3838.000000	69.940394
3837.000000	69.954444
3836.000000	69.975339
3835.000000	69.998231
3834.000000	70.024656
3833.000000	70.065355
3832.000000	70.125420
3831.000000	70.193294
3830.000000	70.252294
3829.000000	70.294475
3828.000000	70.329125
3827.000000	70.378246
3826.000000	70.442552
3825.000000	70.490899
3824.000000	70.496421
3823.000000	70.476807
3822.000000	70.480850
3821.000000	70.527714
3820.000000	70.573397
3819.000000	70.568142
3818.000000	70.529047
3817.000000	70.524318
3816.000000	70.591172
3815.000000	70.686540
3814.000000	70.748157
3813.000000	70.774468
3812.000000	70.807673
3811.000000	70.868099
3810.000000	70.932451
3809.000000	70.969420
3808.000000	70.988179
3807.000000	71.022759
3806.000000	71.069251
3805.000000	71.087452
3804.000000	71.062200
3803.000000	71.039806
3802.000000	71.068909
3801.000000	71.131400
3800.000000	71.164586
3799.000000	71.147433
3798.000000	71.127104
3797.000000	71.155021
3796.000000	71.229811
3795.000000	71.308272
3794.000000	71.363927
3793.000000	71.408327
3792.000000	71.460380
3791.000000	71.520373
3790.000000	71.575691
3789.000000	71.617412
3788.000000	71.646843
3787.000000	71.668841
3786.000000	71.689052
3785.000000	71.712583
3784.000000	71.736937
3783.000000	71.751944
3782.000000	71.754823
3781.000000	71.757762
3780.000000	71.774105
3779.000000	71.802791
3778.000000	71.828764
3777.000000	71.843306
3776.000000	71.857890
3775.000000	71.891608
3774.000000	71.942471
3773.000000	71.984223
3772.000000	72.002574
3771.000000	72.017020
3770.000000	72.046455
3769.000000	72.077230
3768.000000	72.087807
3767.000000	72.089125
3766.000000	72.117733
3765.000000	72.183577
3764.000000	72.253136
3763.000000	72.293246
3762.000000	72.313344
3761.000000	72.348087
3760.000000	72.400544
3759.000000	72.446095
3758.000000	72.477507
3757.000000	72.507065
3756.000000	72.536883
3755.000000	72.556913
3754.000000	72.571070
3753.000000	72.592893
3752.000000	72.611128
3751.000000	72.605844
3750.000000	72.597456
3749.000000	72.617421
3748.000000	72.642605
3747.000000	72.636699
3746.000000	72.622457
3745.000000	72.663509
3744.000000	72.770904
3743.000000	72.869189
3742.000000	72.900401
3741.000000	72.900970
3740.000000	72.925153
3739.000000	72.970988
3738.000000	73.009940
3737.000000	73.043374
3736.000000	73.094098
3735.000000	73.143101
3734.000000	73.158443
3733.000000	73.164716
3732.000000	73.208193
3731.000000	73.286084
3730.000000	73.353606
3729.000000	73.389502
3728.000000	73.422361
3727.000000	73.483142
3726.000000	73.558954
3725.000000	73.612491
3724.000000	73.639088
3723.000000	73.665048
3722.000000	73.705653
3721.000000	73.758312
3720.000000	73.811789
3719.000000	73.864087
3718.000000	73.923959
3717.000000	73.989974
3716.000000	74.044428
3715.000000	74.072218
3714.000000	74.083627
3713.000000	74.100507
3712.000000	74.126351
3711.000000	74.149925
3710.000000	74.172070
3709.000000	74.208918
3708.000000	74.271259
3707.000000	74.354025
3706.000000	74.441909
3705.000000	74.522674
3704.000000	74.593959
3703.000000	74.660777
3702.000000	74.725825
3701.000000	74.786927
3700.000000	74.834785
3699.000000	74.864295
3698.000000	74.893111
3697.000000	74.944207
3696.000000	75.010890
3695.000000	75.063116
3694.000000	75.090141
3693.000000	75.111396
3692.000000	75.140416
3691.000000	75.162757
3690.000000	75.164420
3689.000000	75.165931
3688.000000	75.197092
3687.000000	75.247007
3686.000000	75.287709
3685.000000	75.324556
3684.000000	75.377686
3683.000000	75.446065
3682.000000	75.510607
3681.000000	75.562813
3680.000000	75.609778
3679.000000	75.634973
3678.000000	75.612921
3677.000000	75.568024
3676.000000	75.565030
3675.000000	75.617237
3674.000000	75.650517
3673.000000	75.610753
3672.000000	75.550096
3671.000000	75.565923
3670.000000	75.673961
3669.000000	75.795640
3668.000000	75.873014
3667.000000	75.918185
3666.000000	75.965232
3665.000000	76.031653
3664.000000	76.108819
3663.000000	76.181611
3662.000000	76.242593
3661.000000	76.287618
3660.000000	76.312823
3659.000000	76.315220
3658.000000	76.306774
3657.000000	76.314560
3656.000000	76.350562
3655.000000	76.385185
3654.000000	76.372410
3653.000000	76.310495
3652.000000	76.253037
3651.000000	76.245269
3650.000000	76.269417
3649.000000	76.285582
3648.000000	76.306936
3647.000000	76.365180
3646.000000	76.448909
3645.000000	76.531187
3644.000000	76.610249
3643.000000	76.702192
3642.000000	76.805460
3641.000000	76.896347
3640.000000	76.959845
3639.000000	77.004690
3638.000000	77.041890
3637.000000	77.065328
3636.000000	77.071402
3635.000000	77.077016
3634.000000	77.093358
3633.000000	77.095921
3632.000000	77.049260
3631.000000	76.965636
3630.000000	76.909211
3629.000000	76.923354
3628.000000	76.971680
3627.000000	76.994153
3626.000000	76.981620
3625.000000	76.968700
3624.000000	76.977542
3623.000000	76.991089
3622.000000	76.982250
3621.000000	76.950194
3620.000000	76.909035
3619.000000	76.859927
3618.000000	76.793049
3617.000000	76.702395
3616.000000	76.596807
3615.000000	76.499368
3614.000000	76.425290
3613.000000	76.361773
3612.000000	76.280329
3611.000000	76.170653
3610.000000	76.058694
3609.000000	75.981288
3608.000000	75.938640
3607.000000	75.896590
3606.000000	75.829774
3605.000000	75.742475
3604.000000	75.652964
3603.000000	75.570624
3602.000000	75.495809
3601.000000	75.430640
3600.000000	75.371803
3599.000000	75.306989
3598.000000	75.232283
3597.000000	75.155438
3596.000000	75.086867
3595.000000	75.027638
3594.000000	74.968155
3593.000000	74.896645
3592.000000	74.805222
3591.000000	74.696143
3590.000000	74.593052
3589.000000	74.534305
3588.000000	74.536897
3587.000000	74.575581
3586.000000	74.610378
3585.000000	74.624736
3584.000000	74.625487
3583.000000	74.622802
3582.000000	74.618774
3581.000000	74.609532
3580.000000	74.590491
3579.000000	74.557948
3578.000000	74.513154
3577.000000	74.462006
3576.000000	74.409234
3575.000000	74.355241
3574.000000	74.296480
3573.000000	74.226506
3572.000000	74.136500
3571.000000	74.017195
3570.000000	73.871591
3569.000000	73.725631
3568.000000	73.610144
3567.000000	73.528119
3566.000000	73.454861
3565.000000	73.369356
3564.000000	73.271527
3563.000000	73.172946
3562.000000	73.079733
3561.000000	72.986683
3560.000000	72.883997
3559.000000	72.764852
3558.000000	72.628533
3557.000000	72.478753
3556.000000	72.318838
3555.000000	72.150376
3554.000000	71.976412
3553.000000	71.801265
3552.000000	71.624595
3551.000000	71.437538
3550.000000	71.230569
3549.000000	71.007263
3548.000000	70.782163
3547.000000	70.565010
3546.000000	70.351633
3545.000000	70.132638
3544.000000	69.903794
3543.000000	69.666181
3542.000000	69.421024
3541.000000	69.168295
3540.000000	68.905963
3539.000000	68.629611
3538.000000	68.336201
3537.000000	68.026742
3536.000000	67.703556
3535.000000	67.365033
3534.000000	67.007991
3533.000000	66.633669
3532.000000	66.245839
3531.000000	65.843606
3530.000000	65.420917
3529.000000	64.975699
3528.000000	64.512900
3527.000000	64.036466
3526.000000	63.544924
3525.000000	63.037631
3524.000000	62.517952
3523.000000	61.987098
3522.000000	61.440671
3521.000000	60.874684
3520.000000	60.290596
3519.000000	59.691095
3518.000000	59.075203
3517.000000	58.440261
3516.000000	57.786404
3515.000000	57.116145
3514.000000	56.430857
3513.000000	55.729822
3512.000000	55.011632
3511.000000	54.274962
3510.000000	53.520763
3509.000000	52.755400
3508.000000	51.986465
3507.000000	51.214020
3506.000000	50.430139
3505.000000	49.628513
3504.000000	48.811237
3503.000000	47.985982
3502.000000	47.160471
3501.000000	46.340139
3500.000000	45.526160
3499.000000	44.713687
3498.000000	43.896106
3497.000000	43.072381
3496.000000	42.247897
3495.000000	41.428184
3494.000000	40.615937
3493.000000	39.814121
3492.000000	39.026175
3491.000000	38.251621
3490.000000	37.486853
3489.000000	36.732810
3488.000000	35.997512
3487.000000	35.288811
3486.000000	34.608417
3485.000000	33.953415
3484.000000	33.318341
3483.000000	32.696021
3482.000000	32.082538
3481.000000	31.483063
3480.000000	30.907629
3479.000000	30.359101
3478.000000	29.830168
3477.000000	29.312057
3476.000000	28.800310
3475.000000	28.292770
3474.000000	27.788331
3473.000000	27.289568
3472.000000	26.802261
3471.000000	26.331535
3470.000000	25.883564
3469.000000	25.469977
3468.000000	25.104830
3467.000000	24.795991
3466.000000	24.543379
3465.000000	24.345610
3464.000000	24.202274
3463.000000	24.111342
3462.000000	24.071726
3461.000000	24.087474
3460.000000	24.164049
3459.000000	24.299012
3458.000000	24.481108
3457.000000	24.698433
3456.000000	24.941058
3455.000000	25.197090
3454.000000	25.453010
3453.000000	25.697931
3452.000000	25.922757
3451.000000	26.115293
3450.000000	26.260749
3449.000000	26.348671
3448.000000	26.375212
3447.000000	26.339078
3446.000000	26.241616
3445.000000	26.088344
3444.000000	25.886451
3443.000000	25.641535
3442.000000	25.359152
3441.000000	25.050120
3440.000000	24.728909
3439.000000	24.408173
3438.000000	24.099767
3437.000000	23.818441
3436.000000	23.578826
3435.000000	23.388159
3434.000000	23.245868
3433.000000	23.149622
3432.000000	23.099723
3431.000000	23.098342
3430.000000	23.150469
3429.000000	23.265189
3428.000000	23.449293
3427.000000	23.703201
3426.000000	24.024044
3425.000000	24.411512
3424.000000	24.867803
3423.000000	25.391206
3422.000000	25.978052
3421.000000	26.626308
3420.000000	27.332797
3419.000000	28.089685
3418.000000	28.885494
3417.000000	29.711350
3416.000000	30.561094
3415.000000	31.427687
3414.000000	32.304724
3413.000000	33.188090
3412.000000	34.073194
3411.000000	34.952172
3410.000000	35.817356
3409.000000	36.665779
3408.000000	37.496166
3407.000000	38.303314
3406.000000	39.080305
3405.000000	39.824471
3404.000000	40.537435
3403.000000	41.222151
3402.000000	41.883237
3401.000000	42.527817
3400.000000	43.161000
3399.000000	43.780278
3398.000000	44.378477
3397.000000	44.951152
3396.000000	45.498032
3395.000000	46.020738
3394.000000	46.522699
3393.000000	47.010712
3392.000000	47.491930
3391.000000	47.968553
3390.000000	48.439013
3389.000000	48.901973
3388.000000	49.356732
3387.000000	49.801507
3386.000000	50.234979
3385.000000	50.659106
3384.000000	51.076931
3383.000000	51.489193
3382.000000	51.895821
3381.000000	52.298859
3380.000000	52.700820
3379.000000	53.101559
3378.000000	53.499848
3377.000000	53.896596
3376.000000	54.292966
3375.000000	54.686850
3374.000000	55.074470
3373.000000	55.454732
3372.000000	55.829384
3371.000000	56.199931
3370.000000	56.567500
3369.000000	56.934232
3368.000000	57.301708
3367.000000	57.668514
3366.000000	58.031777
3365.000000	58.390556
3364.000000	58.745582
3363.000000	59.096978
3362.000000	59.444630
3361.000000	59.789420
3360.000000	60.131802
3359.000000	60.470134
3358.000000	60.802651
3357.000000	61.130065
3356.000000	61.453626
3355.000000	61.772390
3354.000000	62.084869
3353.000000	62.392218
3352.000000	62.697321
3351.000000	63.001331
3350.000000	63.303135
3349.000000	63.601267
3348.000000	63.894166
3347.000000	64.179652
3346.000000	64.456648
3345.000000	64.726854
3344.000000	64.992697
3343.000000	65.254270
3342.000000	65.510270
3341.000000	65.760660
3340.000000	66.006506
3339.000000	66.248048
3338.000000	66.484501
3337.000000	66.715258
3336.000000	66.939087
3335.000000	67.153217
3334.000000	67.355280
3333.000000	67.544905
3332.000000	67.722132
3331.000000	67.884709
3330.000000	68.029043
3329.000000	68.153486
3328.000000	68.257838
3327.000000	68.341115
3326.000000	68.401087
3325.000000	68.435323
3324.000000	68.441313
3323.000000	68.414768
3322.000000	68.350938
3321.000000	68.246637
3320.000000	68.098859
3319.000000	67.903959
3318.000000	67.656670
3317.000000	67.352098
3316.000000	66.984788
3315.000000	66.546419
3314.000000	66.028441
3313.000000	65.423012
3312.000000	64.722451
3311.000000	63.918885
3310.000000	63.003999
3309.000000	61.974534
3308.000000	60.829247
3307.000000	59.565674
3306.000000	58.181985
3305.000000	56.675724
3304.000000	55.045902
3303.000000	53.288923
3302.000000	51.402204
3301.000000	49.390813
3300.000000	47.266038
3299.000000	45.046591
3298.000000	42.762736
3297.000000	40.459513
3296.000000	38.190756
3295.000000	36.007531
3294.000000	33.954087
3293.000000	32.069215
3292.000000	30.380762
3291.000000	28.893674
3290.000000	27.593622
3289.000000	26.453147
3288.000000	25.437775
3287.000000	24.511166
3286.000000	23.640430
3285.000000	22.807387
3284.000000	22.005355
3283.000000	21.234722
3282.000000	20.505647
3281.000000	19.838031
3280.000000	19.256796
3279.000000	18.783133
3278.000000	18.435052
3277.000000	18.231714
3276.000000	18.185372
3275.000000	18.294970
3274.000000	18.547212
3273.000000	18.919877
3272.000000	19.382172
3271.000000	19.890284
3270.000000	20.393748
3269.000000	20.844508
3268.000000	21.199110
3267.000000	21.420360
3266.000000	21.485857
3265.000000	21.393795
3264.000000	21.159129
3263.000000	20.808595
3262.000000	20.377512
3261.000000	19.910484
3260.000000	19.452709
3259.000000	19.041127
3258.000000	18.705860
3257.000000	18.472676
3256.000000	18.357588
3255.000000	18.362041
3254.000000	18.477584
3253.000000	18.690244
3252.000000	18.981464
3251.000000	19.325153
3250.000000	19.693825
3249.000000	20.066342
3248.000000	20.425060
3247.000000	20.753484
3246.000000	21.039216
3245.000000	21.277604
3244.000000	21.468347
3243.000000	21.612159
3242.000000	21.712716
3241.000000	21.778738
3240.000000	21.818948
3239.000000	21.836454
3238.000000	21.833455
3237.000000	21.815272
3236.000000	21.787988
3235.000000	21.755632
3234.000000	21.722168
3233.000000	21.692638
3232.000000	21.666216
3231.000000	21.632485
3230.000000	21.579174
3229.000000	21.499608
3228.000000	21.390577
3227.000000	21.247110
3226.000000	21.064923
3225.000000	20.844985
3224.000000	20.589797
3223.000000	20.300284
3222.000000	19.979465
3221.000000	19.636283
3220.000000	19.281799
3219.000000	18.923228
3218.000000	18.565946
3217.000000	18.215988
3216.000000	17.876389
3215.000000	17.544707
3214.000000	17.217881
3213.000000	16.896143
3212.000000	16.578627
3211.000000	16.260195
3210.000000	15.937242
3209.000000	15.613148
3208.000000	15.293843
3207.000000	14.982432
3206.000000	14.682417
3205.000000	14.400889
3204.000000	14.144457
3203.000000	13.915303
3202.000000	13.715291
3201.000000	13.550086
3200.000000	13.423798
3199.000000	13.335717
3198.000000	13.285061
3197.000000	13.274577
3196.000000	13.306188
3195.000000	13.375746
3194.000000	13.478999
3193.000000	13.616007
3192.000000	13.785799
3191.000000	13.983205
3190.000000	14.202926
3189.000000	14.444381
3188.000000	14.707295
3187.000000	14.986741
3186.000000	15.277863
3185.000000	15.579632
3184.000000	15.891267
3183.000000	16.208845
3182.000000	16.529133
3181.000000	16.852844
3180.000000	17.179728
3179.000000	17.505471
3178.000000	17.826649
3177.000000	18.144165
3176.000000	18.458332
3175.000000	18.765279
3174.000000	19.061867
3173.000000	19.349446
3172.000000	19.629522
3171.000000	19.899948
3170.000000	20.159370
3169.000000	20.410480
3168.000000	20.654949
3167.000000	20.890153
3166.000000	21.113825
3165.000000	21.327947
3164.000000	21.534187
3163.000000	21.729587
3162.000000	21.910983
3161.000000	22.078654
3160.000000	22.232841
3159.000000	22.371028
3158.000000	22.491923
3157.000000	22.598926
3156.000000	22.695604
3155.000000	22.782584
3154.000000	22.862221
3153.000000	22.941392
3152.000000	23.026188
3151.000000	23.117244
3150.000000	23.213754
3149.000000	23.317732
3148.000000	23.430792
3147.000000	23.550975
3146.000000	23.676530
3145.000000	23.808853
3144.000000	23.948316
3143.000000	24.091483
3142.000000	24.235366
3141.000000	24.380451
3140.000000	24.526175
3139.000000	24.667802
3138.000000	24.800961
3137.000000	24.925018
3136.000000	25.038661
3135.000000	25.136147
3134.000000	25.211727
3133.000000	25.262604
3132.000000	25.285030
3131.000000	25.271162
3130.000000	25.212836
3129.000000	25.106540
3128.000000	24.950451
3127.000000	24.743316
3126.000000	24.489236
3125.000000	24.199307
3124.000000	23.886868
3123.000000	23.562776
3122.000000	23.238661
3121.000000	22.928230
3120.000000	22.640567
3119.000000	22.376198
3118.000000	22.132660
3117.000000	21.909700
3116.000000	21.705770
3115.000000	21.515067
3114.000000	21.331776
3113.000000	21.153844
3112.000000	20.979374
3111.000000	20.804397
3110.000000	20.628370
3109.000000	20.456785
3108.000000	20.295194
3107.000000	20.144979
3106.000000	20.007722
3105.000000	19.889552
3104.000000	19.796412
3103.000000	19.730445
3102.000000	19.695002
3101.000000	19.697338
3100.000000	19.744148
3099.000000	19.836643
3098.000000	19.974445
3097.000000	20.159778
3096.000000	20.392597
3095.000000	20.668672
3094.000000	20.983682
3093.000000	21.336149
3092.000000	21.723767
3091.000000	22.139890
3090.000000	22.578597
3089.000000	23.036874
3088.000000	23.510045
3087.000000	23.990504
3086.000000	24.472988
3085.000000	24.957552
3084.000000	25.443577
3083.000000	25.926067
3082.000000	26.400928
3081.000000	26.868851
3080.000000	27.331138
3079.000000	27.785915
3078.000000	28.231521
3077.000000	28.668689
3076.000000	29.096859
3075.000000	29.512319
3074.000000	29.912999
3073.000000	30.301274
3072.000000	30.678889
3071.000000	31.044051
3070.000000	31.395733
3069.000000	31.736788
3068.000000	32.070036
3067.000000	32.394535
3066.000000	32.709065
3065.000000	33.015080
3064.000000	33.313637
3063.000000	33.603496
3062.000000	33.884388
3061.000000	34.158983
3060.000000	34.428838
3059.000000	34.692119
3058.000000	34.947955
3057.000000	35.198896
3056.000000	35.447028
3055.000000	35.691042
3054.000000	35.929529
3053.000000	36.163905
3052.000000	36.395332
3051.000000	36.622619
3050.000000	36.845366
3049.000000	37.065630
3048.000000	37.284468
3047.000000	37.500091
3046.000000	37.711703
3045.000000	37.921486
3044.000000	38.130551
3043.000000	38.336930
3042.000000	38.539630
3041.000000	38.740906
3040.000000	38.942082
3039.000000	39.140654
3038.000000	39.334466
3037.000000	39.525301
3036.000000	39.715959
3035.000000	39.907025
3034.000000	40.098577
3033.000000	40.291730
3032.000000	40.486054
3031.000000	40.678830
3030.000000	40.869037
3029.000000	41.058732
3028.000000	41.248700
3027.000000	41.436351
3026.000000	41.619915
3025.000000	41.801025
3024.000000	41.980578
3023.000000	42.155609
3022.000000	42.322538
3021.000000	42.479847
3020.000000	42.625280
3019.000000	42.752892
3018.000000	42.856127
3017.000000	42.931219
3016.000000	42.976235
3015.000000	42.991377
3014.000000	42.983248
3013.000000	42.967486
3012.000000	42.964076
3011.000000	42.991391
3010.000000	43.063679
3009.000000	43.188303
3008.000000	43.361185
3007.000000	43.566774
3006.000000	43.784668
3005.000000	43.994534
3004.000000	44.174508
3003.000000	44.299230
3002.000000	44.343395
3001.000000	44.285776
3000.000000	44.113425
2999.000000	43.830319
2998.000000	43.470321
2997.000000	43.100088
2996.000000	42.802867
2995.000000	42.652764
2994.000000	42.691751
2993.000000	42.918333
2992.000000	43.288120
2991.000000	43.733069
2990.000000	44.189146
2989.000000	44.614444
2988.000000	44.989711
2987.000000	45.310068
2986.000000	45.579837
2985.000000	45.807149
2984.000000	45.997934
2983.000000	46.152973
2982.000000	46.272016
2981.000000	46.355822
2980.000000	46.402868
2979.000000	46.407201
2978.000000	46.362601
2977.000000	46.269038
2976.000000	46.133790
2975.000000	45.972037
2974.000000	45.807628
2973.000000	45.668778
2972.000000	45.577356
2971.000000	45.539194
2970.000000	45.542336
2969.000000	45.558247
2968.000000	45.543760
2967.000000	45.451589
2966.000000	45.250909
2965.000000	44.943681
2964.000000	44.563826
2963.000000	44.162842
2962.000000	43.794367
2961.000000	43.501129
2960.000000	43.307652
2959.000000	43.221247
2958.000000	43.241125
2957.000000	43.362246
2956.000000	43.571208
2955.000000	43.844547
2954.000000	44.153685
2953.000000	44.469534
2952.000000	44.760518
2951.000000	44.995916
2950.000000	45.156772
2949.000000	45.245223
2948.000000	45.280631
2947.000000	45.285118
2946.000000	45.266366
2945.000000	45.200677
2944.000000	45.030699
2943.000000	44.692915
2942.000000	44.171960
2941.000000	43.542117
2940.000000	42.959621
2939.000000	42.603136
2938.000000	42.595332
2937.000000	42.952742
2936.000000	43.587190
2935.000000	44.358023
2934.000000	45.136798
2933.000000	45.844918
2932.000000	46.452417
2931.000000	46.960555
2930.000000	47.387275
2929.000000	47.754923
2928.000000	48.081247
2927.000000	48.375719
2926.000000	48.644627
2925.000000	48.894092
2924.000000	49.127403
2923.000000	49.343670
2922.000000	49.542162
2921.000000	49.724738
2920.000000	49.892295
2919.000000	50.043266
2918.000000	50.176905
2917.000000	50.295087
2916.000000	50.399231
2915.000000	50.488788
2914.000000	50.564512
2913.000000	50.629617
2912.000000	50.686088
2911.000000	50.732792
2910.000000	50.768129
2909.000000	50.790985
2908.000000	50.797324
2907.000000	50.778226
2906.000000	50.722849
2905.000000	50.619607
2904.000000	50.454099
2903.000000	50.210698
2902.000000	49.882003
2901.000000	49.475417
2900.000000	49.013927
2899.000000	48.535546
2898.000000	48.090619
2897.000000	47.733833
2896.000000	47.507561
2895.000000	47.429774
2894.000000	47.494939
2893.000000	47.679974
2892.000000	47.950426
2891.000000	48.268030
2890.000000	48.601253
2889.000000	48.929583
2888.000000	49.240117
2887.000000	49.524030
2886.000000	49.777226
2885.000000	50.000629
2884.000000	50.195676
2883.000000	50.362691
2882.000000	50.504109
2881.000000	50.625985
2880.000000	50.734411
2879.000000	50.832963
2878.000000	50.924784
2877.000000	51.013591
2876.000000	51.100692
2875.000000	51.183690
2874.000000	51.260436
2873.000000	51.331889
2872.000000	51.400474
2871.000000	51.469250
2870.000000	51.544024
2869.000000	51.632700
2868.000000	51.739669
2867.000000	51.862754
2866.000000	51.996702
2865.000000	52.136501
2864.000000	52.276242
2863.000000	52.409018
2862.000000	52.530796
2861.000000	52.642174
2860.000000	52.745047
2859.000000	52.840157
2858.000000	52.929229
2857.000000	53.016097
2856.000000	53.103634
2855.000000	53.192184
2854.000000	53.282083
2853.000000	53.374336
2852.000000	53.467119
2851.000000	53.554953
2850.000000	53.633440
2849.000000	53.702444
2848.000000	53.763743
2847.000000	53.818938
2846.000000	53.871347
2845.000000	53.926395
2844.000000	53.987716
2843.000000	54.054898
2842.000000	54.126438
2841.000000	54.202416
2840.000000	54.282849
2839.000000	54.366268
2838.000000	54.451782
2837.000000	54.540330
2836.000000	54.632548
2835.000000	54.727672
2834.000000	54.825573
2833.000000	54.927415
2832.000000	55.032972
2831.000000	55.139571
2830.000000	55.244901
2829.000000	55.348554
2828.000000	55.449858
2827.000000	55.546902
2826.000000	55.638985
2825.000000	55.727680
2824.000000	55.814272
2823.000000	55.898328
2822.000000	55.979857
2821.000000	56.060335
2820.000000	56.140281
2819.000000	56.218136
2818.000000	56.292607
2817.000000	56.363898
2816.000000	56.431672
2815.000000	56.494307
2814.000000	56.551414
2813.000000	56.604842
2812.000000	56.656126
2811.000000	56.705275
2810.000000	56.752967
2809.000000	56.801337
2808.000000	56.851333
2807.000000	56.901579
2806.000000	56.950951
2805.000000	56.999953
2804.000000	57.048500
2803.000000	57.094898
2802.000000	57.138340
2801.000000	57.180178
2800.000000	57.221653
2799.000000	57.262562
2798.000000	57.303090
2797.000000	57.344498
2796.000000	57.386871
2795.000000	57.428501
2794.000000	57.468508
2793.000000	57.507770
2792.000000	57.546464
2791.000000	57.583218
2790.000000	57.617629
2789.000000	57.650967
2788.000000	57.683290
2787.000000	57.712573
2786.000000	57.738033
2785.000000	57.762018
2784.000000	57.787515
2783.000000	57.816345
2782.000000	57.850791
2781.000000	57.893841
2780.000000	57.946043
2779.000000	58.004301
2778.000000	58.065140
2777.000000	58.127141
2776.000000	58.189189
2775.000000	58.249132
2774.000000	58.305909
2773.000000	58.360776
2772.000000	58.414995
2771.000000	58.468313
2770.000000	58.520715
2769.000000	58.573296
2768.000000	58.626008
2767.000000	58.676571
2766.000000	58.722981
2765.000000	58.765107
2764.000000	58.802865
2763.000000	58.835239
2762.000000	58.862322
2761.000000	58.886311
2760.000000	58.909177
2759.000000	58.931181
2758.000000	58.952592
2757.000000	58.974405
2756.000000	58.996141
2755.000000	59.015258
2754.000000	59.030206
2753.000000	59.042576
2752.000000	59.055456
2751.000000	59.071576
2750.000000	59.093610
2749.000000	59.123377
2748.000000	59.159111
2747.000000	59.195539
2746.000000	59.228106
2745.000000	59.255738
2744.000000	59.279288
2743.000000	59.299756
2742.000000	59.318714
2741.000000	59.337633
2740.000000	59.355195
2739.000000	59.367427
2738.000000	59.372272
2737.000000	59.373066
2736.000000	59.377156
2735.000000	59.393086
2734.000000	59.428814
2733.000000	59.488397
2732.000000	59.568235
2731.000000	59.658399
2730.000000	59.748982
2729.000000	59.834382
2728.000000	59.911809
2727.000000	59.979306
2726.000000	60.036950
2725.000000	60.087233
2724.000000	60.132191
2723.000000	60.171806
2722.000000	60.205878
2721.000000	60.235102
2720.000000	60.259570
2719.000000	60.278323
2718.000000	60.291813
2717.000000	60.302991
2716.000000	60.314741
2715.000000	60.328398
2714.000000	60.345453
2713.000000	60.368201
2712.000000	60.397435
2711.000000	60.431611
2710.000000	60.469284
2709.000000	60.510333
2708.000000	60.553806
2707.000000	60.596789
2706.000000	60.636649
2705.000000	60.672366
2704.000000	60.702639
2703.000000	60.725006
2702.000000	60.738021
2701.000000	60.742102
2700.000000	60.737597
2699.000000	60.724086
2698.000000	60.702763
2697.000000	60.677668
2696.000000	60.653107
2695.000000	60.631680
2694.000000	60.615251
2693.000000	60.605127
2692.000000	60.600180
2691.000000	60.597071
2690.000000	60.593664
2689.000000	60.590620
2688.000000	60.589103
2687.000000	60.589194
2686.000000	60.591495
2685.000000	60.597716
2684.000000	60.608547
2683.000000	60.623314
2682.000000	60.642483
2681.000000	60.668300
2680.000000	60.701687
2679.000000	60.740513
2678.000000	60.781843
2677.000000	60.823391
2676.000000	60.862057
2675.000000	60.893832
2674.000000	60.916627
2673.000000	60.931405
2672.000000	60.939849
2671.000000	60.943165
2670.000000	60.944052
2669.000000	60.947411
2668.000000	60.957599
2667.000000	60.976657
2666.000000	61.005589
2665.000000	61.044535
2664.000000	61.090491
2663.000000	61.137486
2662.000000	61.180314
2661.000000	61.216323
2660.000000	61.243372
2659.000000	61.259050
2658.000000	61.263232
2657.000000	61.259202
2656.000000	61.250933
2655.000000	61.241280
2654.000000	61.233800
2653.000000	61.233513
2652.000000	61.244246
2651.000000	61.267157
2650.000000	61.302496
2649.000000	61.350019
2648.000000	61.406720
2647.000000	61.466535
2646.000000	61.523862
2645.000000	61.576043
2644.000000	61.621884
2643.000000	61.660851
2642.000000	61.694966
2641.000000	61.728921
2640.000000	61.766670
2639.000000	61.809294
2638.000000	61.856510
2637.000000	61.907482
2636.000000	61.959141
2635.000000	62.006351
2634.000000	62.045555
2633.000000	62.076515
2632.000000	62.099871
2631.000000	62.115726
2630.000000	62.125515
2629.000000	62.132818
2628.000000	62.140429
2627.000000	62.148384
2626.000000	62.156056
2625.000000	62.163624
2624.000000	62.170586
2623.000000	62.175139
2622.000000	62.176431
2621.000000	62.175607
2620.000000	62.173366
2619.000000	62.168726
2618.000000	62.161061
2617.000000	62.150886
2616.000000	62.137594
2615.000000	62.118498
2614.000000	62.091733
2613.000000	62.058085
2612.000000	62.019045
2611.000000	61.975902
2610.000000	61.932039
2609.000000	61.893616
2608.000000	61.866089
2607.000000	61.851761
2606.000000	61.851310
2605.000000	61.865496
2604.000000	61.893672
2603.000000	61.932728
2602.000000	61.979490
2601.000000	62.031627
2600.000000	62.085707
2599.000000	62.136787
2598.000000	62.181382
2597.000000	62.219460
2596.000000	62.252378
2595.000000	62.281200
2594.000000	62.308106
2593.000000	62.336925
2592.000000	62.370312
2591.000000	62.407878
2590.000000	62.447785
2589.000000	62.488029
2588.000000	62.525351
2587.000000	62.555332
2586.000000	62.575556
2585.000000	62.587349
2584.000000	62.593872
2583.000000	62.598775
2582.000000	62.607526
2581.000000	62.627095
2580.000000	62.662261
2579.000000	62.713363
2578.000000	62.777955
2577.000000	62.852710
2576.000000	62.932700
2575.000000	63.011770
2574.000000	63.085748
2573.000000	63.153678
2572.000000	63.215582
2571.000000	63.271174
2570.000000	63.321708
2569.000000	63.370604
2568.000000	63.420611
2567.000000	63.471828
2566.000000	63.523417
2565.000000	63.575180
2564.000000	63.626092
2563.000000	63.673665
2562.000000	63.716123
2561.000000	63.753732
2560.000000	63.787203
2559.000000	63.816646
2558.000000	63.843352
2557.000000	63.870439
2556.000000	63.900438
2555.000000	63.933849
2554.000000	63.970812
2553.000000	64.012004
2552.000000	64.056742
2551.000000	64.102260
2550.000000	64.146289
2549.000000	64.188757
2548.000000	64.229924
2547.000000	64.268806
2546.000000	64.304624
2545.000000	64.338084
2544.000000	64.369810
2543.000000	64.399146
2542.000000	64.425396
2541.000000	64.448428
2540.000000	64.467342
2539.000000	64.479912
2538.000000	64.484628
2537.000000	64.481651
2536.000000	64.470780
2535.000000	64.450984
2534.000000	64.422357
2533.000000	64.387064
2532.000000	64.347389
2531.000000	64.304479
2530.000000	64.260267
2529.000000	64.218072
2528.000000	64.180149
2527.000000	64.146383
2526.000000	64.116248
2525.000000	64.090051
2524.000000	64.067057
2523.000000	64.044418
2522.000000	64.019220
2521.000000	63.989871
2520.000000	63.954838
2519.000000	63.912208
2518.000000	63.861801
2517.000000	63.805889
2516.000000	63.746551
2515.000000	63.684492
2514.000000	63.621196
2513.000000	63.560026
2512.000000	63.504043
2511.000000	63.454997
2510.000000	63.415281
2509.000000	63.388537
2508.000000	63.376932
2507.000000	63.379406
2506.000000	63.394474
2505.000000	63.421759
2504.000000	63.459845
2503.000000	63.505197
2502.000000	63.554057
2501.000000	63.604170
2500.000000	63.653106
2499.000000	63.697259
2498.000000	63.734202
2497.000000	63.764103
2496.000000	63.787738
2495.000000	63.805048
2494.000000	63.816619
2493.000000	63.824303
2492.000000	63.829382
2491.000000	63.831804
2490.000000	63.832463
2489.000000	63.834359
2488.000000	63.840147
2487.000000	63.850506
2486.000000	63.865646
2485.000000	63.886130
2484.000000	63.910890
2483.000000	63.936645
2482.000000	63.960601
2481.000000	63.982118
2480.000000	64.001085
2479.000000	64.016959
2478.000000	64.031004
2477.000000	64.047233
2476.000000	64.069782
2475.000000	64.100827
2474.000000	64.141510
2473.000000	64.192764
2472.000000	64.253385
2471.000000	64.319323
2470.000000	64.386209
2469.000000	64.450997
2468.000000	64.511029
2467.000000	64.563917
2466.000000	64.609809
2465.000000	64.651770
2464.000000	64.692678
2463.000000	64.733188
2462.000000	64.773409
2461.000000	64.814056
2460.000000	64.854304
2459.000000	64.890806
2458.000000	64.920097
2457.000000	64.940865
2456.000000	64.953143
2455.000000	64.957252
2454.000000	64.955323
2453.000000	64.951904
2452.000000	64.951686
2451.000000	64.957549
2450.000000	64.971146
2449.000000	64.993199
2448.000000	65.022194
2447.000000	65.054815
2446.000000	65.088878
2445.000000	65.124620
2444.000000	65.162322
2443.000000	65.201017
2442.000000	65.240388
2441.000000	65.281566
2440.000000	65.324902
2439.000000	65.368639
2438.000000	65.410932
2437.000000	65.451234
2436.000000	65.488715
2435.000000	65.521112
2434.000000	65.546573
2433.000000	65.564868
2432.000000	65.575715
2431.000000	65.578220
2430.000000	65.572576
2429.000000	65.560815
2428.000000	65.544390
2427.000000	65.522508
2426.000000	65.494409
2425.000000	65.460953
2424.000000	65.423345
2423.000000	65.382265
2422.000000	65.339642
2421.000000	65.299718
2420.000000	65.266799
2419.000000	65.243285
2418.000000	65.230358
2417.000000	65.228362
2416.000000	65.234968
2415.000000	65.245154
2414.000000	65.254274
2413.000000	65.259584
2412.000000	65.258072
2411.000000	65.245440
2410.000000	65.218803
2409.000000	65.178728
2408.000000	65.127584
2407.000000	65.067488
2406.000000	65.001533
2405.000000	64.934522
2404.000000	64.870813
2403.000000	64.812996
2402.000000	64.763621
2401.000000	64.726029
2400.000000	64.701860
2399.000000	64.689501
2398.000000	64.685852
2397.000000	64.687659
2396.000000	64.689828
2395.000000	64.685263
2394.000000	64.668369
2393.000000	64.637794
2392.000000	64.594562
2391.000000	64.540432
2390.000000	64.479608
2389.000000	64.418737
2388.000000	64.364526
2387.000000	64.320767
2386.000000	64.289928
2385.000000	64.275064
2384.000000	64.276530
2383.000000	64.291802
2382.000000	64.317513
2381.000000	64.351869
2380.000000	64.392940
2379.000000	64.435419
2378.000000	64.473084
2377.000000	64.502026
2376.000000	64.518662
2375.000000	64.517296
2374.000000	64.494725
2373.000000	64.452346
2372.000000	64.393077
2371.000000	64.318705
2370.000000	64.230787
2369.000000	64.137659
2368.000000	64.050832
2367.000000	63.978141
2366.000000	63.923264
2365.000000	63.892000
2364.000000	63.899194
2363.000000	63.942358
2362.000000	64.010404
2361.000000	64.107301
2360.000000	64.220885
2359.000000	64.339144
2358.000000	64.445956
2357.000000	64.528060
2356.000000	64.587471
2355.000000	64.608380
2354.000000	64.596124
2353.000000	64.576979
2352.000000	64.595553
2351.000000	64.666262
2350.000000	64.728192
2349.000000	64.739561
2348.000000	64.699309
2347.000000	64.670860
2346.000000	64.714063
2345.000000	64.815434
2344.000000	64.927178
2343.000000	64.987011
2342.000000	65.009459
2341.000000	65.023618
2340.000000	65.035718
2339.000000	65.041986
2338.000000	65.041334
2337.000000	65.042085
2336.000000	65.048122
2335.000000	65.055637
2334.000000	65.065794
2333.000000	65.074487
2332.000000	65.071959
2331.000000	65.055246
2330.000000	65.006597
2329.000000	64.946060
2328.000000	64.878221
2327.000000	64.822209
2326.000000	64.792989
2325.000000	64.788470
2324.000000	64.812771
2323.000000	64.839667
2322.000000	64.866422
2321.000000	64.882943
2320.000000	64.890534
2319.000000	64.887747
2318.000000	64.873912
2317.000000	64.855567
2316.000000	64.830415
2315.000000	64.800069
2314.000000	64.757766
2313.000000	64.702883
2312.000000	64.629367
2311.000000	64.539756
2310.000000	64.439527
2309.000000	64.337146
2308.000000	64.235301
2307.000000	64.130909
2306.000000	64.022630
2305.000000	63.907974
2304.000000	63.786877
2303.000000	63.658157
2302.000000	63.525219
2301.000000	63.394202
2300.000000	63.268871
2299.000000	63.153190
2298.000000	63.050292
2297.000000	62.965473
2296.000000	62.898824
2295.000000	62.848908
2294.000000	62.814614
2293.000000	62.795905
2292.000000	62.791932
2291.000000	62.800158
2290.000000	62.822084
2289.000000	62.860043
2288.000000	62.916450
2287.000000	62.990563
2286.000000	63.082294
2285.000000	63.188941
2284.000000	63.303686
2283.000000	63.416128
2282.000000	63.518704
2281.000000	63.607500
2280.000000	63.680448
2279.000000	63.737023
2278.000000	63.780832
2277.000000	63.819191
2276.000000	63.858426
2275.000000	63.903929
2274.000000	63.960578
2273.000000	64.032280
2272.000000	64.118132
2271.000000	64.213834
2270.000000	64.316761
2269.000000	64.426630
2268.000000	64.542762
2267.000000	64.663397
2266.000000	64.787930
2265.000000	64.917742
2264.000000	65.052440
2263.000000	65.189840
2262.000000	65.328235
2261.000000	65.465856
2260.000000	65.599732
2259.000000	65.725138
2258.000000	65.839981
2257.000000	65.944392
2256.000000	66.038662
2255.000000	66.123061
2254.000000	66.199871
2253.000000	66.273532
2252.000000	66.346732
2251.000000	66.420308
2250.000000	66.495500
2249.000000	66.573933
2248.000000	66.655089
2247.000000	66.736303
2246.000000	66.814931
2245.000000	66.889510
2244.000000	66.957988
2243.000000	67.017706
2242.000000	67.067744
2241.000000	67.109105
2240.000000	67.142254
2239.000000	67.166507
2238.000000	67.182390
2237.000000	67.192201
2236.000000	67.198302
2235.000000	67.202533
2234.000000	67.207828
2233.000000	67.217689
2232.000000	67.233360
2231.000000	67.253266
2230.000000	67.275318
2229.000000	67.297886
2228.000000	67.318606
2227.000000	67.335084
2226.000000	67.347445
2225.000000	67.358301
2224.000000	67.369683
2223.000000	67.381973
2222.000000	67.395687
2221.000000	67.411909
2220.000000	67.430410
2219.000000	67.449510
2218.000000	67.468261
2217.000000	67.486995
2216.000000	67.505765
2215.000000	67.524478
2214.000000	67.544880
2213.000000	67.570081
2212.000000	67.601736
2211.000000	67.639325
2210.000000	67.682026
2209.000000	67.728828
2208.000000	67.776730
2207.000000	67.821228
2206.000000	67.859008
2205.000000	67.888496
2204.000000	67.907969
2203.000000	67.915814
2202.000000	67.912917
2201.000000	67.902627
2200.000000	67.888074
2199.000000	67.871586
2198.000000	67.856677
2197.000000	67.847794
2196.000000	67.847497
2195.000000	67.855770
2194.000000	67.872294
2193.000000	67.896917
2192.000000	67.927725
2191.000000	67.961412
2190.000000	67.996198
2189.000000	68.032505
2188.000000	68.070593
2187.000000	68.110074
2186.000000	68.151921
2185.000000	68.198294
2184.000000	68.249541
2183.000000	68.303262
2182.000000	68.356702
2181.000000	68.407801
2180.000000	68.453874
2179.000000	68.491815
2178.000000	68.520488
2177.000000	68.541216
2176.000000	68.555561
2175.000000	68.564657
2174.000000	68.570669
2173.000000	68.576444
2172.000000	68.582901
2171.000000	68.588664
2170.000000	68.592633
2169.000000	68.594909
2168.000000	68.595058
2167.000000	68.591802
2166.000000	68.585197
2165.000000	68.577141
2164.000000	68.569202
2163.000000	68.561918
2162.000000	68.556455
2161.000000	68.554923
2160.000000	68.558609
2159.000000	68.567767
2158.000000	68.583233
2157.000000	68.605866
2156.000000	68.634097
2155.000000	68.664145
2154.000000	68.693060
2153.000000	68.719661
2152.000000	68.742791
2151.000000	68.761260
2150.000000	68.775900
2149.000000	68.789321
2148.000000	68.803003
2147.000000	68.816663
2146.000000	68.830487
2145.000000	68.845578
2144.000000	68.861847
2143.000000	68.877638
2142.000000	68.891827
2141.000000	68.904309
2140.000000	68.914306
2139.000000	68.920324
2138.000000	68.922089
2137.000000	68.920575
2136.000000	68.916007
2135.000000	68.907890
2134.000000	68.897098
2133.000000	68.885591
2132.000000	68.873740
2131.000000	68.860039
2130.000000	68.843717
2129.000000	68.825504
2128.000000	68.805757
2127.000000	68.784201
2126.000000	68.761908
2125.000000	68.741393
2124.000000	68.724439
2123.000000	68.712239
2122.000000	68.707775
2121.000000	68.715464
2120.000000	68.737870
2119.000000	68.774344
2118.000000	68.822364
2117.000000	68.877666
2116.000000	68.933242
2115.000000	68.981262
2114.000000	69.017298
2113.000000	69.041261
2112.000000	69.054694
2111.000000	69.059605
2110.000000	69.059688
2109.000000	69.059793
2108.000000	69.063233
2107.000000	69.071076
2106.000000	69.084020
2105.000000	69.102434
2104.000000	69.124187
2103.000000	69.144756
2102.000000	69.159791
2101.000000	69.166047
2100.000000	69.160150
2099.000000	69.139410
2098.000000	69.104785
2097.000000	69.061047
2096.000000	69.013939
2095.000000	68.969249
2094.000000	68.933959
2093.000000	68.914463
2092.000000	68.912590
2091.000000	68.925391
2090.000000	68.949191
2089.000000	68.981786
2088.000000	69.020815
2087.000000	69.063227
2086.000000	69.106862
2085.000000	69.150157
2084.000000	69.190373
2083.000000	69.224487
2082.000000	69.251524
2081.000000	69.271915
2080.000000	69.284608
2079.000000	69.287176
2078.000000	69.279011
2077.000000	69.261356
2076.000000	69.234585
2075.000000	69.198184
2074.000000	69.153327
2073.000000	69.102889
2072.000000	69.048407
2071.000000	68.989605
2070.000000	68.927500
2069.000000	68.865007
2068.000000	68.803210
2067.000000	68.739124
2066.000000	68.668247
2065.000000	68.588251
2064.000000	68.499856
2063.000000	68.406407
2062.000000	68.312589
2061.000000	68.221144
2060.000000	68.130817
2059.000000	68.039213
2058.000000	67.947266
2057.000000	67.858316
2056.000000	67.773767
2055.000000	67.692942
2054.000000	67.616823
2053.000000	67.548351
2052.000000	67.488733
2051.000000	67.436619
2050.000000	67.391250
2049.000000	67.353512
2048.000000	67.322874
2047.000000	67.296744
2046.000000	67.274586
2045.000000	67.259095
2044.000000	67.251829
2043.000000	67.250758
2042.000000	67.253522
2041.000000	67.260695
2040.000000	67.274392
2039.000000	67.296717
2038.000000	67.330159
2037.000000	67.375969
2036.000000	67.431818
2035.000000	67.493672
2034.000000	67.560337
2033.000000	67.633191
2032.000000	67.711780
2031.000000	67.793354
2030.000000	67.876564
2029.000000	67.961433
2028.000000	68.046065
2027.000000	68.127046
2026.000000	68.203272
2025.000000	68.276171
2024.000000	68.345411
2023.000000	68.408858
2022.000000	68.467828
2021.000000	68.528157
2020.000000	68.593500
2019.000000	68.660635
2018.000000	68.723592
2017.000000	68.780241
2016.000000	68.833990
2015.000000	68.891449
2014.000000	68.958860
2013.000000	69.037776
2012.000000	69.122872
2011.000000	69.206352
2010.000000	69.285172
2009.000000	69.360896
2008.000000	69.433958
2007.000000	69.503013
2006.000000	69.569382
2005.000000	69.637422
2004.000000	69.708858
2003.000000	69.781688
2002.000000	69.854255
2001.000000	69.926261
2000.000000	69.995878
1999.000000	70.059329
1998.000000	70.114799
1997.000000	70.165128
1996.000000	70.216309
1995.000000	70.272410
1994.000000	70.331650
1993.000000	70.387261
1992.000000	70.434137
1991.000000	70.476721
1990.000000	70.527020
1989.000000	70.592691
1988.000000	70.669809
1987.000000	70.747909
1986.000000	70.820315
1985.000000	70.887579
1984.000000	70.951499
1983.000000	71.011623
1982.000000	71.068083
1981.000000	71.124416
1980.000000	71.185800
1979.000000	71.255027
1978.000000	71.331328
1977.000000	71.411969
1976.000000	71.494305
1975.000000	71.575200
1974.000000	71.650528
1973.000000	71.717398
1972.000000	71.777130
1971.000000	71.834546
1970.000000	71.893194
1969.000000	71.951347
1968.000000	72.001825
1967.000000	72.037181
1966.000000	72.057819
1965.000000	72.072635
1964.000000	72.089510
1963.000000	72.106189
1962.000000	72.112075
1961.000000	72.099526
1960.000000	72.070990
1959.000000	72.035168
1958.000000	72.000081
1957.000000	71.971291
1956.000000	71.953568
1955.000000	71.949510
1954.000000	71.958451
1953.000000	71.978537
1952.000000	72.007532
1951.000000	72.041907
1950.000000	72.076817
1949.000000	72.108244
1948.000000	72.134866
1947.000000	72.158773
1946.000000	72.184442
1945.000000	72.214104
1944.000000	72.241830
1943.000000	72.254594
1942.000000	72.245848
1941.000000	72.226499
1940.000000	72.215237
1939.000000	72.220303
1938.000000	72.234106
1937.000000	72.243538
1936.000000	72.243146
1935.000000	72.235725
1934.000000	72.224835
1933.000000	72.211626
1932.000000	72.196225
1931.000000	72.181452
1930.000000	72.171068
1929.000000	72.166554
1928.000000	72.167088
1927.000000	72.175007
1926.000000	72.196836
1925.000000	72.231258
1924.000000	72.262829
1923.000000	72.275012
1922.000000	72.271261
1921.000000	72.270726
1920.000000	72.283860
1919.000000	72.302766
1918.000000	72.312191
1917.000000	72.306648
1916.000000	72.293258
1915.000000	72.281515
1914.000000	72.276995
1913.000000	72.278425
1912.000000	72.278890
1911.000000	72.273309
1910.000000	72.261674
1909.000000	72.246107
1908.000000	72.228205
1907.000000	72.213272
1906.000000	72.211546
1905.000000	72.226334
1904.000000	72.249482
1903.000000	72.273960
1902.000000	72.303289
1901.000000	72.342895
1900.000000	72.391256
1899.000000	72.446603
1898.000000	72.512981
1897.000000	72.589430
1896.000000	72.661599
1895.000000	72.716076
1894.000000	72.759130
1893.000000	72.807793
1892.000000	72.866645
1891.000000	72.923170
1890.000000	72.960521
1889.000000	72.973612
1888.000000	72.974546
1887.000000	72.982750
1886.000000	73.011269
1885.000000	73.056349
1884.000000	73.102013
1883.000000	73.140318
1882.000000	73.178495
1881.000000	73.222793
1880.000000	73.267258
1879.000000	73.303772
1878.000000	73.334928
1877.000000	73.367931
1876.000000	73.402769
1875.000000	73.438171
1874.000000	73.481926
1873.000000	73.543872
1872.000000	73.622251
1871.000000	73.704399
1870.000000	73.774096
1869.000000	73.814486
1868.000000	73.817801
1867.000000	73.799490
1866.000000	73.790681
1865.000000	73.810459
1864.000000	73.853909
1863.000000	73.906744
1862.000000	73.963058
1861.000000	74.023616
1860.000000	74.083481
1859.000000	74.135353
1858.000000	74.180870
1857.000000	74.225393
1856.000000	74.265727
1855.000000	74.297774
1854.000000	74.324673
1853.000000	74.352337
1852.000000	74.385477
1851.000000	74.428657
1850.000000	74.488563
1849.000000	74.563880
1848.000000	74.640516
1847.000000	74.704467
1846.000000	74.752053
1845.000000	74.781131
1844.000000	74.787029
1843.000000	74.778702
1842.000000	74.776215
1841.000000	74.793972
1840.000000	74.835386
1839.000000	74.892142
1838.000000	74.949347
1837.000000	74.996282
1836.000000	75.034514
1835.000000	75.074651
1834.000000	75.124238
1833.000000	75.183184
1832.000000	75.246412
1831.000000	75.297977
1830.000000	75.318550
1829.000000	75.315998
1828.000000	75.325822
1827.000000	75.368462
1826.000000	75.433158
1825.000000	75.495129
1824.000000	75.538802
1823.000000	75.569661
1822.000000	75.601904
1821.000000	75.644711
1820.000000	75.694013
1819.000000	75.735890
1818.000000	75.764135
1817.000000	75.786615
1816.000000	75.814513
1815.000000	75.851166
1814.000000	75.895753
1813.000000	75.944982
1812.000000	75.983597
1811.000000	75.990871
1810.000000	75.967700
1809.000000	75.937849
1808.000000	75.914597
1807.000000	75.894421
1806.000000	75.883865
1805.000000	75.899853
1804.000000	75.944137
1803.000000	75.992783
1802.000000	76.018743
1801.000000	76.018918
1800.000000	76.007534
1799.000000	76.000327
1798.000000	76.010260
1797.000000	76.039416
1796.000000	76.073765
1795.000000	76.099805
1794.000000	76.120155
1793.000000	76.143935
1792.000000	76.162965
1791.000000	76.162389
1790.000000	76.152677
1789.000000	76.158802
1788.000000	76.187534
1787.000000	76.222636
1786.000000	76.246037
1785.000000	76.253588
1784.000000	76.256644
1783.000000	76.266969
1782.000000	76.286440
1781.000000	76.310488
1780.000000	76.329606
1779.000000	76.345240
1778.000000	76.370812
1777.000000	76.414793
1776.000000	76.469656
1775.000000	76.519869
1774.000000	76.556255
1773.000000	76.581990
1772.000000	76.609677
1771.000000	76.648216
1770.000000	76.697388
1769.000000	76.755837
1768.000000	76.823428
1767.000000	76.889326
1766.000000	76.944462
1765.000000	76.997645
1764.000000	77.060541
1763.000000	77.118954
1762.000000	77.140132
1761.000000	77.128353
1760.000000	77.123893
1759.000000	77.146681
1758.000000	77.181490
1757.000000	77.207369
1756.000000	77.227167
1755.000000	77.255556
1754.000000	77.292935
1753.000000	77.339038
1752.000000	77.398936
1751.000000	77.466116
1750.000000	77.519349
1749.000000	77.546587
1748.000000	77.568929
1747.000000	77.613054
1746.000000	77.678683
1745.000000	77.748961
1744.000000	77.810121
1743.000000	77.850649
1742.000000	77.862944
1741.000000	77.857576
1740.000000	77.862349
1739.000000	77.892571
1738.000000	77.930821
1737.000000	77.960246
1736.000000	77.985558
1735.000000	78.007607
1734.000000	78.009991
1733.000000	78.002002
1732.000000	78.005409
1731.000000	78.016592
1730.000000	78.026338
1729.000000	78.024319
1728.000000	78.018074
1727.000000	78.024575
1726.000000	78.048932
1725.000000	78.078658
1724.000000	78.096014
1723.000000	78.103034
1722.000000	78.117161
1721.000000	78.149565
1720.000000	78.198906
1719.000000	78.248715
1718.000000	78.272168
1717.000000	78.273250
1716.000000	78.269722
1715.000000	78.260469
1714.000000	78.262549
1713.000000	78.292855
1712.000000	78.337856
1711.000000	78.381576
1710.000000	78.426945
1709.000000	78.482996
1708.000000	78.547304
1707.000000	78.611431
1706.000000	78.678382
1705.000000	78.754580
1704.000000	78.823820
1703.000000	78.865817
1702.000000	78.891296
1701.000000	78.935776
1700.000000	79.002830
1699.000000	79.052518
1698.000000	79.071524
1697.000000	79.093800
1696.000000	79.145986
1695.000000	79.217049
1694.000000	79.288997
1693.000000	79.355382
1692.000000	79.430519
1691.000000	79.525570
1690.000000	79.620488
1689.000000	79.685037
1688.000000	79.713919
1687.000000	79.728256
1686.000000	79.757698
1685.000000	79.798064
1684.000000	79.813214
1683.000000	79.820170
1682.000000	79.840602
1681.000000	79.849949
1680.000000	79.849786
1679.000000	79.848747
1678.000000	79.844047
1677.000000	79.825886
1676.000000	79.800221
1675.000000	79.787437
1674.000000	79.789413
1673.000000	79.785439
1672.000000	79.773087
1671.000000	79.771235
1670.000000	79.770666
1669.000000	79.741633
1668.000000	79.692903
1667.000000	79.658974
1666.000000	79.647508
1665.000000	79.641942
1664.000000	79.629621
1663.000000	79.610929
1662.000000	79.581541
1661.000000	79.525094
1660.000000	79.438163
1659.000000	79.350044
1658.000000	79.280564
1657.000000	79.210968
1656.000000	79.103108
1655.000000	78.931402
1654.000000	78.621784
1653.000000	78.122420
1652.000000	77.618806
1651.000000	77.211656
1650.000000	76.771684
1649.000000	76.166705
1648.000000	75.196739
1647.000000	73.690175
1646.000000	71.729771
1645.000000	69.550801
1644.000000	67.202281
1643.000000	64.567620
1642.000000	61.562158
1641.000000	58.261688
1640.000000	54.934227
1639.000000	51.873156
1638.000000	49.208937
1637.000000	46.954514
1636.000000	45.269502
1635.000000	44.493598
1634.000000	44.698367
1633.000000	45.606983
1632.000000	46.951317
1631.000000	48.582130
1630.000000	50.416284
1629.000000	52.388052
1628.000000	54.409776
1627.000000	56.349690
1626.000000	58.126053
1625.000000	59.796019
1624.000000	61.458705
1623.000000	63.083910
1622.000000	64.527852
1621.000000	65.728519
1620.000000	66.756458
1619.000000	67.711094
1618.000000	68.656506
1617.000000	69.609047
1616.000000	70.515867
1615.000000	71.283486
1614.000000	71.880356
1613.000000	72.364668
1612.000000	72.803044
1611.000000	73.192399
1610.000000	73.476740
1609.000000	73.630692
1608.000000	73.667907
1607.000000	73.576954
1606.000000	73.307963
1605.000000	72.820275
1604.000000	72.096697
1603.000000	71.109935
1602.000000	69.845836
1601.000000	68.373265
1600.000000	66.842032
1599.000000	65.405745
1598.000000	64.158603
1597.000000	63.141011
1596.000000	62.361481
1595.000000	61.788589
1594.000000	61.345054
1593.000000	60.948776
1592.000000	60.553231
1591.000000	60.130161
1590.000000	59.646710
1589.000000	59.084468
1588.000000	58.454415
1587.000000	57.761271
1586.000000	56.975801
1585.000000	56.074015
1584.000000	55.079621
1583.000000	54.029005
1582.000000	52.929596
1581.000000	51.792462
1580.000000	50.657322
1579.000000	49.507017
1578.000000	48.172699
1577.000000	46.402384
1576.000000	44.229552
1575.000000	42.128743
1574.000000	40.445544
1573.000000	39.083123
1572.000000	37.835404
1571.000000	36.609977
1570.000000	35.448905
1569.000000	34.489253
1568.000000	33.865066
1567.000000	33.609934
1566.000000	33.644055
1565.000000	33.849134
1564.000000	34.176461
1563.000000	34.646585
1562.000000	35.278874
1561.000000	36.067724
1560.000000	37.079083
1559.000000	38.360519
1558.000000	39.686852
1557.000000	40.793240
1556.000000	41.682165
1555.000000	42.483069
1554.000000	43.231420
1553.000000	43.884219
1552.000000	44.430840
1551.000000	44.937284
1550.000000	45.468362
1549.000000	46.044182
1548.000000	46.685345
1547.000000	47.444233
1546.000000	48.352955
1545.000000	49.358617
1544.000000	50.360918
1543.000000	51.320633
1542.000000	52.274295
1541.000000	53.240507
1540.000000	54.176272
1539.000000	55.059430
1538.000000	55.885812
1537.000000	56.630176
1536.000000	57.321795
1535.000000	58.030601
1534.000000	58.776642
1533.000000	59.497020
1532.000000	60.146917
1531.000000	60.762052
1530.000000	61.389907
1529.000000	62.029849
1528.000000	62.650553
1527.000000	63.232423
1526.000000	63.766024
1525.000000	64.244912
1524.000000	64.682543
1523.000000	65.111502
1522.000000	65.528292
1521.000000	65.887457
1520.000000	66.194226
1519.000000	66.501616
1518.000000	66.827388
1517.000000	67.135793
1516.000000	67.399492
1515.000000	67.649693
1514.000000	67.921156
1513.000000	68.220573
1512.000000	68.547349
1511.000000	68.896048
1510.000000	69.246038
1509.000000	69.564573
1508.000000	69.809203
1507.000000	69.926368
1506.000000	69.996019
1505.000000	70.164882
1504.000000	70.418219
1503.000000	70.707104
1502.000000	71.009122
1501.000000	71.296714
1500.000000	71.558156
1499.000000	71.799611
1498.000000	72.012792
1497.000000	72.180831
1496.000000	72.327263
1495.000000	72.494879
1494.000000	72.684804
1493.000000	72.880838
1492.000000	73.093901
1491.000000	73.334408
1490.000000	73.555947
1489.000000	73.705928
1488.000000	73.802284
1487.000000	73.892889
1486.000000	73.980618
1485.000000	74.023483
1484.000000	73.999257
1483.000000	73.906011
1482.000000	73.710427
1481.000000	73.368104
1480.000000	72.882355
1479.000000	72.249949
1478.000000	71.369786
1477.000000	70.112135
1476.000000	68.472588
1475.000000	66.540166
1474.000000	64.324711
1473.000000	61.854585
1472.000000	59.466447
1471.000000	57.598324
1470.000000	56.344217
1469.000000	55.557794
1468.000000	55.147380
1467.000000	55.125371
1466.000000	55.540893
1465.000000	56.382146
1464.000000	57.490153
1463.000000	58.605751
1462.000000	59.525600
1461.000000	60.163589
1460.000000	60.478367
1459.000000	60.390743
1458.000000	59.754259
1457.000000	58.615578
1456.000000	57.462960
1455.000000	56.700275
1454.000000	56.269508
1453.000000	55.999294
1452.000000	55.812536
1451.000000	55.700289
1450.000000	55.671359
1449.000000	55.740296
1448.000000	55.916527
1447.000000	56.173780
1446.000000	56.470527
1445.000000	56.807499
1444.000000	57.223183
1443.000000	57.752408
1442.000000	58.416914
1441.000000	59.236601
1440.000000	60.225609
1439.000000	61.389460
1438.000000	62.730454
1437.000000	64.184403
1436.000000	65.552828
1435.000000	66.649035
1434.000000	67.480581
1433.000000	68.167658
1432.000000	68.782597
1431.000000	69.324523
1430.000000	69.782654
1429.000000	70.178260
1428.000000	70.540950
1427.000000	70.884990
1426.000000	71.213739
1425.000000	71.520929
1424.000000	71.792993
1423.000000	72.028830
1422.000000	72.251897
1421.000000	72.486558
1420.000000	72.725759
1419.000000	72.926785
1418.000000	73.070575
1417.000000	73.199661
1416.000000	73.353322
1415.000000	73.534112
1414.000000	73.730843
1413.000000	73.933445
1412.000000	74.130965
1411.000000	74.312382
1410.000000	74.478762
1409.000000	74.647509
1408.000000	74.832270
1407.000000	75.028184
1406.000000	75.216916
1405.000000	75.378931
1404.000000	75.504797
1403.000000	75.594745
1402.000000	75.638460
1401.000000	75.592177
1400.000000	75.387345
1399.000000	75.011665
1398.000000	74.582218
1397.000000	74.273116
1396.000000	74.188775
1395.000000	74.316319
1394.000000	74.544656
1393.000000	74.761731
1392.000000	74.946510
1391.000000	75.151503
1390.000000	75.434510
1389.000000	75.811644
1388.000000	76.246217
1387.000000	76.676207
1386.000000	77.063667
1385.000000	77.411489
1384.000000	77.734900
1383.000000	78.036718
1382.000000	78.310877
1381.000000	78.550085
1380.000000	78.742557
1379.000000	78.872148
1378.000000	78.924993
1377.000000	78.868705
1376.000000	78.589764
1375.000000	77.842924
1374.000000	76.295635
1373.000000	73.710641
1372.000000	70.127241
1371.000000	65.928438
1370.000000	61.836898
1369.000000	58.772763
1368.000000	57.435813
1367.000000	57.840562
1366.000000	59.341691
1365.000000	61.084920
1364.000000	62.342438
1363.000000	62.653199
1362.000000	61.986408
1361.000000	60.831928
1360.000000	59.966441
1359.000000	60.045245
1358.000000	61.302002
1357.000000	63.465297
1356.000000	65.964560
1355.000000	68.280560
1354.000000	70.167491
1353.000000	71.633932
1352.000000	72.785539
1351.000000	73.717495
1350.000000	74.495615
1349.000000	75.155928
1348.000000	75.712360
1347.000000	76.178785
1346.000000	76.578535
1345.000000	76.930883
1344.000000	77.247551
1343.000000	77.543923
1342.000000	77.841090
1341.000000	78.142165
1340.000000	78.419971
1339.000000	78.649579
1338.000000	78.838918
1337.000000	79.012581
1336.000000	79.179832
1335.000000	79.330188
1334.000000	79.441488
1333.000000	79.463522
1332.000000	79.302444
1331.000000	78.842241
1330.000000	77.994151
1329.000000	76.734008
1328.000000	75.079579
1327.000000	73.042876
1326.000000	70.631826
1325.000000	67.952272
1324.000000	65.351296
1323.000000	63.373979
1322.000000	62.446765
1321.000000	62.569862
1320.000000	63.342745
1319.000000	64.279149
1318.000000	65.104541
1317.000000	65.790674
1316.000000	66.403288
1315.000000	66.994420
1314.000000	67.602810
1313.000000	68.289480
1312.000000	69.128375
1311.000000	70.153482
1310.000000	71.315096
1309.000000	72.485528
1308.000000	73.510281
1307.000000	74.271398
1306.000000	74.719026
1305.000000	74.843908
1304.000000	74.643768
1303.000000	74.114834
1302.000000	73.262387
1301.000000	72.130311
1300.000000	70.841100
1299.000000	69.613738
1298.000000	68.695511
1297.000000	68.227626
1296.000000	68.159497
1295.000000	68.279434
1294.000000	68.320753
1293.000000	68.058514
1292.000000	67.360840
1291.000000	66.196098
1290.000000	64.595536
1289.000000	62.623888
1288.000000	60.420880
1287.000000	58.271902
1286.000000	56.568584
1285.000000	55.630788
1284.000000	55.543853
1283.000000	56.159506
1282.000000	57.253096
1281.000000	58.663151
1280.000000	60.286882
1279.000000	61.971415
1278.000000	63.464918
1277.000000	64.512818
1276.000000	64.991554
1275.000000	64.952298
1274.000000	64.574517
1273.000000	64.107790
1272.000000	63.830941
1271.000000	63.990233
1270.000000	64.702765
1269.000000	65.898106
1268.000000	67.365258
1267.000000	68.872303
1266.000000	70.261329
1265.000000	71.471033
1264.000000	72.506633
1263.000000	73.398275
1262.000000	74.173742
1261.000000	74.847778
1260.000000	75.423955
1259.000000	75.905872
1258.000000	76.309233
1257.000000	76.654617
1256.000000	76.957762
1255.000000	77.231779
1254.000000	77.490180
1253.000000	77.743261
1252.000000	77.991146
1251.000000	78.228778
1250.000000	78.454505
1249.000000	78.668192
1248.000000	78.867786
1247.000000	79.053543
1246.000000	79.231966
1245.000000	79.409760
1244.000000	79.586034
1243.000000	79.755884
1242.000000	79.916476
1241.000000	80.063631
1240.000000	80.187292
1239.000000	80.277310
1238.000000	80.333001
1237.000000	80.360626
1236.000000	80.365847
1235.000000	80.355506
1234.000000	80.339640
1233.000000	80.324460
1232.000000	80.304412
1231.000000	80.265969
1230.000000	80.196880
1229.000000	80.083571
1228.000000	79.907460
1227.000000	79.649769
1226.000000	79.295738
1225.000000	78.832198
1224.000000	78.234999
1223.000000	77.470687
1222.000000	76.502477
1221.000000	75.288143
1220.000000	73.795252
1219.000000	72.019939
1218.000000	70.000751
1217.000000	67.814795
1216.000000	65.568119
1215.000000	63.393381
1214.000000	61.441233
1213.000000	59.860085
1212.000000	58.771963
1211.000000	58.245792
1210.000000	58.251601
1209.000000	58.655956
1208.000000	59.263555
1207.000000	59.867302
1206.000000	60.293370
1205.000000	60.423841
1204.000000	60.205866
1203.000000	59.649440
1202.000000	58.821355
1201.000000	57.844309
1200.000000	56.896755
1199.000000	56.186464
1198.000000	55.886703
1197.000000	56.072679
1196.000000	56.714725
1195.000000	57.709413
1194.000000	58.927570
1193.000000	60.259389
1192.000000	61.629866
1191.000000	62.999202
1190.000000	64.345393
1189.000000	65.652474
1188.000000	66.907588
1187.000000	68.097695
1186.000000	69.207875
1185.000000	70.225925
1184.000000	71.146709
1183.000000	71.967824
1182.000000	72.688865
1181.000000	73.308970
1180.000000	73.831264
1179.000000	74.268743
1178.000000	74.637182
1177.000000	74.947413
1176.000000	75.197269
1175.000000	75.376096
1174.000000	75.473330
1173.000000	75.471197
1172.000000	75.342223
1171.000000	75.046306
1170.000000	74.532923
1169.000000	73.749518
1168.000000	72.652189
1167.000000	71.242932
1166.000000	69.602955
1165.000000	67.899786
1164.000000	66.360701
1163.000000	65.216882
1162.000000	64.625767
1161.000000	64.623497
1160.000000	65.135395
1159.000000	66.012751
1158.000000	67.088524
1157.000000	68.211602
1156.000000	69.266034
1155.000000	70.177330
1154.000000	70.904692
1153.000000	71.431821
1152.000000	71.759011
1151.000000	71.898818
1150.000000	71.866590
1149.000000	71.676756
1148.000000	71.325106
1147.000000	70.783951
1146.000000	70.003566
1145.000000	68.903184
1144.000000	67.390739
1143.000000	65.382374
1142.000000	62.843562
1141.000000	59.839443
1140.000000	56.557520
1139.000000	53.282176
1138.000000	50.288025
1137.000000	47.722266
1136.000000	45.563687
1135.000000	43.689617
1134.000000	41.991001
1133.000000	40.505036
1132.000000	39.471898
1131.000000	39.231979
1130.000000	40.050629
1129.000000	41.946120
1128.000000	44.665271
1127.000000	47.771927
1126.000000	50.767804
1125.000000	53.205791
1124.000000	54.753383
1123.000000	55.213463
1122.000000	54.532041
1121.000000	52.807564
1120.000000	50.233278
1119.000000	47.059923
1118.000000	43.616542
1117.000000	40.377686
1116.000000	37.962841
1115.000000	36.957210
1114.000000	37.619713
1113.000000	39.721076
1112.000000	42.638420
1111.000000	45.578487
1110.000000	47.867045
1109.000000	49.201464
1108.000000	49.752434
1107.000000	50.020821
1106.000000	50.504971
1105.000000	51.418368
1104.000000	52.637472
1103.000000	53.829712
1102.000000	54.586712
1101.000000	54.555634
1100.000000	53.586856
1099.000000	51.884468
1098.000000	50.029891
1097.000000	48.774978
1096.000000	48.693365
1095.000000	49.915250
1094.000000	52.111912
1093.000000	54.726214
1092.000000	57.277231
1091.000000	59.506122
1090.000000	61.355084
1089.000000	62.872161
1088.000000	64.132488
1087.000000	65.206796
1086.000000	66.155169
1085.000000	67.021713
1084.000000	67.829601
1083.000000	68.591888
1082.000000	69.313497
1081.000000	69.992928
1080.000000	70.621888
1079.000000	71.184615
1078.000000	71.665128
1077.000000	72.039960
1076.000000	72.275139
1075.000000	72.330849
1074.000000	72.154280
1073.000000	71.680624
1072.000000	70.804185
1071.000000	69.370717
1070.000000	67.189239
1069.000000	64.033571
1068.000000	59.733038
1067.000000	54.308264
1066.000000	48.127706
1065.000000	41.949093
1064.000000	36.728378
1063.000000	33.204680
1062.000000	31.474310
1061.000000	30.889754
1060.000000	30.430570
1059.000000	29.348400
1058.000000	27.595393
1057.000000	25.823188
1056.000000	24.954217
1055.000000	25.593626
1054.000000	27.739669
1053.000000	30.892168
1052.000000	34.418017
1051.000000	37.848701
1050.000000	40.942920
1049.000000	43.644507
1048.000000	46.004656
1047.000000	48.111167
1046.000000	50.026994
1045.000000	51.776024
1044.000000	53.356796
1043.000000	54.766623
1042.000000	56.007892
1041.000000	57.082088
1040.000000	58.001557
1039.000000	58.786680
1038.000000	59.459343
1037.000000	60.038636
1036.000000	60.540172
1035.000000	60.982510
1034.000000	61.379270
1033.000000	61.735174
1032.000000	62.052773
1031.000000	62.337120
1030.000000	62.595894
1029.000000	62.833235
1028.000000	63.049000
1027.000000	63.241155
1026.000000	63.401766
1025.000000	63.517189
1024.000000	63.571946
1023.000000	63.553542
1022.000000	63.454288
1021.000000	63.263507
1020.000000	62.968619
1019.000000	62.551712
1018.000000	61.979679
1017.000000	61.204249
1016.000000	60.166461
1015.000000	58.828708
1014.000000	57.210926
1013.000000	55.420323
1012.000000	53.654922
1011.000000	52.143890
1010.000000	51.032033
1009.000000	50.280845
1008.000000	49.689269
1007.000000	49.047097
1006.000000	48.340885
1005.000000	47.830814
1004.000000	47.910250
1003.000000	48.830978
1002.000000	50.500304
1001.000000	52.540881
1000.000000	54.510699
999.000000	56.088280
998.000000	57.122925
997.000000	57.597344
996.000000	57.593136
995.000000	57.278166
994.000000	56.890200
993.000000	56.688890
992.000000	56.884933
991.000000	57.561059
990.000000	58.633766
989.000000	59.903360
988.000000	61.168009
987.000000	62.302627
986.000000	63.268648
985.000000	64.080701
984.000000	64.774697
983.000000	65.390414
982.000000	65.960072
981.000000	66.500010
980.000000	67.012860
979.000000	67.497982
978.000000	67.950374
977.000000	68.359941
976.000000	68.716164
975.000000	69.015813
974.000000	69.266526
973.000000	69.481454
972.000000	69.677642
971.000000	69.875576
970.000000	70.093124
969.000000	70.338117
968.000000	70.606748
967.000000	70.888377
966.000000	71.168390
965.000000	71.428578
964.000000	71.652401
963.000000	71.832567
962.000000	71.973522
961.000000	72.087204
960.000000	72.189141
959.000000	72.298199
958.000000	72.432432
957.000000	72.601267
956.000000	72.802413
955.000000	73.025841
954.000000	73.257492
953.000000	73.479901
952.000000	73.675732
951.000000	73.835627
950.000000	73.961713
949.000000	74.063762
948.000000	74.154967
947.000000	74.251397
946.000000	74.369116
945.000000	74.516518
944.000000	74.690917
943.000000	74.882886
942.000000	75.080893
941.000000	75.271215
940.000000	75.439266
939.000000	75.576625
938.000000	75.685678
937.000000	75.775333
936.000000	75.855417
935.000000	75.936504
934.000000	76.030003
933.000000	76.142691
932.000000	76.272767
931.000000	76.414036
930.000000	76.560660
929.000000	76.705811
928.000000	76.840672
927.000000	76.960016
926.000000	77.066375
925.000000	77.164822
924.000000	77.256989
923.000000	77.343833
922.000000	77.429847
921.000000	77.519344
920.000000	77.611446
919.000000	77.704011
918.000000	77.799631
917.000000	77.902406
916.000000	78.011883
915.000000	78.125548
914.000000	78.243610
913.000000	78.365123
912.000000	78.480466
911.000000	78.575070
910.000000	78.634964
909.000000	78.639790
908.000000	78.554486
907.000000	78.330509
906.000000	77.921661
905.000000	77.289476
904.000000	76.412006
903.000000	75.324696
902.000000	74.171597
901.000000	73.202723
900.000000	72.681411
899.000000	72.746482
898.000000	73.329590
897.000000	74.208256
896.000000	75.136106
895.000000	75.953776
894.000000	76.618565
893.000000	77.156196
892.000000	77.609463
891.000000	78.011992
890.000000	78.384283
889.000000	78.729244
888.000000	79.032775
887.000000	79.263320
886.000000	79.372111
885.000000	79.296592
884.000000	78.984434
883.000000	78.450895
882.000000	77.805769
881.000000	77.199469
880.000000	76.714784
879.000000	76.311862
878.000000	75.897311
877.000000	75.453586
876.000000	75.102048
875.000000	75.022352
874.000000	75.308939
873.000000	75.894339
872.000000	76.605053
871.000000	77.279881
870.000000	77.843168
869.000000	78.298475
868.000000	78.679954
867.000000	79.019599
866.000000	79.335677
865.000000	79.630998
864.000000	79.894047
863.000000	80.110955
862.000000	80.277138
861.000000	80.396984
860.000000	80.479135
859.000000	80.535839
858.000000	80.584792
857.000000	80.642524
856.000000	80.716166
855.000000	80.806020
854.000000	80.911732
853.000000	81.031120
852.000000	81.155993
851.000000	81.276143
850.000000	81.386337
849.000000	81.484308
848.000000	81.564925
847.000000	81.623300
846.000000	81.662049
845.000000	81.690106
844.000000	81.716075
843.000000	81.748256
842.000000	81.797624
841.000000	81.873504
840.000000	81.976885
839.000000	82.102339
838.000000	82.242822
837.000000	82.386661
836.000000	82.513747
835.000000	82.604346
834.000000	82.652252
833.000000	82.665093
832.000000	82.655954
831.000000	82.643124
830.000000	82.654042
829.000000	82.716787
828.000000	82.843606
827.000000	83.026470
826.000000	83.245813
825.000000	83.474759
824.000000	83.678724
823.000000	83.825686
822.000000	83.903501
821.000000	83.922873
820.000000	83.906683
819.000000	83.883977
818.000000	83.888368
817.000000	83.947481
816.000000	84.067725
815.000000	84.232130
814.000000	84.409969
813.000000	84.561847
812.000000	84.642678
811.000000	84.614401
810.000000	84.463136
809.000000	84.200332
808.000000	83.845752
807.000000	83.418260
806.000000	82.930053
805.000000	82.373181
804.000000	81.707839
803.000000	80.864109
802.000000	79.765672
801.000000	78.343375
800.000000	76.545975
799.000000	74.363788
798.000000	71.841897
797.000000	69.077005
796.000000	66.192283
795.000000	63.319522
794.000000	60.588176
793.000000	58.118314
792.000000	56.016376
791.000000	54.371924
790.000000	53.253690
789.000000	52.692508
788.000000	52.676805
787.000000	53.144069
786.000000	53.989818
785.000000	55.089596
784.000000	56.312280
783.000000	57.533786
782.000000	58.642061
781.000000	59.546813
780.000000	60.184994
779.000000	60.529831
778.000000	60.596835
777.000000	60.435573
776.000000	60.104583
775.000000	59.649215
774.000000	59.108915
773.000000	58.541151
772.000000	58.043056
771.000000	57.743494
770.000000	57.769142
769.000000	58.195615
768.000000	59.016887
767.000000	60.151230
766.000000	61.480650
765.000000	62.896982
764.000000	64.320378
763.000000	65.701499
762.000000	67.016446
761.000000	68.256841
760.000000	69.413693
759.000000	70.471636
758.000000	71.418911
757.000000	72.254060
756.000000	72.982762
755.000000	73.617267
754.000000	74.185398
753.000000	74.727154
752.000000	75.275843
751.000000	75.845724
750.000000	76.434474
749.000000	77.025865
748.000000	77.585514
747.000000	78.068673
746.000000	78.444658
745.000000	78.711373
744.000000	78.888663
743.000000	79.009367
742.000000	79.118113
741.000000	79.261727
740.000000	79.467203
739.000000	79.731006
738.000000	80.027650
737.000000	80.316704
736.000000	80.543059
735.000000	80.651492
734.000000	80.616827
733.000000	80.456282
732.000000	80.214006
731.000000	79.945751
730.000000	79.713932
729.000000	79.569976
728.000000	79.526353
727.000000	79.548770
726.000000	79.574621
725.000000	79.534376
724.000000	79.358306
723.000000	78.980396
722.000000	78.344072
721.000000	77.405086
720.000000	76.139060
719.000000	74.568847
718.000000	72.791637
717.000000	70.972556
716.000000	69.305307
715.000000	67.967325
714.000000	67.091680
713.000000	66.742096
712.000000	66.892005
711.000000	67.436830
710.000000	68.249829
709.000000	69.229080
708.000000	70.298507
707.000000	71.397421
706.000000	72.486951
705.000000	73.552115
704.000000	74.577511
703.000000	75.533711
702.000000	76.400453
701.000000	77.183344
700.000000	77.891076
699.000000	78.521247
698.000000	79.079230
697.000000	79.589736
696.000000	80.071352
695.000000	80.515054
694.000000	80.909571
693.000000	81.263306
692.000000	81.581984
691.000000	81.854281
690.000000	82.077726
689.000000	82.279623
688.000000	82.488865
687.000000	82.706270
686.000000	82.928636
685.000000	83.166664
684.000000	83.410448
683.000000	83.614714
682.000000	83.749592
681.000000	83.831318
680.000000	83.878639
679.000000	83.886494
678.000000	83.873934
677.000000	83.891794
676.000000	83.967294
675.000000	84.102085
674.000000	84.293237
673.000000	84.557249
672.000000	84.959241
671.000000	85.594977
670.000000	86.453538
669.000000	87.236645
668.000000	87.427472
667.000000	86.848277
666.000000	85.933719
665.000000	85.207922
664.000000	84.882840
663.000000	84.892058
662.000000	85.060427
661.000000	85.244598
660.000000	85.371260
659.000000	85.418317
658.000000	85.396228
657.000000	85.325972
656.000000	85.231774
655.000000	85.168673
654.000000	85.177392
653.000000	85.241210
652.000000	85.332344
651.000000	85.447278
650.000000	85.567604
649.000000	85.635739
648.000000	85.611445
647.000000	85.516323
646.000000	85.393203
645.000000	85.263648
644.000000	85.146088
643.000000	85.072241
642.000000	85.055018
641.000000	85.061783
640.000000	85.050268
639.000000	85.007099
638.000000	84.929111
637.000000	84.801923
636.000000	84.627253
635.000000	84.441293
634.000000	84.280030
633.000000	84.148530
632.000000	84.039694
631.000000	83.953749
630.000000	83.875175
629.000000	83.759384
628.000000	83.570870
627.000000	83.314900
626.000000	83.011452
625.000000	82.673190
624.000000	82.324987
623.000000	82.014024
622.000000	81.770868
621.000000	81.577447
620.000000	81.391524
619.000000	81.171283
618.000000	80.862942
617.000000	80.404010
616.000000	79.777909
615.000000	79.040400
614.000000	78.263944
613.000000	77.482268
612.000000	76.706193
611.000000	75.951251
610.000000	75.209515
609.000000	74.421130
608.000000	73.514222
607.000000	72.451306
606.000000	71.210344
605.000000	69.768087
604.000000	68.140135
603.000000	66.404765
602.000000	64.637962
601.000000	62.858938
600.000000	61.074057
599.000000	59.326961
598.000000	57.646179
597.000000	55.993526
596.000000	54.328110
595.000000	52.671810
594.000000	51.059757
593.000000	49.478796
592.000000	47.931494
591.000000	46.496318
590.000000	45.248423
589.000000	44.175079
588.000000	43.227871
587.000000	42.386250
586.000000	41.597488
585.000000	40.737614
584.000000	39.718527
583.000000	38.579834
582.000000	37.416605
581.000000	36.299916
580.000000	35.329535
579.000000	34.679506
578.000000	34.477998
577.000000	34.714614
576.000000	35.311338
575.000000	36.181859
574.000000	37.180276
573.000000	38.094493
572.000000	38.792517
571.000000	39.330752
570.000000	39.877985
569.000000	40.574693
568.000000	41.489486
567.000000	42.621904
566.000000	43.874580
565.000000	45.091387
564.000000	46.180314
563.000000	47.156112
562.000000	48.048982
561.000000	48.844029
560.000000	49.538124
559.000000	50.178026
558.000000	50.797945
557.000000	51.382669
556.000000	51.927351
555.000000	52.478399
554.000000	53.069332
553.000000	53.676718
552.000000	54.277207
551.000000	54.890680
550.000000	55.529211
549.000000	56.157769
548.000000	56.748042
547.000000	57.319199
546.000000	57.888825
545.000000	58.431903
544.000000	58.927727
543.000000	59.397635
542.000000	59.862637
541.000000	60.307356
540.000000	60.721858
539.000000	61.133822
538.000000	61.564448
537.000000	61.994168
536.000000	62.401743
535.000000	62.801856
534.000000	63.205085
533.000000	63.586018
532.000000	63.909356
531.000000	64.163093
530.000000	64.345313
529.000000	64.442633
528.000000	64.439006
527.000000	64.335340
526.000000	64.127796
525.000000	63.796425
524.000000	63.347024
523.000000	62.829169
522.000000	62.304704
521.000000	61.813073
520.000000	61.365316
519.000000	60.917401
518.000000	60.309172
517.000000	59.300363
516.000000	57.735875
515.000000	55.679821
514.000000	53.377370
513.000000	51.142064
512.000000	49.288604
511.000000	48.085918
510.000000	47.659701
509.000000	47.954860
508.000000	48.838052
507.000000	50.163098
506.000000	51.744062
505.000000	53.381732
504.000000	54.962581
503.000000	56.477962
502.000000	57.917537
501.000000	59.230584
500.000000	60.399124
499.000000	61.471786
498.000000	62.486896
497.000000	63.428921
496.000000	64.275802
495.000000	65.038126
494.000000	65.735818
493.000000	66.361973
492.000000	66.908056
491.000000	67.402078
490.000000	67.880794
489.000000	68.362891
488.000000	68.857137
487.000000	69.376766
486.000000	69.918345
485.000000	70.443908
484.000000	70.914522
483.000000	71.326172
482.000000	71.688762
481.000000	71.991471
480.000000	72.224752
479.000000	72.413104
478.000000	72.575822
477.000000	72.696230
476.000000	72.755643
475.000000	72.749883
474.000000	72.631279
473.000000	72.273559
472.000000	71.574618
471.000000	70.603997
470.000000	69.548686
469.000000	68.583639
468.000000	67.855976
467.000000	67.451628
466.000000	67.260984
465.000000	66.976478
464.000000	66.307287
463.000000	65.204529
462.000000	63.933158
461.000000	62.928717
460.000000	62.611540
459.000000	63.245624
458.000000	64.752125
457.000000	66.635794
456.000000	68.355524
455.000000	69.730954
454.000000	70.820760
453.000000	71.669655
452.000000	72.294569
451.000000	72.775222
450.000000	73.176503
449.000000	73.446860
448.000000	73.457337
447.000000	73.100621
446.000000	72.345741
445.000000	71.262651
444.000000	70.067205
443.000000	69.096899
442.000000	68.620843
441.000000	68.664469
440.000000	69.113450
439.000000	69.868418
438.000000	70.826840
437.000000	71.829752
436.000000	72.713497
435.000000	73.393893
434.000000	73.845288
433.000000	74.042599
432.000000	73.979801
431.000000	73.724430
430.000000	73.402618
429.000000	73.118431
428.000000	72.943744
427.000000	72.939839
426.000000	73.100029
425.000000	73.301699
424.000000	73.401828
423.000000	73.371309
422.000000	73.247134
421.000000	73.002325
420.000000	72.574417
419.000000	72.051467
418.000000	71.678951
417.000000	71.533838
416.000000	71.530264
415.000000	71.646734
414.000000	71.878209
413.000000	72.129692
412.000000	72.302795
411.000000	72.398619
410.000000	72.459890
409.000000	72.459091
408.000000	72.383851
407.000000	72.351662
406.000000	72.481745
405.000000	72.726510
404.000000	72.990511
403.000000	73.299059
402.000000	73.710742
401.000000	74.164299
400.000000	74.537445
