PE IR       SUBTECH     SPECTRUM    ASCII       PEDS        4.00        
   -1
23ms175-trans.asc
24/09/23
15:52:01.00
24/09/23
15:52:01.00
Administrator
Sample 1182 By Administrator Date Monday, September 23 2024
400.000000
#HDR
-1
-1
#GR
cm-1
%T
1.0
0.0
4000.000000
-1.000000
3601
8
68.274577
9.642990
#DATA
4000.000000	26.353398
3999.000000	26.349952
3998.000000	26.345723
3997.000000	26.340490
3996.000000	26.334555
3995.000000	26.328194
3994.000000	26.321057
3993.000000	26.312517
3992.000000	26.302600
3991.000000	26.292099
3990.000000	26.281860
3989.000000	26.272248
3988.000000	26.263328
3987.000000	26.255413
3986.000000	26.249195
3985.000000	26.245460
3984.000000	26.244630
3983.000000	26.246489
3982.000000	26.250165
3981.000000	26.254123
3980.000000	26.256554
3979.000000	26.256384
3978.000000	26.253994
3977.000000	26.250809
3976.000000	26.248410
3975.000000	26.247931
3974.000000	26.250007
3973.000000	26.254750
3972.000000	26.262042
3971.000000	26.271995
3970.000000	26.285166
3969.000000	26.302570
3968.000000	26.324841
3967.000000	26.351215
3966.000000	26.379589
3965.000000	26.407777
3964.000000	26.434792
3963.000000	26.461155
3962.000000	26.487612
3961.000000	26.513562
3960.000000	26.537710
3959.000000	26.559698
3958.000000	26.580330
3957.000000	26.601103
3956.000000	26.622810
3955.000000	26.644954
3954.000000	26.666222
3953.000000	26.685271
3952.000000	26.701455
3951.000000	26.714516
3950.000000	26.725162
3949.000000	26.735833
3948.000000	26.748580
3947.000000	26.762315
3946.000000	26.774446
3945.000000	26.785082
3944.000000	26.797729
3943.000000	26.815886
3942.000000	26.839036
3941.000000	26.862048
3940.000000	26.881069
3939.000000	26.898196
3938.000000	26.917589
3937.000000	26.939987
3936.000000	26.961078
3935.000000	26.975778
3934.000000	26.982634
3933.000000	26.984444
3932.000000	26.986520
3931.000000	26.992360
3930.000000	27.001950
3929.000000	27.012332
3928.000000	27.019822
3927.000000	27.025238
3926.000000	27.034195
3925.000000	27.050497
3924.000000	27.070924
3923.000000	27.087945
3922.000000	27.098270
3921.000000	27.104327
3920.000000	27.108228
3919.000000	27.110530
3918.000000	27.113478
3917.000000	27.120739
3916.000000	27.132868
3915.000000	27.146626
3914.000000	27.160565
3913.000000	27.176534
3912.000000	27.196778
3911.000000	27.222574
3910.000000	27.251623
3909.000000	27.279690
3908.000000	27.301848
3907.000000	27.315398
3906.000000	27.322033
3905.000000	27.324882
3904.000000	27.323992
3903.000000	27.313677
3902.000000	27.289163
3901.000000	27.259320
3900.000000	27.242828
3899.000000	27.250208
3898.000000	27.276848
3897.000000	27.310134
3896.000000	27.341835
3895.000000	27.369826
3894.000000	27.391941
3893.000000	27.408412
3892.000000	27.427559
3891.000000	27.457787
3890.000000	27.486709
3889.000000	27.493686
3888.000000	27.478592
3887.000000	27.459276
3886.000000	27.457248
3885.000000	27.478945
3884.000000	27.502420
3883.000000	27.504489
3882.000000	27.490679
3881.000000	27.486095
3880.000000	27.508814
3879.000000	27.547817
3878.000000	27.574429
3877.000000	27.579631
3876.000000	27.580435
3875.000000	27.597291
3874.000000	27.630252
3873.000000	27.654784
3872.000000	27.650901
3871.000000	27.628535
3870.000000	27.617454
3869.000000	27.627521
3868.000000	27.634395
3867.000000	27.624541
3866.000000	27.614024
3865.000000	27.618297
3864.000000	27.640736
3863.000000	27.672292
3862.000000	27.697995
3861.000000	27.715242
3860.000000	27.733143
3859.000000	27.762553
3858.000000	27.806457
3857.000000	27.856270
3856.000000	27.890947
3855.000000	27.882096
3854.000000	27.837352
3853.000000	27.813687
3852.000000	27.813430
3851.000000	27.787718
3850.000000	27.745777
3849.000000	27.726498
3848.000000	27.743179
3847.000000	27.787540
3846.000000	27.842441
3845.000000	27.893362
3844.000000	27.936414
3843.000000	27.970312
3842.000000	27.988770
3841.000000	27.988776
3840.000000	27.972507
3839.000000	27.948198
3838.000000	27.928601
3837.000000	27.920903
3836.000000	27.919246
3835.000000	27.914546
3834.000000	27.909466
3833.000000	27.916016
3832.000000	27.941150
3831.000000	27.979208
3830.000000	28.015178
3829.000000	28.038506
3828.000000	28.057034
3827.000000	28.087311
3826.000000	28.130656
3825.000000	28.169076
3824.000000	28.184594
3823.000000	28.175432
3822.000000	28.160836
3821.000000	28.170734
3820.000000	28.194603
3819.000000	28.187683
3818.000000	28.145647
3817.000000	28.106747
3816.000000	28.107045
3815.000000	28.145017
3814.000000	28.183541
3813.000000	28.202837
3812.000000	28.218054
3811.000000	28.244992
3810.000000	28.280085
3809.000000	28.310874
3808.000000	28.336659
3807.000000	28.368857
3806.000000	28.403136
3805.000000	28.411819
3804.000000	28.385604
3803.000000	28.346449
3802.000000	28.326186
3801.000000	28.343239
3800.000000	28.369720
3799.000000	28.365665
3798.000000	28.339282
3797.000000	28.325794
3796.000000	28.342728
3795.000000	28.378097
3794.000000	28.410281
3793.000000	28.432234
3792.000000	28.451046
3791.000000	28.474812
3790.000000	28.504155
3789.000000	28.533139
3788.000000	28.555491
3787.000000	28.569046
3786.000000	28.578531
3785.000000	28.590656
3784.000000	28.604579
3783.000000	28.611626
3782.000000	28.606978
3781.000000	28.596700
3780.000000	28.593167
3779.000000	28.602696
3778.000000	28.616194
3777.000000	28.622410
3776.000000	28.625268
3775.000000	28.635955
3774.000000	28.655385
3773.000000	28.674354
3772.000000	28.686603
3771.000000	28.694110
3770.000000	28.701542
3769.000000	28.706527
3768.000000	28.698477
3767.000000	28.677614
3766.000000	28.661340
3765.000000	28.663421
3764.000000	28.677986
3763.000000	28.688517
3762.000000	28.690445
3761.000000	28.690948
3760.000000	28.695253
3759.000000	28.705954
3758.000000	28.720355
3757.000000	28.732753
3756.000000	28.742043
3755.000000	28.752840
3754.000000	28.769008
3753.000000	28.782627
3752.000000	28.779625
3751.000000	28.765283
3750.000000	28.759268
3749.000000	28.757304
3748.000000	28.734323
3747.000000	28.688893
3746.000000	28.639691
3745.000000	28.611230
3744.000000	28.638404
3743.000000	28.695348
3742.000000	28.717659
3741.000000	28.709404
3740.000000	28.708339
3739.000000	28.727630
3738.000000	28.756298
3737.000000	28.777725
3736.000000	28.786331
3735.000000	28.783133
3734.000000	28.772413
3733.000000	28.764390
3732.000000	28.771320
3731.000000	28.792593
3730.000000	28.812786
3729.000000	28.823565
3728.000000	28.830851
3727.000000	28.842632
3726.000000	28.859464
3725.000000	28.872591
3724.000000	28.875382
3723.000000	28.870345
3722.000000	28.866916
3721.000000	28.870096
3720.000000	28.874721
3719.000000	28.879737
3718.000000	28.889949
3717.000000	28.905267
3716.000000	28.919876
3715.000000	28.928114
3714.000000	28.927716
3713.000000	28.917671
3712.000000	28.902006
3711.000000	28.888117
3710.000000	28.872720
3709.000000	28.850499
3708.000000	28.828564
3707.000000	28.817035
3706.000000	28.817755
3705.000000	28.824425
3704.000000	28.829764
3703.000000	28.831591
3702.000000	28.833305
3701.000000	28.836593
3700.000000	28.832723
3699.000000	28.815453
3698.000000	28.794747
3697.000000	28.783548
3696.000000	28.783809
3695.000000	28.788134
3694.000000	28.788902
3693.000000	28.781972
3692.000000	28.763080
3691.000000	28.726261
3690.000000	28.670448
3689.000000	28.610293
3688.000000	28.562683
3687.000000	28.522639
3686.000000	28.479862
3685.000000	28.442240
3684.000000	28.420762
3683.000000	28.414729
3682.000000	28.416369
3681.000000	28.421807
3680.000000	28.429314
3679.000000	28.425264
3678.000000	28.390909
3677.000000	28.316890
3676.000000	28.227029
3675.000000	28.164082
3674.000000	28.114008
3673.000000	28.033904
3672.000000	27.931516
3671.000000	27.838637
3670.000000	27.779188
3669.000000	27.753841
3668.000000	27.728505
3667.000000	27.679323
3666.000000	27.620092
3665.000000	27.570725
3664.000000	27.532879
3663.000000	27.497669
3662.000000	27.458234
3661.000000	27.413233
3660.000000	27.359754
3659.000000	27.290336
3658.000000	27.202439
3657.000000	27.106933
3656.000000	27.021817
3655.000000	26.946324
3654.000000	26.863869
3653.000000	26.770843
3652.000000	26.671178
3651.000000	26.557397
3650.000000	26.421735
3649.000000	26.272298
3648.000000	26.123349
3647.000000	25.982760
3646.000000	25.855836
3645.000000	25.746669
3644.000000	25.654989
3643.000000	25.577008
3642.000000	25.505484
3641.000000	25.431678
3640.000000	25.348533
3639.000000	25.254211
3638.000000	25.150717
3637.000000	25.038217
3636.000000	24.917694
3635.000000	24.796521
3634.000000	24.685384
3633.000000	24.584838
3632.000000	24.479293
3631.000000	24.344652
3630.000000	24.165955
3629.000000	23.968944
3628.000000	23.795178
3627.000000	23.641913
3626.000000	23.493481
3625.000000	23.361036
3624.000000	23.255840
3623.000000	23.170010
3622.000000	23.083224
3621.000000	22.976123
3620.000000	22.842890
3619.000000	22.696111
3618.000000	22.549626
3617.000000	22.403998
3616.000000	22.257890
3615.000000	22.115742
3614.000000	21.982836
3613.000000	21.860495
3612.000000	21.742008
3611.000000	21.615484
3610.000000	21.474718
3609.000000	21.325240
3608.000000	21.179850
3607.000000	21.046969
3606.000000	20.925210
3605.000000	20.811336
3604.000000	20.703613
3603.000000	20.598787
3602.000000	20.492746
3601.000000	20.383153
3600.000000	20.269473
3599.000000	20.152615
3598.000000	20.033110
3597.000000	19.909754
3596.000000	19.782710
3595.000000	19.655011
3594.000000	19.532397
3593.000000	19.419873
3592.000000	19.317182
3591.000000	19.218044
3590.000000	19.111667
3589.000000	18.987306
3588.000000	18.844761
3587.000000	18.697281
3586.000000	18.558078
3585.000000	18.432712
3584.000000	18.322938
3583.000000	18.227545
3582.000000	18.141982
3581.000000	18.060488
3580.000000	17.978145
3579.000000	17.891296
3578.000000	17.798789
3577.000000	17.701968
3576.000000	17.603397
3575.000000	17.505290
3574.000000	17.409349
3573.000000	17.318165
3572.000000	17.233443
3571.000000	17.152750
3570.000000	17.069059
3569.000000	16.973527
3568.000000	16.861781
3567.000000	16.739793
3566.000000	16.619129
3565.000000	16.507410
3564.000000	16.407448
3563.000000	16.319310
3562.000000	16.241222
3561.000000	16.170836
3560.000000	16.105175
3559.000000	16.040526
3558.000000	15.974450
3557.000000	15.906992
3556.000000	15.838228
3555.000000	15.766215
3554.000000	15.688816
3553.000000	15.607331
3552.000000	15.526145
3551.000000	15.448063
3550.000000	15.372033
3549.000000	15.294461
3548.000000	15.211119
3547.000000	15.120171
3546.000000	15.025696
3545.000000	14.935878
3544.000000	14.856674
3543.000000	14.788464
3542.000000	14.728445
3541.000000	14.673381
3540.000000	14.618936
3539.000000	14.560158
3538.000000	14.494930
3537.000000	14.426327
3536.000000	14.359605
3535.000000	14.297157
3534.000000	14.238076
3533.000000	14.180664
3532.000000	14.123301
3531.000000	14.064021
3530.000000	14.001651
3529.000000	13.936660
3528.000000	13.869211
3527.000000	13.797660
3526.000000	13.721288
3525.000000	13.643594
3524.000000	13.570707
3523.000000	13.506784
3522.000000	13.451513
3521.000000	13.401357
3520.000000	13.351895
3519.000000	13.299887
3518.000000	13.244635
3517.000000	13.187331
3516.000000	13.129213
3515.000000	13.071149
3514.000000	13.014884
3513.000000	12.962426
3512.000000	12.912963
3511.000000	12.862405
3510.000000	12.807773
3509.000000	12.750355
3508.000000	12.692751
3507.000000	12.634739
3506.000000	12.574078
3505.000000	12.509905
3504.000000	12.444063
3503.000000	12.380083
3502.000000	12.321511
3501.000000	12.269849
3500.000000	12.223086
3499.000000	12.177439
3498.000000	12.131255
3497.000000	12.086019
3496.000000	12.043048
3495.000000	12.001327
3494.000000	11.959555
3493.000000	11.917924
3492.000000	11.876274
3491.000000	11.832543
3490.000000	11.785227
3489.000000	11.735822
3488.000000	11.687288
3487.000000	11.641636
3486.000000	11.599886
3485.000000	11.562039
3484.000000	11.525218
3483.000000	11.484243
3482.000000	11.436857
3481.000000	11.387198
3480.000000	11.342136
3479.000000	11.305108
3478.000000	11.274801
3477.000000	11.247673
3476.000000	11.219711
3475.000000	11.187578
3474.000000	11.149989
3473.000000	11.107440
3472.000000	11.060292
3471.000000	11.008972
3470.000000	10.956841
3469.000000	10.910357
3468.000000	10.874449
3467.000000	10.848985
3466.000000	10.830440
3465.000000	10.814619
3464.000000	10.796775
3463.000000	10.772494
3462.000000	10.741387
3461.000000	10.708229
3460.000000	10.678277
3459.000000	10.652667
3458.000000	10.629427
3457.000000	10.606823
3456.000000	10.583729
3455.000000	10.558880
3454.000000	10.532337
3453.000000	10.506252
3452.000000	10.482331
3451.000000	10.459613
3450.000000	10.436158
3449.000000	10.411453
3448.000000	10.385880
3447.000000	10.359751
3446.000000	10.334159
3445.000000	10.310930
3444.000000	10.290255
3443.000000	10.269914
3442.000000	10.247927
3441.000000	10.223979
3440.000000	10.197435
3439.000000	10.166915
3438.000000	10.133674
3437.000000	10.103079
3436.000000	10.080297
3435.000000	10.065819
3434.000000	10.056428
3433.000000	10.048297
3432.000000	10.038325
3431.000000	10.025232
3430.000000	10.011361
3429.000000	10.001211
3428.000000	9.996316
3427.000000	9.993731
3426.000000	9.990333
3425.000000	9.985826
3424.000000	9.980350
3423.000000	9.972451
3422.000000	9.961617
3421.000000	9.950149
3420.000000	9.940341
3419.000000	9.931837
3418.000000	9.923415
3417.000000	9.914805
3416.000000	9.905363
3415.000000	9.893877
3414.000000	9.881401
3413.000000	9.871497
3412.000000	9.865925
3411.000000	9.862786
3410.000000	9.860524
3409.000000	9.860756
3408.000000	9.864888
3407.000000	9.870603
3406.000000	9.873651
3405.000000	9.870950
3404.000000	9.860983
3403.000000	9.844642
3402.000000	9.827874
3401.000000	9.820017
3400.000000	9.826328
3399.000000	9.843423
3398.000000	9.863332
3397.000000	9.879696
3396.000000	9.888877
3395.000000	9.889168
3394.000000	9.882742
3393.000000	9.876619
3392.000000	9.878453
3391.000000	9.891414
3390.000000	9.913696
3389.000000	9.940965
3388.000000	9.968011
3387.000000	9.990708
3386.000000	10.008554
3385.000000	10.023930
3384.000000	10.038152
3383.000000	10.050352
3382.000000	10.060721
3381.000000	10.071784
3380.000000	10.085205
3379.000000	10.100064
3378.000000	10.115671
3377.000000	10.133321
3376.000000	10.153537
3375.000000	10.173944
3374.000000	10.191555
3373.000000	10.205330
3372.000000	10.215682
3371.000000	10.224170
3370.000000	10.234840
3369.000000	10.253118
3368.000000	10.281390
3367.000000	10.317249
3366.000000	10.356765
3365.000000	10.396880
3364.000000	10.434356
3363.000000	10.466184
3362.000000	10.492989
3361.000000	10.519459
3360.000000	10.549484
3359.000000	10.582826
3358.000000	10.617539
3357.000000	10.652692
3356.000000	10.687103
3355.000000	10.718365
3354.000000	10.745395
3353.000000	10.770390
3352.000000	10.797098
3351.000000	10.828708
3350.000000	10.867464
3349.000000	10.913412
3348.000000	10.962429
3347.000000	11.008248
3346.000000	11.048094
3345.000000	11.084392
3344.000000	11.120464
3343.000000	11.157086
3342.000000	11.193903
3341.000000	11.231416
3340.000000	11.270376
3339.000000	11.311486
3338.000000	11.356391
3337.000000	11.406390
3336.000000	11.459576
3335.000000	11.511948
3334.000000	11.562004
3333.000000	11.611524
3332.000000	11.661497
3331.000000	11.710363
3330.000000	11.756892
3329.000000	11.801725
3328.000000	11.845339
3327.000000	11.887708
3326.000000	11.930749
3325.000000	11.977609
3324.000000	12.028427
3323.000000	12.079771
3322.000000	12.129128
3321.000000	12.177032
3320.000000	12.223998
3319.000000	12.268810
3318.000000	12.311043
3317.000000	12.352040
3316.000000	12.392163
3315.000000	12.429840
3314.000000	12.464245
3313.000000	12.495946
3312.000000	12.524161
3311.000000	12.546647
3310.000000	12.563429
3309.000000	12.577753
3308.000000	12.592447
3307.000000	12.608439
3306.000000	12.627450
3305.000000	12.652249
3304.000000	12.682650
3303.000000	12.714623
3302.000000	12.744838
3301.000000	12.773231
3300.000000	12.800302
3299.000000	12.825323
3298.000000	12.848878
3297.000000	12.873867
3296.000000	12.902017
3295.000000	12.932042
3294.000000	12.962490
3293.000000	12.993624
3292.000000	13.025057
3291.000000	13.054167
3290.000000	13.078252
3289.000000	13.095967
3288.000000	13.105573
3287.000000	13.104690
3286.000000	13.093131
3285.000000	13.072923
3284.000000	13.044811
3283.000000	13.006845
3282.000000	12.957101
3281.000000	12.895412
3280.000000	12.820972
3279.000000	12.731845
3278.000000	12.627880
3277.000000	12.511278
3276.000000	12.383709
3275.000000	12.244792
3274.000000	12.095098
3273.000000	11.938471
3272.000000	11.780604
3271.000000	11.628159
3270.000000	11.489677
3269.000000	11.374008
3268.000000	11.286491
3267.000000	11.229689
3266.000000	11.206831
3265.000000	11.222104
3264.000000	11.275889
3263.000000	11.362251
3262.000000	11.473140
3261.000000	11.599951
3260.000000	11.731718
3259.000000	11.855667
3258.000000	11.961381
3257.000000	12.042408
3256.000000	12.093120
3255.000000	12.106757
3254.000000	12.077644
3253.000000	12.002993
3252.000000	11.879735
3251.000000	11.705510
3250.000000	11.482972
3249.000000	11.221241
3248.000000	10.933735
3247.000000	10.635199
3246.000000	10.343176
3245.000000	10.078230
3244.000000	9.861033
3243.000000	9.710207
3242.000000	9.642990
3241.000000	9.670504
3240.000000	9.789654
3239.000000	9.983134
3238.000000	10.225617
3237.000000	10.492384
3236.000000	10.762507
3235.000000	11.021230
3234.000000	11.263826
3233.000000	11.491839
3232.000000	11.705957
3231.000000	11.903631
3230.000000	12.083191
3229.000000	12.246042
3228.000000	12.393956
3227.000000	12.527667
3226.000000	12.649133
3225.000000	12.762047
3224.000000	12.868145
3223.000000	12.966598
3222.000000	13.057079
3221.000000	13.140675
3220.000000	13.217461
3219.000000	13.285708
3218.000000	13.344717
3217.000000	13.395041
3216.000000	13.435808
3215.000000	13.465231
3214.000000	13.483819
3213.000000	13.494660
3212.000000	13.499673
3211.000000	13.498746
3210.000000	13.493144
3209.000000	13.485981
3208.000000	13.479243
3207.000000	13.473265
3206.000000	13.469401
3205.000000	13.469993
3204.000000	13.475108
3203.000000	13.482707
3202.000000	13.492405
3201.000000	13.505747
3200.000000	13.522345
3199.000000	13.539435
3198.000000	13.555794
3197.000000	13.572695
3196.000000	13.590527
3195.000000	13.607900
3194.000000	13.624928
3193.000000	13.643712
3192.000000	13.664739
3191.000000	13.686184
3190.000000	13.707541
3189.000000	13.730941
3188.000000	13.758199
3187.000000	13.789658
3186.000000	13.826562
3185.000000	13.871036
3184.000000	13.922975
3183.000000	13.979775
3182.000000	14.039548
3181.000000	14.101682
3180.000000	14.163702
3179.000000	14.221105
3178.000000	14.271145
3177.000000	14.313980
3176.000000	14.350001
3175.000000	14.379453
3174.000000	14.405008
3173.000000	14.431275
3172.000000	14.461063
3171.000000	14.495222
3170.000000	14.536367
3169.000000	14.589208
3168.000000	14.656561
3167.000000	14.737736
3166.000000	14.831800
3165.000000	14.939073
3164.000000	15.059401
3163.000000	15.192779
3162.000000	15.341447
3161.000000	15.508926
3160.000000	15.695378
3159.000000	15.896584
3158.000000	16.107705
3157.000000	16.323917
3156.000000	16.538544
3155.000000	16.744490
3154.000000	16.938799
3153.000000	17.122942
3152.000000	17.298073
3151.000000	17.462870
3150.000000	17.615976
3149.000000	17.757415
3148.000000	17.886526
3147.000000	18.002160
3146.000000	18.104496
3145.000000	18.193695
3144.000000	18.266691
3143.000000	18.317028
3142.000000	18.339786
3141.000000	18.333435
3140.000000	18.297400
3139.000000	18.231765
3138.000000	18.138157
3137.000000	18.019707
3136.000000	17.878982
3135.000000	17.718935
3134.000000	17.546849
3133.000000	17.373385
3132.000000	17.208404
3131.000000	17.059713
3130.000000	16.935169
3129.000000	16.841511
3128.000000	16.780223
3127.000000	16.747294
3126.000000	16.737777
3125.000000	16.748164
3124.000000	16.773680
3123.000000	16.808963
3122.000000	16.852028
3121.000000	16.904506
3120.000000	16.967524
3119.000000	17.039425
3118.000000	17.118804
3117.000000	17.205576
3116.000000	17.298041
3115.000000	17.391612
3114.000000	17.480889
3113.000000	17.560536
3112.000000	17.624031
3111.000000	17.665557
3110.000000	17.683483
3109.000000	17.680049
3108.000000	17.656189
3107.000000	17.609464
3106.000000	17.538050
3105.000000	17.442986
3104.000000	17.327216
3103.000000	17.195107
3102.000000	17.054612
3101.000000	16.917126
3100.000000	16.793314
3099.000000	16.690702
3098.000000	16.614828
3097.000000	16.569977
3096.000000	16.557150
3095.000000	16.574904
3094.000000	16.621897
3093.000000	16.696979
3092.000000	16.797608
3091.000000	16.919868
3090.000000	17.061257
3089.000000	17.219181
3088.000000	17.387741
3087.000000	17.559966
3086.000000	17.732654
3085.000000	17.906761
3084.000000	18.082217
3083.000000	18.256001
3082.000000	18.425430
3081.000000	18.589882
3080.000000	18.749212
3079.000000	18.903518
3078.000000	19.054682
3077.000000	19.204885
3076.000000	19.353425
3075.000000	19.497485
3074.000000	19.636115
3073.000000	19.770699
3072.000000	19.901716
3071.000000	20.028500
3070.000000	20.152043
3069.000000	20.275051
3068.000000	20.398956
3067.000000	20.523477
3066.000000	20.649038
3065.000000	20.776427
3064.000000	20.904131
3063.000000	21.029168
3062.000000	21.150476
3061.000000	21.268784
3060.000000	21.383456
3059.000000	21.492704
3058.000000	21.596924
3057.000000	21.698646
3056.000000	21.799199
3055.000000	21.898013
3054.000000	21.995096
3053.000000	22.091476
3052.000000	22.187310
3051.000000	22.282337
3050.000000	22.377647
3049.000000	22.474084
3048.000000	22.569464
3047.000000	22.660315
3046.000000	22.746191
3045.000000	22.829393
3044.000000	22.911050
3043.000000	22.990737
3042.000000	23.069266
3041.000000	23.148427
3040.000000	23.227672
3039.000000	23.304013
3038.000000	23.375675
3037.000000	23.443443
3036.000000	23.509103
3035.000000	23.575074
3034.000000	23.644926
3033.000000	23.721207
3032.000000	23.802697
3031.000000	23.886241
3030.000000	23.970608
3029.000000	24.056122
3028.000000	24.141604
3027.000000	24.225037
3026.000000	24.306935
3025.000000	24.389850
3024.000000	24.474592
3023.000000	24.559605
3022.000000	24.643864
3021.000000	24.727552
3020.000000	24.810135
3019.000000	24.890614
3018.000000	24.969680
3017.000000	25.049137
3016.000000	25.129510
3015.000000	25.210641
3014.000000	25.294150
3013.000000	25.382608
3012.000000	25.476525
3011.000000	25.574408
3010.000000	25.675017
3009.000000	25.777175
3008.000000	25.878093
3007.000000	25.974791
3006.000000	26.066752
3005.000000	26.155084
3004.000000	26.239477
3003.000000	26.317959
3002.000000	26.388671
3001.000000	26.447527
3000.000000	26.483353
2999.000000	26.476138
2998.000000	26.403078
2997.000000	26.252778
2996.000000	26.042981
2995.000000	25.828489
2994.000000	25.682631
2993.000000	25.658412
2992.000000	25.758831
2991.000000	25.943454
2990.000000	26.159920
2989.000000	26.369717
2988.000000	26.554528
2987.000000	26.711350
2986.000000	26.846814
2985.000000	26.969630
2984.000000	27.084473
2983.000000	27.191607
2982.000000	27.290636
2981.000000	27.380330
2980.000000	27.454442
2979.000000	27.501086
2978.000000	27.508300
2977.000000	27.472485
2976.000000	27.405436
2975.000000	27.337068
2974.000000	27.306498
2973.000000	27.342535
2972.000000	27.448384
2971.000000	27.604625
2970.000000	27.785010
2969.000000	27.967969
2968.000000	28.139122
2967.000000	28.291238
2966.000000	28.424481
2965.000000	28.542528
2964.000000	28.647495
2963.000000	28.738430
2962.000000	28.812575
2961.000000	28.862547
2960.000000	28.869812
2959.000000	28.803457
2958.000000	28.627706
2957.000000	28.321181
2956.000000	27.903041
2955.000000	27.450120
2954.000000	27.077395
2953.000000	26.880255
2952.000000	26.880078
2951.000000	27.019455
2950.000000	27.207845
2949.000000	27.372399
2948.000000	27.483187
2947.000000	27.550949
2946.000000	27.610148
2945.000000	27.695629
2944.000000	27.823749
2943.000000	27.990057
2942.000000	28.179891
2941.000000	28.378858
2940.000000	28.576337
2939.000000	28.766969
2938.000000	28.952041
2937.000000	29.136086
2936.000000	29.321097
2935.000000	29.505604
2934.000000	29.688198
2933.000000	29.868106
2932.000000	30.042745
2931.000000	30.209154
2930.000000	30.367603
2929.000000	30.520165
2928.000000	30.665792
2927.000000	30.800769
2926.000000	30.923928
2925.000000	31.037344
2924.000000	31.142374
2923.000000	31.238740
2922.000000	31.327235
2921.000000	31.409196
2920.000000	31.483075
2919.000000	31.545229
2918.000000	31.593773
2917.000000	31.628663
2916.000000	31.649286
2915.000000	31.656010
2914.000000	31.653855
2913.000000	31.650454
2912.000000	31.650145
2911.000000	31.652871
2910.000000	31.658112
2909.000000	31.666251
2908.000000	31.676257
2907.000000	31.685891
2906.000000	31.694693
2905.000000	31.704116
2904.000000	31.714809
2903.000000	31.726585
2902.000000	31.740753
2901.000000	31.759447
2900.000000	31.782522
2899.000000	31.807535
2898.000000	31.832456
2897.000000	31.855747
2896.000000	31.874574
2895.000000	31.886149
2894.000000	31.890896
2893.000000	31.891794
2892.000000	31.890947
2891.000000	31.889289
2890.000000	31.888773
2889.000000	31.891780
2888.000000	31.898606
2887.000000	31.908458
2886.000000	31.922569
2885.000000	31.943495
2884.000000	31.971716
2883.000000	32.005570
2882.000000	32.044088
2881.000000	32.087100
2880.000000	32.133008
2879.000000	32.179038
2878.000000	32.223186
2877.000000	32.263077
2876.000000	32.293821
2875.000000	32.310787
2874.000000	32.314514
2873.000000	32.310028
2872.000000	32.301290
2871.000000	32.289175
2870.000000	32.274979
2869.000000	32.263314
2868.000000	32.261278
2867.000000	32.277077
2866.000000	32.318836
2865.000000	32.390831
2864.000000	32.490052
2863.000000	32.608320
2862.000000	32.737653
2861.000000	32.872052
2860.000000	33.005967
2859.000000	33.134689
2858.000000	33.256348
2857.000000	33.370867
2856.000000	33.476901
2855.000000	33.572434
2854.000000	33.657230
2853.000000	33.731820
2852.000000	33.794634
2851.000000	33.842794
2850.000000	33.875626
2849.000000	33.895368
2848.000000	33.905424
2847.000000	33.910306
2846.000000	33.916147
2845.000000	33.927829
2844.000000	33.945711
2843.000000	33.967102
2842.000000	33.990305
2841.000000	34.015513
2840.000000	34.043041
2839.000000	34.073439
2838.000000	34.108348
2837.000000	34.148410
2836.000000	34.190937
2835.000000	34.232190
2834.000000	34.271292
2833.000000	34.309762
2832.000000	34.348254
2831.000000	34.386423
2830.000000	34.425067
2829.000000	34.465424
2828.000000	34.506806
2827.000000	34.547482
2826.000000	34.587418
2825.000000	34.627741
2824.000000	34.668268
2823.000000	34.708007
2822.000000	34.747389
2821.000000	34.787392
2820.000000	34.827088
2819.000000	34.864649
2818.000000	34.900203
2817.000000	34.935293
2816.000000	34.970166
2815.000000	35.004054
2814.000000	35.037388
2813.000000	35.071126
2812.000000	35.104537
2811.000000	35.136228
2810.000000	35.166799
2809.000000	35.197966
2808.000000	35.229714
2807.000000	35.260880
2806.000000	35.291849
2805.000000	35.323958
2804.000000	35.356643
2803.000000	35.387865
2802.000000	35.417098
2801.000000	35.445586
2800.000000	35.474166
2799.000000	35.503183
2798.000000	35.533932
2797.000000	35.567525
2796.000000	35.602610
2795.000000	35.636617
2794.000000	35.668943
2793.000000	35.700811
2792.000000	35.732753
2791.000000	35.764597
2790.000000	35.797256
2789.000000	35.831847
2788.000000	35.867405
2787.000000	35.901901
2786.000000	35.935163
2785.000000	35.968620
2784.000000	36.002756
2783.000000	36.037121
2782.000000	36.072161
2781.000000	36.108433
2780.000000	36.144533
2779.000000	36.178311
2778.000000	36.209832
2777.000000	36.240871
2776.000000	36.272004
2775.000000	36.302515
2774.000000	36.332583
2773.000000	36.362982
2772.000000	36.392967
2771.000000	36.420976
2770.000000	36.447294
2769.000000	36.473796
2768.000000	36.501325
2767.000000	36.529278
2766.000000	36.557241
2765.000000	36.584756
2764.000000	36.609973
2763.000000	36.631032
2762.000000	36.648612
2761.000000	36.665090
2760.000000	36.681499
2759.000000	36.697199
2758.000000	36.711961
2757.000000	36.726211
2756.000000	36.739702
2755.000000	36.752229
2754.000000	36.765265
2753.000000	36.780853
2752.000000	36.799236
2751.000000	36.819388
2750.000000	36.841240
2749.000000	36.865411
2748.000000	36.891418
2747.000000	36.918384
2746.000000	36.946884
2745.000000	36.977888
2744.000000	37.010463
2743.000000	37.042457
2742.000000	37.072682
2741.000000	37.100429
2740.000000	37.123761
2739.000000	37.140835
2738.000000	37.152579
2737.000000	37.162010
2736.000000	37.171450
2735.000000	37.182397
2734.000000	37.197165
2733.000000	37.217999
2732.000000	37.244916
2731.000000	37.276418
2730.000000	37.311778
2729.000000	37.350656
2728.000000	37.391142
2727.000000	37.430556
2726.000000	37.467897
2725.000000	37.503522
2724.000000	37.537219
2723.000000	37.568679
2722.000000	37.599053
2721.000000	37.629702
2720.000000	37.659900
2719.000000	37.687763
2718.000000	37.712982
2717.000000	37.736786
2716.000000	37.760047
2715.000000	37.783535
2714.000000	37.809087
2713.000000	37.838039
2712.000000	37.868944
2711.000000	37.898867
2710.000000	37.926440
2709.000000	37.951808
2708.000000	37.974639
2707.000000	37.994558
2706.000000	38.012828
2705.000000	38.031291
2704.000000	38.050000
2703.000000	38.067778
2702.000000	38.084407
2701.000000	38.100236
2700.000000	38.114692
2699.000000	38.127432
2698.000000	38.140117
2697.000000	38.154762
2696.000000	38.170988
2695.000000	38.187155
2694.000000	38.203492
2693.000000	38.221915
2692.000000	38.243525
2691.000000	38.268549
2690.000000	38.297710
2689.000000	38.331021
2688.000000	38.365846
2687.000000	38.398615
2686.000000	38.428238
2685.000000	38.455853
2684.000000	38.482043
2683.000000	38.506661
2682.000000	38.530567
2681.000000	38.554758
2680.000000	38.578096
2679.000000	38.598219
2678.000000	38.614459
2677.000000	38.628048
2676.000000	38.640170
2675.000000	38.652078
2674.000000	38.666436
2673.000000	38.685900
2672.000000	38.710444
2671.000000	38.738153
2670.000000	38.768163
2669.000000	38.800737
2668.000000	38.835160
2667.000000	38.869844
2666.000000	38.904159
2665.000000	38.938043
2664.000000	38.970212
2663.000000	38.999089
2662.000000	39.025191
2661.000000	39.050560
2660.000000	39.076176
2659.000000	39.101798
2658.000000	39.127644
2657.000000	39.154131
2656.000000	39.180417
2655.000000	39.205280
2654.000000	39.229147
2653.000000	39.253260
2652.000000	39.277438
2651.000000	39.300534
2650.000000	39.322389
2649.000000	39.343228
2648.000000	39.361690
2647.000000	39.375863
2646.000000	39.386203
2645.000000	39.395556
2644.000000	39.406676
2643.000000	39.421346
2642.000000	39.441029
2641.000000	39.466071
2640.000000	39.494503
2639.000000	39.523536
2638.000000	39.552108
2637.000000	39.580428
2636.000000	39.607869
2635.000000	39.633229
2634.000000	39.656330
2633.000000	39.677270
2632.000000	39.694723
2631.000000	39.707207
2630.000000	39.715751
2629.000000	39.723626
2628.000000	39.733824
2627.000000	39.748184
2626.000000	39.767990
2625.000000	39.793185
2624.000000	39.821441
2623.000000	39.850078
2622.000000	39.878641
2621.000000	39.908018
2620.000000	39.937891
2619.000000	39.966753
2618.000000	39.993666
2617.000000	40.018214
2616.000000	40.039543
2615.000000	40.057369
2614.000000	40.073316
2613.000000	40.089411
2612.000000	40.105821
2611.000000	40.121757
2610.000000	40.137440
2609.000000	40.153309
2608.000000	40.168288
2607.000000	40.180993
2606.000000	40.191985
2605.000000	40.202724
2604.000000	40.213048
2603.000000	40.221709
2602.000000	40.228625
2601.000000	40.234656
2600.000000	40.240032
2599.000000	40.245197
2598.000000	40.252499
2597.000000	40.264632
2596.000000	40.281666
2595.000000	40.301457
2594.000000	40.322422
2593.000000	40.343983
2592.000000	40.365319
2591.000000	40.385894
2590.000000	40.406773
2589.000000	40.429304
2588.000000	40.452794
2587.000000	40.475380
2586.000000	40.496536
2585.000000	40.516906
2584.000000	40.536414
2583.000000	40.554658
2582.000000	40.572559
2581.000000	40.591582
2580.000000	40.611727
2579.000000	40.632068
2578.000000	40.652647
2577.000000	40.674041
2576.000000	40.695837
2575.000000	40.717481
2574.000000	40.739995
2573.000000	40.764789
2572.000000	40.791397
2571.000000	40.818126
2570.000000	40.844262
2569.000000	40.869857
2568.000000	40.894204
2567.000000	40.916613
2566.000000	40.938014
2565.000000	40.959789
2564.000000	40.981494
2563.000000	41.001641
2562.000000	41.020017
2561.000000	41.037505
2560.000000	41.054396
2559.000000	41.070783
2558.000000	41.087897
2557.000000	41.107040
2556.000000	41.127739
2555.000000	41.148719
2554.000000	41.170025
2553.000000	41.192405
2552.000000	41.215517
2551.000000	41.238680
2550.000000	41.262555
2549.000000	41.288120
2548.000000	41.314569
2547.000000	41.340153
2546.000000	41.364457
2545.000000	41.388124
2544.000000	41.411208
2543.000000	41.433615
2542.000000	41.456206
2541.000000	41.479336
2540.000000	41.501116
2539.000000	41.519083
2538.000000	41.533048
2537.000000	41.544552
2536.000000	41.554359
2535.000000	41.562644
2534.000000	41.570664
2533.000000	41.580056
2532.000000	41.590954
2531.000000	41.602744
2530.000000	41.616152
2529.000000	41.632663
2528.000000	41.652464
2527.000000	41.674662
2526.000000	41.698926
2525.000000	41.724906
2524.000000	41.750922
2523.000000	41.775143
2522.000000	41.797518
2521.000000	41.818839
2520.000000	41.838773
2519.000000	41.856574
2518.000000	41.872755
2517.000000	41.888007
2516.000000	41.901137
2515.000000	41.910321
2514.000000	41.915668
2513.000000	41.918642
2512.000000	41.919828
2511.000000	41.919127
2510.000000	41.917532
2509.000000	41.916516
2508.000000	41.916183
2507.000000	41.916063
2506.000000	41.917108
2505.000000	41.920972
2504.000000	41.927906
2503.000000	41.937268
2502.000000	41.949265
2501.000000	41.964328
2500.000000	41.981369
2499.000000	41.998743
2498.000000	42.016501
2497.000000	42.035627
2496.000000	42.055868
2495.000000	42.076110
2494.000000	42.096194
2493.000000	42.116415
2492.000000	42.135928
2491.000000	42.153720
2490.000000	42.170503
2489.000000	42.187708
2488.000000	42.205255
2487.000000	42.222270
2486.000000	42.239218
2485.000000	42.257300
2484.000000	42.276369
2483.000000	42.295611
2482.000000	42.315645
2481.000000	42.337922
2480.000000	42.362461
2479.000000	42.388013
2478.000000	42.413832
2477.000000	42.439297
2476.000000	42.462529
2475.000000	42.481631
2474.000000	42.497149
2473.000000	42.511595
2472.000000	42.527067
2471.000000	42.544757
2470.000000	42.565819
2469.000000	42.590530
2468.000000	42.617071
2467.000000	42.643070
2466.000000	42.667924
2465.000000	42.691972
2464.000000	42.714202
2463.000000	42.732673
2462.000000	42.746578
2461.000000	42.756132
2460.000000	42.761056
2459.000000	42.761442
2458.000000	42.759364
2457.000000	42.757808
2456.000000	42.758295
2455.000000	42.761046
2454.000000	42.766743
2453.000000	42.776183
2452.000000	42.788956
2451.000000	42.804380
2450.000000	42.823327
2449.000000	42.846979
2448.000000	42.874530
2447.000000	42.903807
2446.000000	42.933439
2445.000000	42.962743
2444.000000	42.990208
2443.000000	43.014391
2442.000000	43.035822
2441.000000	43.056138
2440.000000	43.075754
2439.000000	43.094110
2438.000000	43.111505
2437.000000	43.128803
2436.000000	43.146003
2435.000000	43.162884
2434.000000	43.180502
2433.000000	43.200051
2432.000000	43.220665
2431.000000	43.240145
2430.000000	43.257238
2429.000000	43.271569
2428.000000	43.282194
2427.000000	43.288297
2426.000000	43.291045
2425.000000	43.292711
2424.000000	43.294362
2423.000000	43.295947
2422.000000	43.297986
2421.000000	43.301419
2420.000000	43.306179
2419.000000	43.311813
2418.000000	43.319021
2417.000000	43.329009
2416.000000	43.341686
2415.000000	43.356223
2414.000000	43.372697
2413.000000	43.391459
2412.000000	43.411611
2411.000000	43.431729
2410.000000	43.451598
2409.000000	43.471534
2408.000000	43.490737
2407.000000	43.508154
2406.000000	43.524251
2405.000000	43.540103
2404.000000	43.555296
2403.000000	43.568655
2402.000000	43.580384
2401.000000	43.591636
2400.000000	43.602347
2399.000000	43.611185
2398.000000	43.617376
2397.000000	43.620698
2396.000000	43.620265
2395.000000	43.614980
2394.000000	43.604774
2393.000000	43.590154
2392.000000	43.570665
2391.000000	43.545483
2390.000000	43.514879
2389.000000	43.479405
2388.000000	43.438740
2387.000000	43.392541
2386.000000	43.342202
2385.000000	43.290114
2384.000000	43.237464
2383.000000	43.184786
2382.000000	43.133411
2381.000000	43.084628
2380.000000	43.037613
2379.000000	42.989723
2378.000000	42.939134
2377.000000	42.885670
2376.000000	42.830201
2375.000000	42.775806
2374.000000	42.729338
2373.000000	42.699321
2372.000000	42.691579
2371.000000	42.707733
2370.000000	42.746713
2369.000000	42.804718
2368.000000	42.873331
2367.000000	42.941887
2366.000000	43.003810
2365.000000	43.057333
2364.000000	43.100343
2363.000000	43.128616
2362.000000	43.141576
2361.000000	43.143146
2360.000000	43.136765
2359.000000	43.124289
2358.000000	43.105557
2357.000000	43.080658
2356.000000	43.050192
2355.000000	43.018778
2354.000000	43.003014
2353.000000	43.020859
2352.000000	43.072265
2351.000000	43.134653
2350.000000	43.184336
2349.000000	43.210412
2348.000000	43.212151
2347.000000	43.202666
2346.000000	43.203715
2345.000000	43.227493
2344.000000	43.264348
2343.000000	43.299747
2342.000000	43.331193
2341.000000	43.354639
2340.000000	43.364689
2339.000000	43.362229
2338.000000	43.356633
2337.000000	43.356377
2336.000000	43.362004
2335.000000	43.371036
2334.000000	43.384276
2333.000000	43.405498
2332.000000	43.433213
2331.000000	43.461715
2330.000000	43.486461
2329.000000	43.508950
2328.000000	43.527585
2327.000000	43.540943
2326.000000	43.547742
2325.000000	43.553005
2324.000000	43.562436
2323.000000	43.579829
2322.000000	43.605972
2321.000000	43.637040
2320.000000	43.667899
2319.000000	43.695058
2318.000000	43.719205
2317.000000	43.742186
2316.000000	43.763336
2315.000000	43.782225
2314.000000	43.798801
2313.000000	43.812953
2312.000000	43.819818
2311.000000	43.815248
2310.000000	43.797685
2309.000000	43.770162
2308.000000	43.733927
2307.000000	43.691007
2306.000000	43.644309
2305.000000	43.599360
2304.000000	43.560576
2303.000000	43.533272
2302.000000	43.523246
2301.000000	43.535498
2300.000000	43.569982
2299.000000	43.623640
2298.000000	43.691978
2297.000000	43.769571
2296.000000	43.847947
2295.000000	43.919549
2294.000000	43.980476
2293.000000	44.030838
2292.000000	44.070926
2291.000000	44.101490
2290.000000	44.124251
2289.000000	44.140658
2288.000000	44.149192
2287.000000	44.146779
2286.000000	44.131816
2285.000000	44.103720
2284.000000	44.061717
2283.000000	44.006236
2282.000000	43.942342
2281.000000	43.878588
2280.000000	43.823062
2279.000000	43.781262
2278.000000	43.756369
2277.000000	43.748617
2276.000000	43.755013
2275.000000	43.772922
2274.000000	43.803185
2273.000000	43.848581
2272.000000	43.909318
2271.000000	43.982410
2270.000000	44.064336
2269.000000	44.151538
2268.000000	44.239746
2267.000000	44.325185
2266.000000	44.406493
2265.000000	44.483638
2264.000000	44.555690
2263.000000	44.621731
2262.000000	44.682431
2261.000000	44.738785
2260.000000	44.789859
2259.000000	44.834206
2258.000000	44.872746
2257.000000	44.908088
2256.000000	44.942158
2255.000000	44.976340
2254.000000	45.013273
2253.000000	45.055675
2252.000000	45.103859
2251.000000	45.156299
2250.000000	45.212055
2249.000000	45.270859
2248.000000	45.331516
2247.000000	45.392564
2246.000000	45.453768
2245.000000	45.515325
2244.000000	45.576048
2243.000000	45.634272
2242.000000	45.689568
2241.000000	45.741910
2240.000000	45.790060
2239.000000	45.832836
2238.000000	45.871181
2237.000000	45.906907
2236.000000	45.940274
2235.000000	45.970582
2234.000000	45.998526
2233.000000	46.025766
2232.000000	46.052763
2231.000000	46.079024
2230.000000	46.104904
2229.000000	46.131202
2228.000000	46.157366
2227.000000	46.181850
2226.000000	46.203912
2225.000000	46.223509
2224.000000	46.240076
2223.000000	46.253193
2222.000000	46.263805
2221.000000	46.273212
2220.000000	46.281387
2219.000000	46.287979
2218.000000	46.294232
2217.000000	46.302071
2216.000000	46.311810
2215.000000	46.322400
2214.000000	46.333226
2213.000000	46.343864
2212.000000	46.352763
2211.000000	46.358232
2210.000000	46.360558
2209.000000	46.361865
2208.000000	46.364446
2207.000000	46.370418
2206.000000	46.381593
2205.000000	46.397496
2204.000000	46.413917
2203.000000	46.425308
2202.000000	46.428400
2201.000000	46.422909
2200.000000	46.410585
2199.000000	46.396112
2198.000000	46.387593
2197.000000	46.393039
2196.000000	46.415693
2195.000000	46.453753
2194.000000	46.503663
2193.000000	46.561673
2192.000000	46.623461
2191.000000	46.685023
2190.000000	46.744165
2189.000000	46.799654
2188.000000	46.849341
2187.000000	46.890967
2186.000000	46.924108
2185.000000	46.949954
2184.000000	46.969529
2183.000000	46.983564
2182.000000	46.993277
2181.000000	46.999639
2180.000000	47.002585
2179.000000	47.002554
2178.000000	47.002222
2177.000000	47.004857
2176.000000	47.011637
2175.000000	47.022022
2174.000000	47.035922
2173.000000	47.053686
2172.000000	47.074547
2171.000000	47.097251
2170.000000	47.121756
2169.000000	47.148637
2168.000000	47.177165
2167.000000	47.205516
2166.000000	47.232268
2165.000000	47.256380
2164.000000	47.276571
2163.000000	47.292544
2162.000000	47.306346
2161.000000	47.320922
2160.000000	47.337722
2159.000000	47.357004
2158.000000	47.379551
2157.000000	47.406293
2156.000000	47.436998
2155.000000	47.471039
2154.000000	47.508822
2153.000000	47.550708
2152.000000	47.595152
2151.000000	47.639416
2150.000000	47.681346
2149.000000	47.719092
2148.000000	47.749976
2147.000000	47.771705
2146.000000	47.784199
2145.000000	47.788903
2144.000000	47.786644
2143.000000	47.777999
2142.000000	47.765070
2141.000000	47.750803
2140.000000	47.736787
2139.000000	47.723143
2138.000000	47.710245
2137.000000	47.698944
2136.000000	47.689877
2135.000000	47.684487
2134.000000	47.686159
2133.000000	47.698538
2132.000000	47.722751
2131.000000	47.757467
2130.000000	47.800751
2129.000000	47.849980
2128.000000	47.900670
2127.000000	47.947618
2126.000000	47.987403
2125.000000	48.018628
2124.000000	48.040608
2123.000000	48.053445
2122.000000	48.059099
2121.000000	48.060574
2120.000000	48.059927
2119.000000	48.058305
2118.000000	48.057510
2117.000000	48.059949
2116.000000	48.067054
2115.000000	48.078924
2114.000000	48.094908
2113.000000	48.113410
2112.000000	48.131686
2111.000000	48.147228
2110.000000	48.158904
2109.000000	48.165896
2108.000000	48.166709
2107.000000	48.160789
2106.000000	48.150510
2105.000000	48.139992
2104.000000	48.132727
2103.000000	48.131321
2102.000000	48.138339
2101.000000	48.155516
2100.000000	48.182236
2099.000000	48.216953
2098.000000	48.258730
2097.000000	48.306423
2096.000000	48.357361
2095.000000	48.407562
2094.000000	48.453195
2093.000000	48.490667
2092.000000	48.516303
2091.000000	48.527838
2090.000000	48.526025
2089.000000	48.513963
2088.000000	48.495782
2087.000000	48.476838
2086.000000	48.463716
2085.000000	48.461991
2084.000000	48.474066
2083.000000	48.500091
2082.000000	48.539716
2081.000000	48.591424
2080.000000	48.651146
2079.000000	48.714163
2078.000000	48.777401
2077.000000	48.838967
2076.000000	48.897339
2075.000000	48.951382
2074.000000	49.001761
2073.000000	49.049101
2072.000000	49.091773
2071.000000	49.127539
2070.000000	49.155267
2069.000000	49.174522
2068.000000	49.185231
2067.000000	49.189948
2066.000000	49.194513
2065.000000	49.204079
2064.000000	49.219154
2063.000000	49.237514
2062.000000	49.258656
2061.000000	49.283875
2060.000000	49.313210
2059.000000	49.345245
2058.000000	49.379591
2057.000000	49.416701
2056.000000	49.455406
2055.000000	49.492591
2054.000000	49.526263
2053.000000	49.556377
2052.000000	49.582983
2051.000000	49.606277
2050.000000	49.627661
2049.000000	49.648513
2048.000000	49.669029
2047.000000	49.689191
2046.000000	49.709242
2045.000000	49.729044
2044.000000	49.748380
2043.000000	49.768866
2042.000000	49.793983
2041.000000	49.825745
2040.000000	49.862240
2039.000000	49.899627
2038.000000	49.935459
2037.000000	49.968726
2036.000000	49.998515
2035.000000	50.024605
2034.000000	50.048511
2033.000000	50.072337
2032.000000	50.096528
2031.000000	50.119546
2030.000000	50.140662
2029.000000	50.160221
2028.000000	50.179625
2027.000000	50.200430
2026.000000	50.224385
2025.000000	50.252026
2024.000000	50.281478
2023.000000	50.311058
2022.000000	50.339385
2021.000000	50.364161
2020.000000	50.383081
2019.000000	50.397256
2018.000000	50.411433
2017.000000	50.429251
2016.000000	50.449765
2015.000000	50.470017
2014.000000	50.489437
2013.000000	50.509443
2012.000000	50.530379
2011.000000	50.550939
2010.000000	50.570799
2009.000000	50.591003
2008.000000	50.612515
2007.000000	50.634510
2006.000000	50.656550
2005.000000	50.680431
2004.000000	50.708215
2003.000000	50.742428
2002.000000	50.782857
2001.000000	50.828054
2000.000000	50.874000
1999.000000	50.915457
1998.000000	50.952338
1997.000000	50.986878
1996.000000	51.017684
1995.000000	51.041453
1994.000000	51.060115
1993.000000	51.079229
1992.000000	51.099188
1991.000000	51.113542
1990.000000	51.118440
1989.000000	51.118639
1988.000000	51.121726
1987.000000	51.129851
1986.000000	51.139913
1985.000000	51.150295
1984.000000	51.162430
1983.000000	51.178342
1982.000000	51.197377
1981.000000	51.219941
1980.000000	51.246328
1979.000000	51.274335
1978.000000	51.301521
1977.000000	51.325462
1976.000000	51.344169
1975.000000	51.357505
1974.000000	51.369910
1973.000000	51.388249
1972.000000	51.416195
1971.000000	51.451982
1970.000000	51.492005
1969.000000	51.533984
1968.000000	51.576753
1967.000000	51.618941
1966.000000	51.659301
1965.000000	51.697845
1964.000000	51.736571
1963.000000	51.777697
1962.000000	51.819998
1961.000000	51.857386
1960.000000	51.882020
1959.000000	51.890584
1958.000000	51.886283
1957.000000	51.874783
1956.000000	51.860858
1955.000000	51.845917
1954.000000	51.829924
1953.000000	51.810777
1952.000000	51.788095
1951.000000	51.765834
1950.000000	51.748069
1949.000000	51.740889
1948.000000	51.751339
1947.000000	51.780190
1946.000000	51.818691
1945.000000	51.856565
1944.000000	51.893424
1943.000000	51.936655
1942.000000	51.990007
1941.000000	52.049696
1940.000000	52.112519
1939.000000	52.181481
1938.000000	52.258439
1937.000000	52.335230
1936.000000	52.399851
1935.000000	52.449307
1934.000000	52.491997
1933.000000	52.534080
1932.000000	52.576523
1931.000000	52.618475
1930.000000	52.654011
1929.000000	52.681818
1928.000000	52.700777
1927.000000	52.711343
1926.000000	52.712095
1925.000000	52.704192
1924.000000	52.702131
1923.000000	52.715896
1922.000000	52.734845
1921.000000	52.740047
1920.000000	52.728395
1919.000000	52.717831
1918.000000	52.720389
1917.000000	52.727805
1916.000000	52.731049
1915.000000	52.734043
1914.000000	52.745338
1913.000000	52.760617
1912.000000	52.767739
1911.000000	52.764243
1910.000000	52.759479
1909.000000	52.767512
1908.000000	52.789796
1907.000000	52.823624
1906.000000	52.864925
1905.000000	52.905755
1904.000000	52.943378
1903.000000	52.975715
1902.000000	53.001300
1901.000000	53.024952
1900.000000	53.048925
1899.000000	53.070786
1898.000000	53.085446
1897.000000	53.090482
1896.000000	53.095486
1895.000000	53.112568
1894.000000	53.143140
1893.000000	53.179250
1892.000000	53.215982
1891.000000	53.256779
1890.000000	53.303399
1889.000000	53.348341
1888.000000	53.384690
1887.000000	53.416382
1886.000000	53.455686
1885.000000	53.509884
1884.000000	53.573789
1883.000000	53.633509
1882.000000	53.678737
1881.000000	53.712845
1880.000000	53.742914
1879.000000	53.773607
1878.000000	53.809109
1877.000000	53.847642
1876.000000	53.885722
1875.000000	53.923821
1874.000000	53.958738
1873.000000	53.982575
1872.000000	53.992923
1871.000000	53.999157
1870.000000	54.014728
1869.000000	54.040044
1868.000000	54.062878
1867.000000	54.073979
1866.000000	54.073988
1865.000000	54.069992
1864.000000	54.067534
1863.000000	54.065766
1862.000000	54.061178
1861.000000	54.055898
1860.000000	54.056268
1859.000000	54.065362
1858.000000	54.081916
1857.000000	54.106089
1856.000000	54.139929
1855.000000	54.186376
1854.000000	54.241697
1853.000000	54.305310
1852.000000	54.367727
1851.000000	54.415421
1850.000000	54.454464
1849.000000	54.496971
1848.000000	54.542607
1847.000000	54.580307
1846.000000	54.612777
1845.000000	54.656618
1844.000000	54.707436
1843.000000	54.737141
1842.000000	54.734312
1841.000000	54.721676
1840.000000	54.725497
1839.000000	54.754266
1838.000000	54.791225
1837.000000	54.818017
1836.000000	54.839636
1835.000000	54.865640
1834.000000	54.891980
1833.000000	54.913246
1832.000000	54.931397
1831.000000	54.963833
1830.000000	55.020657
1829.000000	55.074930
1828.000000	55.095474
1827.000000	55.087056
1826.000000	55.084733
1825.000000	55.106855
1824.000000	55.139608
1823.000000	55.172224
1822.000000	55.212953
1821.000000	55.268062
1820.000000	55.323664
1819.000000	55.367613
1818.000000	55.401500
1817.000000	55.434612
1816.000000	55.479614
1815.000000	55.534699
1814.000000	55.591313
1813.000000	55.638630
1812.000000	55.671008
1811.000000	55.695077
1810.000000	55.711198
1809.000000	55.722771
1808.000000	55.748470
1807.000000	55.800148
1806.000000	55.864899
1805.000000	55.915017
1804.000000	55.940853
1803.000000	55.947548
1802.000000	55.951875
1801.000000	55.964193
1800.000000	55.983928
1799.000000	56.010801
1798.000000	56.039536
1797.000000	56.064862
1796.000000	56.083998
1795.000000	56.087637
1794.000000	56.074157
1793.000000	56.051693
1792.000000	56.032821
1791.000000	56.032439
1790.000000	56.051849
1789.000000	56.081023
1788.000000	56.111826
1787.000000	56.141940
1786.000000	56.173609
1785.000000	56.210897
1784.000000	56.259843
1783.000000	56.302880
1782.000000	56.333668
1781.000000	56.358334
1780.000000	56.370682
1779.000000	56.370139
1778.000000	56.367692
1777.000000	56.388169
1776.000000	56.435073
1775.000000	56.485637
1774.000000	56.533952
1773.000000	56.585914
1772.000000	56.613659
1771.000000	56.596656
1770.000000	56.561651
1769.000000	56.554653
1768.000000	56.612748
1767.000000	56.720017
1766.000000	56.820729
1765.000000	56.874894
1764.000000	56.891458
1763.000000	56.904561
1762.000000	56.937624
1761.000000	56.973137
1760.000000	56.990229
1759.000000	56.991783
1758.000000	56.996012
1757.000000	57.026457
1756.000000	57.066529
1755.000000	57.088889
1754.000000	57.097173
1753.000000	57.119785
1752.000000	57.170053
1751.000000	57.229905
1750.000000	57.263630
1749.000000	57.263818
1748.000000	57.257095
1747.000000	57.253994
1746.000000	57.258878
1745.000000	57.269174
1744.000000	57.279257
1743.000000	57.283007
1742.000000	57.259081
1741.000000	57.187540
1740.000000	57.096255
1739.000000	57.030837
1738.000000	56.991079
1737.000000	56.945913
1736.000000	56.895242
1735.000000	56.877752
1734.000000	56.869924
1733.000000	56.806263
1732.000000	56.701974
1731.000000	56.624265
1730.000000	56.611160
1729.000000	56.647846
1728.000000	56.684771
1727.000000	56.687965
1726.000000	56.665646
1725.000000	56.621280
1724.000000	56.563996
1723.000000	56.525727
1722.000000	56.511126
1721.000000	56.494917
1720.000000	56.460853
1719.000000	56.424860
1718.000000	56.370616
1717.000000	56.248224
1716.000000	56.091413
1715.000000	55.981161
1714.000000	55.938930
1713.000000	55.930801
1712.000000	55.927629
1711.000000	55.923037
1710.000000	55.912946
1709.000000	55.887080
1708.000000	55.829614
1707.000000	55.751769
1706.000000	55.683179
1705.000000	55.630623
1704.000000	55.575054
1703.000000	55.489264
1702.000000	55.374973
1701.000000	55.270507
1700.000000	55.160638
1699.000000	55.014697
1698.000000	54.832739
1697.000000	54.644847
1696.000000	54.504295
1695.000000	54.399931
1694.000000	54.273997
1693.000000	54.119420
1692.000000	53.972242
1691.000000	53.856455
1690.000000	53.756497
1689.000000	53.657183
1688.000000	53.547009
1687.000000	53.416639
1686.000000	53.250603
1685.000000	53.021147
1684.000000	52.713119
1683.000000	52.391166
1682.000000	52.122329
1681.000000	51.915317
1680.000000	51.758382
1679.000000	51.620275
1678.000000	51.462686
1677.000000	51.264789
1676.000000	51.037433
1675.000000	50.798849
1674.000000	50.574288
1673.000000	50.362796
1672.000000	50.147049
1671.000000	49.919075
1670.000000	49.661511
1669.000000	49.374977
1668.000000	49.100089
1667.000000	48.873796
1666.000000	48.691820
1665.000000	48.510033
1664.000000	48.293944
1663.000000	48.031814
1662.000000	47.742836
1661.000000	47.467630
1660.000000	47.223086
1659.000000	47.021011
1658.000000	46.871890
1657.000000	46.758712
1656.000000	46.632522
1655.000000	46.466887
1654.000000	46.240987
1653.000000	45.891304
1652.000000	45.521601
1651.000000	45.257597
1650.000000	45.068464
1649.000000	44.891493
1648.000000	44.675115
1647.000000	44.382438
1646.000000	44.047189
1645.000000	43.737615
1644.000000	43.480782
1643.000000	43.264523
1642.000000	43.074699
1641.000000	42.905303
1640.000000	42.743848
1639.000000	42.592962
1638.000000	42.455728
1637.000000	42.328823
1636.000000	42.192736
1635.000000	42.061883
1634.000000	41.979391
1633.000000	41.946487
1632.000000	41.954859
1631.000000	42.001963
1630.000000	42.082499
1629.000000	42.185906
1628.000000	42.305286
1627.000000	42.434966
1626.000000	42.575498
1625.000000	42.731608
1624.000000	42.910080
1623.000000	43.114321
1622.000000	43.342287
1621.000000	43.590046
1620.000000	43.853162
1619.000000	44.150235
1618.000000	44.519565
1617.000000	44.963827
1616.000000	45.410615
1615.000000	45.798946
1614.000000	46.154203
1613.000000	46.534843
1612.000000	46.962998
1611.000000	47.401983
1610.000000	47.803919
1609.000000	48.152801
1608.000000	48.447524
1607.000000	48.673654
1606.000000	48.826015
1605.000000	48.904675
1604.000000	48.876422
1603.000000	48.688007
1602.000000	48.291519
1601.000000	47.635454
1600.000000	46.634360
1599.000000	45.197802
1598.000000	43.290111
1597.000000	40.977630
1596.000000	38.481417
1595.000000	36.194900
1594.000000	34.539679
1593.000000	33.706588
1592.000000	33.590204
1591.000000	33.967260
1590.000000	34.669344
1589.000000	35.578699
1588.000000	36.563971
1587.000000	37.496857
1586.000000	38.315919
1585.000000	39.074400
1584.000000	39.862103
1583.000000	40.704365
1582.000000	41.545661
1581.000000	42.310252
1580.000000	42.976821
1579.000000	43.609948
1578.000000	44.324754
1577.000000	45.179164
1576.000000	46.063572
1575.000000	46.780311
1574.000000	47.278392
1573.000000	47.649530
1572.000000	47.983624
1571.000000	48.334454
1570.000000	48.699825
1569.000000	49.041695
1568.000000	49.327089
1567.000000	49.576721
1566.000000	49.849255
1565.000000	50.177654
1564.000000	50.518502
1563.000000	50.805244
1562.000000	51.032889
1561.000000	51.267400
1560.000000	51.584272
1559.000000	51.913427
1558.000000	52.163167
1557.000000	52.344515
1556.000000	52.503445
1555.000000	52.694981
1554.000000	52.941481
1553.000000	53.190674
1552.000000	53.382501
1551.000000	53.551349
1550.000000	53.758773
1549.000000	54.001210
1548.000000	54.220008
1547.000000	54.381808
1546.000000	54.519008
1545.000000	54.675708
1544.000000	54.842274
1543.000000	54.994956
1542.000000	55.130479
1541.000000	55.247703
1540.000000	55.331702
1539.000000	55.387795
1538.000000	55.435085
1537.000000	55.474543
1536.000000	55.520031
1535.000000	55.597702
1534.000000	55.730246
1533.000000	55.887923
1532.000000	56.018133
1531.000000	56.119477
1530.000000	56.213823
1529.000000	56.311156
1528.000000	56.414196
1527.000000	56.525600
1526.000000	56.656305
1525.000000	56.796769
1524.000000	56.907732
1523.000000	56.977472
1522.000000	57.039332
1521.000000	57.121367
1520.000000	57.204222
1519.000000	57.261503
1518.000000	57.321431
1517.000000	57.421248
1516.000000	57.546152
1515.000000	57.646147
1514.000000	57.712591
1513.000000	57.772541
1512.000000	57.846719
1511.000000	57.925965
1510.000000	57.992049
1509.000000	58.042296
1508.000000	58.095763
1507.000000	58.151177
1506.000000	58.203357
1505.000000	58.264439
1504.000000	58.322144
1503.000000	58.383598
1502.000000	58.474213
1501.000000	58.594803
1500.000000	58.711952
1499.000000	58.793672
1498.000000	58.844064
1497.000000	58.880088
1496.000000	58.930139
1495.000000	59.005494
1494.000000	59.085393
1493.000000	59.151544
1492.000000	59.208380
1491.000000	59.271321
1490.000000	59.343659
1489.000000	59.420891
1488.000000	59.515716
1487.000000	59.642758
1486.000000	59.780995
1485.000000	59.915477
1484.000000	60.033357
1483.000000	60.131298
1482.000000	60.230673
1481.000000	60.344156
1480.000000	60.464036
1479.000000	60.576466
1478.000000	60.688047
1477.000000	60.805500
1476.000000	60.925282
1475.000000	61.029953
1474.000000	61.126566
1473.000000	61.249127
1472.000000	61.403715
1471.000000	61.563902
1470.000000	61.704603
1469.000000	61.820772
1468.000000	61.920564
1467.000000	62.002053
1466.000000	62.050341
1465.000000	62.051260
1464.000000	61.979583
1463.000000	61.828667
1462.000000	61.608464
1461.000000	61.336204
1460.000000	61.032460
1459.000000	60.722005
1458.000000	60.435497
1457.000000	60.204934
1456.000000	60.046899
1455.000000	59.895125
1454.000000	59.653251
1453.000000	59.257706
1452.000000	58.680443
1451.000000	57.928263
1450.000000	56.989253
1449.000000	55.781531
1448.000000	54.249438
1447.000000	52.510348
1446.000000	50.879412
1445.000000	49.719342
1444.000000	49.289792
1443.000000	49.670000
1442.000000	50.681288
1441.000000	51.963346
1440.000000	53.176293
1439.000000	54.153445
1438.000000	54.882718
1437.000000	55.408019
1436.000000	55.789710
1435.000000	56.110531
1434.000000	56.448176
1433.000000	56.846953
1432.000000	57.307143
1431.000000	57.779171
1430.000000	58.203416
1429.000000	58.549670
1428.000000	58.825310
1427.000000	59.038131
1426.000000	59.210579
1425.000000	59.383167
1424.000000	59.558083
1423.000000	59.709766
1422.000000	59.824784
1421.000000	59.920807
1420.000000	60.027253
1419.000000	60.163708
1418.000000	60.332694
1417.000000	60.520501
1416.000000	60.716634
1415.000000	60.914403
1414.000000	61.103934
1413.000000	61.270761
1412.000000	61.405709
1411.000000	61.522599
1410.000000	61.643939
1409.000000	61.762487
1408.000000	61.855418
1407.000000	61.904960
1406.000000	61.914297
1405.000000	61.904647
1404.000000	61.882944
1403.000000	61.849904
1402.000000	61.811800
1401.000000	61.781361
1400.000000	61.769332
1399.000000	61.774777
1398.000000	61.788208
1397.000000	61.803258
1396.000000	61.833298
1395.000000	61.892699
1394.000000	61.967170
1393.000000	61.998812
1392.000000	61.922919
1391.000000	61.724177
1390.000000	61.433468
1389.000000	61.089017
1388.000000	60.728767
1387.000000	60.414104
1386.000000	60.221806
1385.000000	60.199255
1384.000000	60.349772
1383.000000	60.657336
1382.000000	61.081331
1381.000000	61.557031
1380.000000	62.030144
1379.000000	62.473848
1378.000000	62.875440
1377.000000	63.217591
1376.000000	63.481304
1375.000000	63.657539
1374.000000	63.751601
1373.000000	63.756011
1372.000000	63.622245
1371.000000	63.243979
1370.000000	62.461072
1369.000000	61.105278
1368.000000	59.137506
1367.000000	56.811656
1366.000000	54.622944
1365.000000	53.066945
1364.000000	52.451173
1363.000000	52.796330
1362.000000	53.820214
1361.000000	55.110035
1360.000000	56.361873
1359.000000	57.451263
1358.000000	58.369206
1357.000000	59.149785
1356.000000	59.826112
1355.000000	60.412843
1354.000000	60.914232
1353.000000	61.333639
1352.000000	61.680599
1351.000000	61.961161
1350.000000	62.185295
1349.000000	62.376677
1348.000000	62.552479
1347.000000	62.715337
1346.000000	62.865011
1345.000000	63.007000
1344.000000	63.143440
1343.000000	63.268931
1342.000000	63.386191
1341.000000	63.514532
1340.000000	63.670333
1339.000000	63.845412
1338.000000	64.013699
1337.000000	64.151934
1336.000000	64.249644
1335.000000	64.311716
1334.000000	64.360210
1333.000000	64.422266
1332.000000	64.507928
1331.000000	64.602855
1330.000000	64.687164
1329.000000	64.753285
1328.000000	64.804099
1327.000000	64.843192
1326.000000	64.875309
1325.000000	64.902802
1324.000000	64.910590
1323.000000	64.862789
1322.000000	64.718293
1321.000000	64.440713
1320.000000	63.983976
1319.000000	63.282826
1318.000000	62.281972
1317.000000	61.008821
1316.000000	59.639389
1315.000000	58.475965
1314.000000	57.798838
1313.000000	57.696056
1312.000000	58.038410
1311.000000	58.618737
1310.000000	59.303516
1309.000000	60.040829
1308.000000	60.788241
1307.000000	61.491365
1306.000000	62.119033
1305.000000	62.678783
1304.000000	63.184419
1303.000000	63.639538
1302.000000	64.051803
1301.000000	64.432378
1300.000000	64.772487
1299.000000	65.048768
1298.000000	65.253021
1297.000000	65.393093
1296.000000	65.469112
1295.000000	65.463349
1294.000000	65.341895
1293.000000	65.028889
1292.000000	64.407031
1291.000000	63.440391
1290.000000	62.329883
1289.000000	61.472774
1288.000000	61.192630
1287.000000	61.491161
1286.000000	62.078123
1285.000000	62.638856
1284.000000	63.031928
1283.000000	63.275196
1282.000000	63.442129
1281.000000	63.594665
1280.000000	63.762347
1279.000000	63.931648
1278.000000	64.039689
1277.000000	63.965165
1276.000000	63.515773
1275.000000	62.456336
1274.000000	60.663499
1273.000000	58.359880
1272.000000	56.188933
1271.000000	54.923028
1270.000000	54.973046
1269.000000	56.145820
1268.000000	57.853246
1267.000000	59.538078
1266.000000	60.923295
1265.000000	61.979962
1264.000000	62.781319
1263.000000	63.403178
1262.000000	63.900801
1261.000000	64.307375
1260.000000	64.632560
1259.000000	64.877339
1258.000000	65.056584
1257.000000	65.192154
1256.000000	65.297602
1255.000000	65.381969
1254.000000	65.456599
1253.000000	65.530042
1252.000000	65.600493
1251.000000	65.666528
1250.000000	65.740174
1249.000000	65.839448
1248.000000	65.972097
1247.000000	66.135320
1246.000000	66.324032
1245.000000	66.527506
1244.000000	66.724520
1243.000000	66.895207
1242.000000	67.036323
1241.000000	67.155683
1240.000000	67.256098
1239.000000	67.334030
1238.000000	67.389273
1237.000000	67.423023
1236.000000	67.431232
1235.000000	67.413379
1234.000000	67.383813
1233.000000	67.363732
1232.000000	67.363457
1231.000000	67.380530
1230.000000	67.409084
1229.000000	67.438263
1228.000000	67.447668
1227.000000	67.415850
1226.000000	67.330713
1225.000000	67.183820
1224.000000	66.954924
1223.000000	66.618350
1222.000000	66.162154
1221.000000	65.591716
1220.000000	64.926244
1219.000000	64.195769
1218.000000	63.436744
1217.000000	62.673017
1216.000000	61.896683
1215.000000	61.077011
1214.000000	60.181546
1213.000000	59.191605
1212.000000	58.112318
1211.000000	56.982028
1210.000000	55.871274
1209.000000	54.866766
1208.000000	54.046815
1207.000000	53.449468
1206.000000	53.047126
1205.000000	52.752026
1204.000000	52.480901
1203.000000	52.229916
1202.000000	52.084457
1201.000000	52.159760
1200.000000	52.510532
1199.000000	53.092779
1198.000000	53.796887
1197.000000	54.509926
1196.000000	55.169235
1195.000000	55.771117
1194.000000	56.349660
1193.000000	56.946766
1192.000000	57.586745
1191.000000	58.268958
1190.000000	58.974515
1189.000000	59.676446
1188.000000	60.346504
1187.000000	60.963435
1186.000000	61.518086
1185.000000	62.010395
1184.000000	62.440131
1183.000000	62.801942
1182.000000	63.091985
1181.000000	63.310549
1180.000000	63.464276
1179.000000	63.571260
1178.000000	63.658172
1177.000000	63.748030
1176.000000	63.848650
1175.000000	63.957967
1174.000000	64.075844
1173.000000	64.204379
1172.000000	64.342971
1171.000000	64.491452
1170.000000	64.655366
1169.000000	64.838943
1168.000000	65.033497
1167.000000	65.219699
1166.000000	65.379557
1165.000000	65.500913
1164.000000	65.576190
1163.000000	65.607708
1162.000000	65.614128
1161.000000	65.620962
1160.000000	65.643535
1159.000000	65.684090
1158.000000	65.740615
1157.000000	65.811059
1156.000000	65.892638
1155.000000	65.986382
1154.000000	66.100349
1153.000000	66.240168
1152.000000	66.396744
1151.000000	66.550488
1150.000000	66.686228
1149.000000	66.797843
1148.000000	66.882277
1147.000000	66.940028
1146.000000	66.979184
1145.000000	67.007147
1144.000000	67.019332
1143.000000	67.001465
1142.000000	66.943752
1141.000000	66.846765
1140.000000	66.715685
1139.000000	66.559954
1138.000000	66.392236
1137.000000	66.218803
1136.000000	66.030887
1135.000000	65.808438
1134.000000	65.534370
1133.000000	65.198629
1132.000000	64.795839
1131.000000	64.329094
1130.000000	63.808434
1129.000000	63.242923
1128.000000	62.630472
1127.000000	61.957594
1126.000000	61.208891
1125.000000	60.360734
1124.000000	59.380716
1123.000000	58.219154
1122.000000	56.792946
1121.000000	54.982696
1120.000000	52.646678
1119.000000	49.689383
1118.000000	46.166267
1117.000000	42.385734
1116.000000	38.924354
1115.000000	36.485035
1114.000000	35.588904
1113.000000	36.316501
1112.000000	38.296912
1111.000000	40.885221
1110.000000	43.442695
1109.000000	45.549832
1108.000000	47.038612
1107.000000	47.853236
1106.000000	47.890650
1105.000000	47.030048
1104.000000	45.373727
1103.000000	43.439837
1102.000000	42.004622
1101.000000	41.665226
1100.000000	42.516754
1099.000000	44.197411
1098.000000	46.197977
1097.000000	48.147235
1096.000000	49.879745
1095.000000	51.368115
1094.000000	52.646139
1093.000000	53.761970
1092.000000	54.756340
1091.000000	55.657915
1090.000000	56.488623
1089.000000	57.261805
1088.000000	57.979226
1087.000000	58.634601
1086.000000	59.232445
1085.000000	59.790638
1084.000000	60.323936
1083.000000	60.840130
1082.000000	61.344618
1081.000000	61.839080
1080.000000	62.313054
1079.000000	62.751079
1078.000000	63.153364
1077.000000	63.535548
1076.000000	63.911223
1075.000000	64.284905
1074.000000	64.655987
1073.000000	65.015740
1072.000000	65.336122
1071.000000	65.580762
1070.000000	65.730583
1069.000000	65.783007
1068.000000	65.735549
1067.000000	65.573825
1066.000000	65.277402
1065.000000	64.823996
1064.000000	64.180093
1063.000000	63.321192
1062.000000	62.242380
1061.000000	60.943823
1060.000000	59.409274
1059.000000	57.595670
1058.000000	55.462879
1057.000000	53.008268
1056.000000	50.310693
1055.000000	47.569435
1054.000000	45.099654
1053.000000	43.247121
1052.000000	42.274188
1051.000000	42.266905
1050.000000	43.091406
1049.000000	44.473188
1048.000000	46.106058
1047.000000	47.747214
1046.000000	49.268458
1045.000000	50.635898
1044.000000	51.871438
1043.000000	53.004937
1042.000000	54.048376
1041.000000	54.993821
1040.000000	55.827423
1039.000000	56.545616
1038.000000	57.166518
1037.000000	57.723378
1036.000000	58.240597
1035.000000	58.726789
1034.000000	59.179180
1033.000000	59.591905
1032.000000	59.961994
1031.000000	60.295909
1030.000000	60.615436
1029.000000	60.945721
1028.000000	61.297139
1027.000000	61.663982
1026.000000	62.038438
1025.000000	62.418337
1024.000000	62.805307
1023.000000	63.207092
1022.000000	63.641035
1021.000000	64.122157
1020.000000	64.643188
1019.000000	65.171829
1018.000000	65.664868
1017.000000	66.081513
1016.000000	66.378805
1015.000000	66.519502
1014.000000	66.473704
1013.000000	66.197377
1012.000000	65.617893
1011.000000	64.621257
1010.000000	63.072723
1009.000000	60.843737
1008.000000	57.884226
1007.000000	54.375570
1006.000000	50.830059
1005.000000	47.981935
1004.000000	46.466537
1003.000000	46.492181
1002.000000	47.743521
1001.000000	49.597055
1000.000000	51.412974
999.000000	52.690196
998.000000	53.109062
997.000000	52.587402
996.000000	51.389149
995.000000	50.105536
994.000000	49.380177
993.000000	49.547164
992.000000	50.498206
991.000000	51.863155
990.000000	53.292804
989.000000	54.605838
988.000000	55.754968
987.000000	56.738086
986.000000	57.564614
985.000000	58.256757
984.000000	58.845604
983.000000	59.364265
982.000000	59.847720
981.000000	60.320928
980.000000	60.780412
979.000000	61.203892
978.000000	61.576251
977.000000	61.905118
976.000000	62.210690
975.000000	62.512810
974.000000	62.826922
973.000000	63.151407
972.000000	63.457387
971.000000	63.703600
970.000000	63.869536
969.000000	63.970080
968.000000	64.037837
967.000000	64.104916
966.000000	64.194877
965.000000	64.312007
964.000000	64.435480
963.000000	64.536356
962.000000	64.608363
961.000000	64.676106
960.000000	64.773411
959.000000	64.921906
958.000000	65.124652
957.000000	65.361507
956.000000	65.589031
955.000000	65.762812
954.000000	65.869677
953.000000	65.932174
952.000000	65.982530
951.000000	66.040516
950.000000	66.109245
949.000000	66.174785
948.000000	66.207257
947.000000	66.182946
946.000000	66.114660
945.000000	66.049472
944.000000	66.034471
943.000000	66.090917
942.000000	66.213629
941.000000	66.377253
940.000000	66.543352
939.000000	66.680855
938.000000	66.791660
937.000000	66.906695
936.000000	67.050988
935.000000	67.220148
934.000000	67.386173
933.000000	67.510460
932.000000	67.554666
931.000000	67.503946
930.000000	67.387865
929.000000	67.266912
928.000000	67.189704
927.000000	67.167464
926.000000	67.184782
925.000000	67.217128
924.000000	67.241033
923.000000	67.251235
922.000000	67.276986
921.000000	67.364004
920.000000	67.532489
919.000000	67.756994
918.000000	67.985903
917.000000	68.168393
916.000000	68.267402
915.000000	68.274577
914.000000	68.224288
913.000000	68.173101
912.000000	68.151217
911.000000	68.143956
910.000000	68.117845
909.000000	68.051141
908.000000	67.942770
907.000000	67.816977
906.000000	67.727008
905.000000	67.729101
904.000000	67.833263
903.000000	67.988805
902.000000	68.126141
901.000000	68.203660
900.000000	68.219788
899.000000	68.202467
898.000000	68.189189
897.000000	68.185113
896.000000	68.134917
895.000000	67.960411
894.000000	67.631107
893.000000	67.156977
892.000000	66.498372
891.000000	65.564413
890.000000	64.377672
889.000000	63.217840
888.000000	62.498900
887.000000	62.459080
886.000000	62.976697
885.000000	63.705024
884.000000	64.368895
883.000000	64.900450
882.000000	65.359591
881.000000	65.795681
880.000000	66.193977
879.000000	66.510070
878.000000	66.712836
877.000000	66.800327
876.000000	66.801009
875.000000	66.765874
874.000000	66.741831
873.000000	66.744286
872.000000	66.751363
871.000000	66.727700
870.000000	66.657025
869.000000	66.556648
868.000000	66.471690
867.000000	66.456022
866.000000	66.543903
865.000000	66.724453
864.000000	66.941528
863.000000	67.124358
862.000000	67.228241
861.000000	67.254363
860.000000	67.238143
859.000000	67.221763
858.000000	67.226810
857.000000	67.236119
856.000000	67.200090
855.000000	67.073491
854.000000	66.853427
853.000000	66.587272
852.000000	66.347277
851.000000	66.195559
850.000000	66.158385
849.000000	66.216272
848.000000	66.315332
847.000000	66.401263
846.000000	66.455677
845.000000	66.501850
844.000000	66.579309
843.000000	66.710524
842.000000	66.880641
841.000000	67.036422
840.000000	67.107596
839.000000	67.045910
838.000000	66.858491
837.000000	66.603461
836.000000	66.350472
835.000000	66.145322
834.000000	65.997891
833.000000	65.888051
832.000000	65.783195
831.000000	65.665201
830.000000	65.552097
829.000000	65.493341
828.000000	65.536877
827.000000	65.693662
826.000000	65.926762
825.000000	66.164707
824.000000	66.331621
823.000000	66.385380
822.000000	66.340905
821.000000	66.252922
820.000000	66.169755
819.000000	66.099759
818.000000	66.011924
817.000000	65.861966
816.000000	65.618116
815.000000	65.282403
814.000000	64.891622
813.000000	64.477419
812.000000	64.008712
811.000000	63.372697
810.000000	62.447434
809.000000	61.230946
808.000000	59.915821
807.000000	58.819635
806.000000	58.210568
805.000000	58.165690
804.000000	58.566939
803.000000	59.206021
802.000000	59.882910
801.000000	60.453113
800.000000	60.842448
799.000000	61.053418
798.000000	61.151756
797.000000	61.217495
796.000000	61.294871
795.000000	61.378886
794.000000	61.438526
793.000000	61.446356
792.000000	61.401364
791.000000	61.340669
790.000000	61.327251
789.000000	61.410013
788.000000	61.585397
787.000000	61.796219
786.000000	61.965777
785.000000	62.037281
784.000000	61.996571
783.000000	61.875070
782.000000	61.730917
781.000000	61.610413
780.000000	61.516962
779.000000	61.417436
778.000000	61.277343
777.000000	61.092424
776.000000	60.897393
775.000000	60.755521
774.000000	60.731500
773.000000	60.855176
772.000000	61.098230
771.000000	61.387406
770.000000	61.647048
769.000000	61.835950
768.000000	61.957203
767.000000	62.044647
766.000000	62.135748
765.000000	62.238536
764.000000	62.315654
763.000000	62.305397
762.000000	62.167416
761.000000	61.914054
760.000000	61.606407
759.000000	61.326899
758.000000	61.143136
757.000000	61.076197
756.000000	61.093323
755.000000	61.136790
754.000000	61.168375
753.000000	61.192018
752.000000	61.241993
751.000000	61.354749
750.000000	61.542513
749.000000	61.774479
748.000000	61.978717
747.000000	62.075964
746.000000	62.027283
745.000000	61.854746
744.000000	61.621132
743.000000	61.392199
742.000000	61.205938
741.000000	61.057981
740.000000	60.910124
739.000000	60.725946
738.000000	60.509404
737.000000	60.311062
736.000000	60.195897
735.000000	60.202792
734.000000	60.321655
733.000000	60.492000
732.000000	60.621147
731.000000	60.623627
730.000000	60.462620
729.000000	60.158019
728.000000	59.758181
727.000000	59.309141
726.000000	58.844828
725.000000	58.391370
724.000000	57.973925
723.000000	57.624235
722.000000	57.386112
721.000000	57.304217
720.000000	57.396645
719.000000	57.637727
718.000000	57.968018
717.000000	58.317307
716.000000	58.624798
715.000000	58.860015
714.000000	59.038444
713.000000	59.209192
712.000000	59.413004
711.000000	59.646894
710.000000	59.865381
709.000000	60.005914
708.000000	60.017798
707.000000	59.890964
706.000000	59.671139
705.000000	59.438852
704.000000	59.260998
703.000000	59.154387
702.000000	59.090948
701.000000	59.030051
700.000000	58.946561
699.000000	58.849251
698.000000	58.784607
697.000000	58.811448
696.000000	58.956072
695.000000	59.187060
694.000000	59.434128
693.000000	59.627035
692.000000	59.721306
691.000000	59.712981
690.000000	59.642454
689.000000	59.569983
688.000000	59.527050
687.000000	59.489059
686.000000	59.404563
685.000000	59.244042
684.000000	59.018439
683.000000	58.772724
682.000000	58.574625
681.000000	58.490692
680.000000	58.543330
679.000000	58.690186
678.000000	58.860231
677.000000	59.003153
676.000000	59.106362
675.000000	59.183700
674.000000	59.271433
673.000000	59.399261
672.000000	59.517526
671.000000	59.488848
670.000000	59.197437
669.000000	58.715405
668.000000	58.271127
667.000000	58.103991
666.000000	58.294127
665.000000	58.595065
664.000000	58.769671
663.000000	58.821164
662.000000	58.812671
661.000000	58.785406
660.000000	58.759143
659.000000	58.783775
658.000000	58.908920
657.000000	59.131779
656.000000	59.396405
655.000000	59.628489
654.000000	59.767167
653.000000	59.790090
652.000000	59.723857
651.000000	59.629646
650.000000	59.561249
649.000000	59.526570
648.000000	59.489760
647.000000	59.407879
646.000000	59.265361
645.000000	59.087877
644.000000	58.934535
643.000000	58.871951
642.000000	58.938338
641.000000	59.117641
640.000000	59.348157
639.000000	59.558804
638.000000	59.705167
637.000000	59.787572
636.000000	59.843024
635.000000	59.914938
634.000000	60.018565
633.000000	60.125461
632.000000	60.178522
631.000000	60.129816
630.000000	59.974602
629.000000	59.757871
628.000000	59.552592
627.000000	59.426152
626.000000	59.407651
625.000000	59.473223
624.000000	59.565123
623.000000	59.633853
622.000000	59.673830
621.000000	59.722656
620.000000	59.828184
619.000000	60.012605
618.000000	60.253753
617.000000	60.490039
616.000000	60.648227
615.000000	60.684064
614.000000	60.611636
613.000000	60.494373
612.000000	60.399498
611.000000	60.356773
610.000000	60.350771
609.000000	60.340286
608.000000	60.287880
607.000000	60.189777
606.000000	60.090352
605.000000	60.060859
604.000000	60.150166
603.000000	60.347972
602.000000	60.593620
601.000000	60.813648
600.000000	60.952024
599.000000	60.987613
598.000000	60.942157
597.000000	60.853022
596.000000	60.722916
595.000000	60.484708
594.000000	59.992085
593.000000	59.030774
592.000000	57.363637
591.000000	54.894858
590.000000	51.891592
589.000000	49.029518
588.000000	47.128462
587.000000	46.720029
586.000000	47.727838
585.000000	49.540888
584.000000	51.467134
583.000000	53.116722
582.000000	54.435310
581.000000	55.517518
580.000000	56.441109
579.000000	57.218231
578.000000	57.823162
577.000000	58.233766
576.000000	58.463322
575.000000	58.575567
574.000000	58.655110
573.000000	58.759352
572.000000	58.895450
571.000000	59.032235
570.000000	59.129929
569.000000	59.169944
568.000000	59.175229
567.000000	59.204933
566.000000	59.316321
565.000000	59.518526
564.000000	59.758964
563.000000	59.953819
562.000000	60.037973
561.000000	60.001357
560.000000	59.889855
559.000000	59.773224
558.000000	59.701131
557.000000	59.672850
556.000000	59.644781
555.000000	59.571976
554.000000	59.447426
553.000000	59.309901
552.000000	59.224083
551.000000	59.251792
550.000000	59.418435
549.000000	59.693774
548.000000	60.006481
547.000000	60.282450
546.000000	60.484017
545.000000	60.625809
544.000000	60.758305
543.000000	60.931898
542.000000	61.161008
541.000000	61.404430
540.000000	61.582695
539.000000	61.627914
538.000000	61.532804
537.000000	61.357817
536.000000	61.189439
535.000000	61.091933
534.000000	61.080225
533.000000	61.118393
532.000000	61.146642
531.000000	61.123797
530.000000	61.060167
529.000000	61.011142
528.000000	61.037229
527.000000	61.162377
526.000000	61.350010
525.000000	61.509313
524.000000	61.539941
523.000000	61.386372
522.000000	61.062888
521.000000	60.626711
520.000000	60.122502
519.000000	59.541218
518.000000	58.826148
517.000000	57.935679
516.000000	56.912585
515.000000	55.901040
514.000000	55.092489
513.000000	54.650045
512.000000	54.649331
511.000000	55.052551
510.000000	55.720904
509.000000	56.481906
508.000000	57.213681
507.000000	57.865385
506.000000	58.438553
505.000000	58.962518
504.000000	59.465889
503.000000	59.943117
502.000000	60.341741
501.000000	60.597705
500.000000	60.692762
499.000000	60.676870
498.000000	60.641547
497.000000	60.669408
496.000000	60.783468
495.000000	60.936240
494.000000	61.056821
493.000000	61.111748
492.000000	61.126651
491.000000	61.164258
490.000000	61.280908
489.000000	61.486576
488.000000	61.728848
487.000000	61.911447
486.000000	61.941472
485.000000	61.772943
484.000000	61.419805
483.000000	60.925267
482.000000	60.320888
481.000000	59.593462
480.000000	58.667292
479.000000	57.439849
478.000000	55.865068
477.000000	54.046563
476.000000	52.255227
475.000000	50.846252
474.000000	50.117599
473.000000	50.195453
472.000000	50.967498
471.000000	52.126677
470.000000	53.374539
469.000000	54.566785
468.000000	55.682950
467.000000	56.728040
466.000000	57.682708
465.000000	58.506944
464.000000	59.154305
463.000000	59.590154
462.000000	59.834752
461.000000	59.978944
460.000000	60.127881
459.000000	60.358481
458.000000	60.703782
457.000000	61.120335
456.000000	61.498568
455.000000	61.757948
454.000000	61.923554
453.000000	62.102001
452.000000	62.386708
451.000000	62.775743
450.000000	63.186721
449.000000	63.528056
448.000000	63.729206
447.000000	63.763124
446.000000	63.689736
445.000000	63.634314
444.000000	63.692042
443.000000	63.860057
442.000000	64.059201
441.000000	64.207261
440.000000	64.260393
439.000000	64.228118
438.000000	64.191621
437.000000	64.278956
436.000000	64.560854
435.000000	64.970612
434.000000	65.362538
433.000000	65.628451
432.000000	65.728495
431.000000	65.688178
430.000000	65.613662
429.000000	65.631388
428.000000	65.757391
427.000000	65.868764
426.000000	65.840556
425.000000	65.671215
424.000000	65.451675
423.000000	65.273665
422.000000	65.201213
421.000000	65.278429
420.000000	65.511184
419.000000	65.827414
418.000000	66.117377
417.000000	66.347363
416.000000	66.541791
415.000000	66.735024
414.000000	66.996980
413.000000	67.390341
412.000000	67.829314
411.000000	68.086645
410.000000	68.032293
409.000000	67.773652
408.000000	67.463277
407.000000	67.149181
406.000000	66.892548
405.000000	66.846831
404.000000	67.046723
403.000000	67.254441
402.000000	67.253287
401.000000	67.130545
400.000000	67.084182
