PE IR       SUBTECH     SPECTRUM    ASCII       PEDS        4.00        
   -1
23ms157-trans.asc
24/09/23
16:19:29.00
24/09/23
16:19:29.00
Administrator
Sample 1187 By Administrator Date Monday, September 23 2024
400.000000
#HDR
-1
-1
#GR
cm-1
%T
1.0
0.0
4000.000000
-1.000000
3601
8
70.550444
6.636882
#DATA
4000.000000	29.678421
3999.000000	29.666930
3998.000000	29.654849
3997.000000	29.642193
3996.000000	29.628574
3995.000000	29.613368
3994.000000	29.596061
3993.000000	29.576551
3992.000000	29.555310
3991.000000	29.533208
3990.000000	29.511088
3989.000000	29.489621
3988.000000	29.469656
3987.000000	29.452548
3986.000000	29.439837
3985.000000	29.432369
3984.000000	29.429680
3983.000000	29.430196
3982.000000	29.431914
3981.000000	29.433067
3980.000000	29.432480
3979.000000	29.429704
3978.000000	29.425079
3977.000000	29.419570
3976.000000	29.414476
3975.000000	29.411182
3974.000000	29.411023
3973.000000	29.415282
3972.000000	29.425117
3971.000000	29.441383
3970.000000	29.464446
3969.000000	29.493885
3968.000000	29.528615
3967.000000	29.567254
3966.000000	29.608402
3965.000000	29.650952
3964.000000	29.694062
3963.000000	29.736991
3962.000000	29.778830
3961.000000	29.818543
3960.000000	29.855551
3959.000000	29.890225
3958.000000	29.923549
3957.000000	29.955987
3956.000000	29.987050
3955.000000	30.015805
3954.000000	30.041607
3953.000000	30.064448
3952.000000	30.084887
3951.000000	30.103929
3950.000000	30.122604
3949.000000	30.141605
3948.000000	30.161297
3947.000000	30.181855
3946.000000	30.203539
3945.000000	30.226917
3944.000000	30.252451
3943.000000	30.279879
3942.000000	30.308168
3941.000000	30.336217
3940.000000	30.363632
3939.000000	30.390491
3938.000000	30.416171
3937.000000	30.438978
3936.000000	30.457570
3935.000000	30.472163
3934.000000	30.484097
3933.000000	30.494746
3932.000000	30.504975
3931.000000	30.515526
3930.000000	30.527230
3929.000000	30.540709
3928.000000	30.555906
3927.000000	30.571837
3926.000000	30.587396
3925.000000	30.602217
3924.000000	30.616266
3923.000000	30.629530
3922.000000	30.642773
3921.000000	30.657316
3920.000000	30.673328
3919.000000	30.689559
3918.000000	30.705377
3917.000000	30.721726
3916.000000	30.739585
3915.000000	30.758880
3914.000000	30.779134
3913.000000	30.800146
3912.000000	30.821342
3911.000000	30.841335
3910.000000	30.859534
3909.000000	30.876695
3908.000000	30.893927
3907.000000	30.911402
3906.000000	30.927347
3905.000000	30.939220
3904.000000	30.946514
3903.000000	30.952062
3902.000000	30.959826
3901.000000	30.972181
3900.000000	30.989380
3899.000000	31.009828
3898.000000	31.030727
3897.000000	31.050502
3896.000000	31.069941
3895.000000	31.090466
3894.000000	31.111973
3893.000000	31.131956
3892.000000	31.148281
3891.000000	31.162984
3890.000000	31.180157
3889.000000	31.200188
3888.000000	31.219980
3887.000000	31.235606
3886.000000	31.244521
3885.000000	31.249849
3884.000000	31.257232
3883.000000	31.267766
3882.000000	31.279821
3881.000000	31.291833
3880.000000	31.303156
3879.000000	31.315568
3878.000000	31.330233
3877.000000	31.345762
3876.000000	31.359862
3875.000000	31.371365
3874.000000	31.382569
3873.000000	31.396122
3872.000000	31.409736
3871.000000	31.419732
3870.000000	31.427560
3869.000000	31.438472
3868.000000	31.454162
3867.000000	31.471544
3866.000000	31.488286
3865.000000	31.502806
3864.000000	31.514179
3863.000000	31.525043
3862.000000	31.537899
3861.000000	31.551132
3860.000000	31.563826
3859.000000	31.581199
3858.000000	31.612932
3857.000000	31.665398
3856.000000	31.731595
3855.000000	31.786618
3854.000000	31.805749
3853.000000	31.801390
3852.000000	31.805845
3851.000000	31.816846
3850.000000	31.813130
3849.000000	31.793229
3848.000000	31.768773
3847.000000	31.751689
3846.000000	31.748683
3845.000000	31.757200
3844.000000	31.770170
3843.000000	31.783974
3842.000000	31.799344
3841.000000	31.816523
3840.000000	31.833926
3839.000000	31.848339
3838.000000	31.857836
3837.000000	31.866485
3836.000000	31.880218
3835.000000	31.898884
3834.000000	31.916986
3833.000000	31.930742
3832.000000	31.941652
3831.000000	31.953775
3830.000000	31.969113
3829.000000	31.986585
3828.000000	32.003961
3827.000000	32.020687
3826.000000	32.039196
3825.000000	32.061976
3824.000000	32.088240
3823.000000	32.112614
3822.000000	32.127998
3821.000000	32.136651
3820.000000	32.150168
3819.000000	32.171011
3818.000000	32.191778
3817.000000	32.208116
3816.000000	32.219984
3815.000000	32.232436
3814.000000	32.249486
3813.000000	32.267269
3812.000000	32.281793
3811.000000	32.294956
3810.000000	32.312482
3809.000000	32.336962
3808.000000	32.362481
3807.000000	32.383309
3806.000000	32.402462
3805.000000	32.423494
3804.000000	32.444091
3803.000000	32.458594
3802.000000	32.461860
3801.000000	32.457607
3800.000000	32.456546
3799.000000	32.461027
3798.000000	32.466038
3797.000000	32.468397
3796.000000	32.469108
3795.000000	32.473802
3794.000000	32.486741
3793.000000	32.506422
3792.000000	32.528128
3791.000000	32.548097
3790.000000	32.566047
3789.000000	32.583623
3788.000000	32.601277
3787.000000	32.617826
3786.000000	32.631960
3785.000000	32.643478
3784.000000	32.653466
3783.000000	32.662984
3782.000000	32.672454
3781.000000	32.682116
3780.000000	32.692449
3779.000000	32.704668
3778.000000	32.719600
3777.000000	32.735658
3776.000000	32.750755
3775.000000	32.764754
3774.000000	32.778622
3773.000000	32.793122
3772.000000	32.807770
3771.000000	32.820469
3770.000000	32.829603
3769.000000	32.835895
3768.000000	32.840480
3767.000000	32.843043
3766.000000	32.843099
3765.000000	32.841612
3764.000000	32.840333
3763.000000	32.840212
3762.000000	32.841286
3761.000000	32.843352
3760.000000	32.846192
3759.000000	32.850064
3758.000000	32.856626
3757.000000	32.868176
3756.000000	32.886556
3755.000000	32.913750
3754.000000	32.950316
3753.000000	32.991682
3752.000000	33.028092
3751.000000	33.052202
3750.000000	33.067166
3749.000000	33.081108
3748.000000	33.096390
3747.000000	33.111457
3746.000000	33.122927
3745.000000	33.123465
3744.000000	33.116177
3743.000000	33.114675
3742.000000	33.115473
3741.000000	33.104071
3740.000000	33.079201
3739.000000	33.050454
3738.000000	33.029123
3737.000000	33.021290
3736.000000	33.027274
3735.000000	33.045807
3734.000000	33.071179
3733.000000	33.095486
3732.000000	33.117136
3731.000000	33.138015
3730.000000	33.156126
3729.000000	33.166494
3728.000000	33.166350
3727.000000	33.158392
3726.000000	33.148971
3725.000000	33.143264
3724.000000	33.142698
3723.000000	33.146745
3722.000000	33.154795
3721.000000	33.166199
3720.000000	33.180445
3719.000000	33.195353
3718.000000	33.207544
3717.000000	33.215742
3716.000000	33.222073
3715.000000	33.231200
3714.000000	33.244798
3713.000000	33.258067
3712.000000	33.265589
3711.000000	33.268877
3710.000000	33.272179
3709.000000	33.273762
3708.000000	33.270235
3707.000000	33.261924
3706.000000	33.251671
3705.000000	33.241944
3704.000000	33.233834
3703.000000	33.227319
3702.000000	33.221754
3701.000000	33.216982
3700.000000	33.212330
3699.000000	33.206093
3698.000000	33.197188
3697.000000	33.186601
3696.000000	33.175238
3695.000000	33.163824
3694.000000	33.153137
3693.000000	33.143978
3692.000000	33.136280
3691.000000	33.127908
3690.000000	33.115100
3689.000000	33.096796
3688.000000	33.078947
3687.000000	33.065648
3686.000000	33.051522
3685.000000	33.027862
3684.000000	32.992621
3683.000000	32.951138
3682.000000	32.910811
3681.000000	32.877049
3680.000000	32.852256
3679.000000	32.835360
3678.000000	32.818679
3677.000000	32.790504
3676.000000	32.747234
3675.000000	32.702929
3674.000000	32.669052
3673.000000	32.635098
3672.000000	32.588682
3671.000000	32.529645
3670.000000	32.464618
3669.000000	32.403981
3668.000000	32.350224
3667.000000	32.295203
3666.000000	32.233277
3665.000000	32.165176
3664.000000	32.094251
3663.000000	32.022872
3662.000000	31.951813
3661.000000	31.881937
3660.000000	31.813532
3659.000000	31.744362
3658.000000	31.669641
3657.000000	31.586589
3656.000000	31.498916
3655.000000	31.411407
3654.000000	31.321588
3653.000000	31.223198
3652.000000	31.112665
3651.000000	30.988666
3650.000000	30.853735
3649.000000	30.717902
3648.000000	30.592260
3647.000000	30.478182
3646.000000	30.368387
3645.000000	30.256076
3644.000000	30.139633
3643.000000	30.020771
3642.000000	29.901126
3641.000000	29.780412
3640.000000	29.657187
3639.000000	29.530779
3638.000000	29.401035
3637.000000	29.266515
3636.000000	29.125277
3635.000000	28.979393
3634.000000	28.836066
3633.000000	28.700927
3632.000000	28.570378
3631.000000	28.431708
3630.000000	28.273161
3629.000000	28.101281
3628.000000	27.938428
3627.000000	27.791103
3626.000000	27.645451
3625.000000	27.493224
3624.000000	27.337118
3623.000000	27.182213
3622.000000	27.030105
3621.000000	26.876772
3620.000000	26.718276
3619.000000	26.556567
3618.000000	26.396272
3617.000000	26.237546
3616.000000	26.076883
3615.000000	25.913076
3614.000000	25.748975
3613.000000	25.589613
3612.000000	25.437459
3611.000000	25.288796
3610.000000	25.137204
3609.000000	24.980762
3608.000000	24.823676
3607.000000	24.669484
3606.000000	24.516951
3605.000000	24.364034
3604.000000	24.211391
3603.000000	24.059774
3602.000000	23.907925
3601.000000	23.755303
3600.000000	23.603619
3599.000000	23.454582
3598.000000	23.307518
3597.000000	23.160539
3596.000000	23.012457
3595.000000	22.864111
3594.000000	22.717743
3593.000000	22.575505
3592.000000	22.437955
3591.000000	22.302194
3590.000000	22.162281
3589.000000	22.013615
3588.000000	21.858644
3587.000000	21.705490
3586.000000	21.560191
3585.000000	21.423413
3584.000000	21.294125
3583.000000	21.170334
3582.000000	21.048821
3581.000000	20.927863
3580.000000	20.807408
3579.000000	20.686984
3578.000000	20.565269
3577.000000	20.442252
3576.000000	20.319367
3575.000000	20.197282
3574.000000	20.075129
3573.000000	19.952328
3572.000000	19.829696
3571.000000	19.707755
3570.000000	19.585870
3569.000000	19.464111
3568.000000	19.344840
3567.000000	19.230453
3566.000000	19.120230
3565.000000	19.011615
3564.000000	18.904335
3563.000000	18.800342
3562.000000	18.700942
3561.000000	18.606487
3560.000000	18.516421
3559.000000	18.428272
3558.000000	18.339001
3557.000000	18.247565
3556.000000	18.154620
3555.000000	18.060091
3554.000000	17.963180
3553.000000	17.864800
3552.000000	17.767597
3551.000000	17.672526
3550.000000	17.577114
3549.000000	17.477894
3548.000000	17.373463
3547.000000	17.265833
3546.000000	17.160272
3545.000000	17.062913
3544.000000	16.976830
3543.000000	16.900224
3542.000000	16.828647
3541.000000	16.757850
3540.000000	16.684226
3539.000000	16.604785
3538.000000	16.519573
3537.000000	16.433557
3536.000000	16.352991
3535.000000	16.279385
3534.000000	16.208982
3533.000000	16.137835
3532.000000	16.064682
3531.000000	15.989395
3530.000000	15.911533
3529.000000	15.831026
3528.000000	15.748158
3527.000000	15.662456
3526.000000	15.573947
3525.000000	15.486049
3524.000000	15.404729
3523.000000	15.333460
3522.000000	15.270325
3521.000000	15.210466
3520.000000	15.149727
3519.000000	15.085668
3518.000000	15.017317
3517.000000	14.945119
3516.000000	14.870457
3515.000000	14.795119
3514.000000	14.721424
3513.000000	14.651773
3512.000000	14.586542
3511.000000	14.522966
3510.000000	14.457711
3509.000000	14.389998
3508.000000	14.320479
3507.000000	14.248035
3506.000000	14.170520
3505.000000	14.088854
3504.000000	14.008347
3503.000000	13.935012
3502.000000	13.871043
3501.000000	13.813828
3500.000000	13.758235
3499.000000	13.700099
3498.000000	13.639259
3497.000000	13.579256
3496.000000	13.523045
3495.000000	13.469762
3494.000000	13.416810
3493.000000	13.363544
3492.000000	13.310644
3491.000000	13.257190
3490.000000	13.201184
3489.000000	13.142783
3488.000000	13.084909
3487.000000	13.030556
3486.000000	12.980842
3485.000000	12.934905
3484.000000	12.889696
3483.000000	12.840898
3482.000000	12.786769
3481.000000	12.731159
3480.000000	12.680712
3479.000000	12.638842
3478.000000	12.603729
3477.000000	12.571153
3476.000000	12.537257
3475.000000	12.499267
3474.000000	12.455619
3473.000000	12.405790
3472.000000	12.349601
3471.000000	12.287917
3470.000000	12.225095
3469.000000	12.169085
3468.000000	12.126605
3467.000000	12.098071
3466.000000	12.078169
3465.000000	12.060087
3464.000000	12.038101
3463.000000	12.008684
3462.000000	11.972393
3461.000000	11.934273
3460.000000	11.899955
3459.000000	11.871092
3458.000000	11.845479
3457.000000	11.820340
3456.000000	11.793878
3455.000000	11.765076
3454.000000	11.734250
3453.000000	11.703256
3452.000000	11.673334
3451.000000	11.643388
3450.000000	11.612005
3449.000000	11.580188
3448.000000	11.550401
3447.000000	11.523640
3446.000000	11.499149
3445.000000	11.476180
3444.000000	11.454183
3443.000000	11.431835
3442.000000	11.407464
3441.000000	11.379882
3440.000000	11.347943
3439.000000	11.310942
3438.000000	11.271150
3437.000000	11.234622
3436.000000	11.207280
3435.000000	11.190319
3434.000000	11.180080
3433.000000	11.171259
3432.000000	11.159739
3431.000000	11.144475
3430.000000	11.128512
3429.000000	11.116726
3428.000000	11.110861
3427.000000	11.107918
3426.000000	11.103982
3425.000000	11.097658
3424.000000	11.088915
3423.000000	11.077377
3422.000000	11.063894
3421.000000	11.051631
3420.000000	11.043037
3419.000000	11.036913
3418.000000	11.030123
3417.000000	11.020636
3416.000000	11.007744
3415.000000	10.991737
3414.000000	10.975192
3413.000000	10.962397
3412.000000	10.955355
3411.000000	10.952029
3410.000000	10.950170
3409.000000	10.950740
3408.000000	10.955211
3407.000000	10.961358
3406.000000	10.964066
3405.000000	10.959133
3404.000000	10.945207
3403.000000	10.924597
3402.000000	10.904479
3401.000000	10.894861
3400.000000	10.901714
3399.000000	10.922021
3398.000000	10.946776
3397.000000	10.967539
3396.000000	10.979249
3395.000000	10.980169
3394.000000	10.973207
3393.000000	10.966495
3392.000000	10.969178
3391.000000	10.985345
3390.000000	11.012447
3389.000000	11.044411
3388.000000	11.075039
3387.000000	11.100399
3386.000000	11.120406
3385.000000	11.137674
3384.000000	11.153989
3383.000000	11.168947
3382.000000	11.182437
3381.000000	11.196255
3380.000000	11.211897
3379.000000	11.228800
3378.000000	11.246407
3377.000000	11.266094
3376.000000	11.289031
3375.000000	11.313343
3374.000000	11.335161
3373.000000	11.351744
3372.000000	11.362953
3371.000000	11.371495
3370.000000	11.382934
3369.000000	11.403661
3368.000000	11.436741
3367.000000	11.480074
3366.000000	11.528947
3365.000000	11.578658
3364.000000	11.624769
3363.000000	11.664161
3362.000000	11.697814
3361.000000	11.730682
3360.000000	11.766915
3359.000000	11.806418
3358.000000	11.847053
3357.000000	11.887759
3356.000000	11.927728
3355.000000	11.964816
3354.000000	11.997369
3353.000000	12.026953
3352.000000	12.057984
3351.000000	12.095277
3350.000000	12.141946
3349.000000	12.197487
3348.000000	12.256741
3347.000000	12.312577
3346.000000	12.361394
3345.000000	12.405188
3344.000000	12.447898
3343.000000	12.491397
3342.000000	12.535509
3341.000000	12.579930
3340.000000	12.625087
3339.000000	12.672623
3338.000000	12.725511
3337.000000	12.785648
3336.000000	12.850721
3335.000000	12.915541
3334.000000	12.977112
3333.000000	13.036467
3332.000000	13.095234
3331.000000	13.153002
3330.000000	13.208721
3329.000000	13.262226
3328.000000	13.313466
3327.000000	13.362694
3326.000000	13.412279
3325.000000	13.465671
3324.000000	13.523277
3323.000000	13.581465
3322.000000	13.636610
3321.000000	13.687954
3320.000000	13.735825
3319.000000	13.779841
3318.000000	13.820047
3317.000000	13.857418
3316.000000	13.891749
3315.000000	13.920993
3314.000000	13.943761
3313.000000	13.960126
3312.000000	13.969363
3311.000000	13.969503
3310.000000	13.960417
3309.000000	13.945445
3308.000000	13.928690
3307.000000	13.912989
3306.000000	13.901211
3305.000000	13.896299
3304.000000	13.898229
3303.000000	13.903166
3302.000000	13.907324
3301.000000	13.909861
3300.000000	13.911320
3299.000000	13.911941
3298.000000	13.913139
3297.000000	13.917970
3296.000000	13.927849
3295.000000	13.940574
3294.000000	13.953054
3293.000000	13.964115
3292.000000	13.973156
3291.000000	13.977882
3290.000000	13.974839
3289.000000	13.961041
3288.000000	13.933736
3287.000000	13.890499
3286.000000	13.830942
3285.000000	13.755996
3284.000000	13.665301
3283.000000	13.556353
3282.000000	13.426951
3281.000000	13.276868
3280.000000	13.105295
3279.000000	12.910002
3278.000000	12.690124
3277.000000	12.447627
3276.000000	12.185615
3275.000000	11.906164
3274.000000	11.612224
3273.000000	11.310416
3272.000000	11.010825
3271.000000	10.725840
3270.000000	10.469702
3269.000000	10.256394
3268.000000	10.095952
3267.000000	9.995024
3266.000000	9.958621
3265.000000	9.990094
3264.000000	10.086913
3263.000000	10.237854
3262.000000	10.427744
3261.000000	10.639527
3260.000000	10.853863
3259.000000	11.050383
3258.000000	11.211670
3257.000000	11.324935
3256.000000	11.379376
3255.000000	11.363745
3254.000000	11.268003
3253.000000	11.086683
3252.000000	10.816251
3251.000000	10.456736
3250.000000	10.015556
3249.000000	9.509091
3248.000000	8.962043
3247.000000	8.403514
3246.000000	7.866935
3245.000000	7.388866
3244.000000	7.005049
3243.000000	6.746117
3242.000000	6.636882
3241.000000	6.689612
3240.000000	6.894658
3239.000000	7.222177
3238.000000	7.630354
3237.000000	8.078781
3236.000000	8.534472
3235.000000	8.974478
3234.000000	9.389281
3233.000000	9.777453
3232.000000	10.137861
3231.000000	10.466709
3230.000000	10.761675
3229.000000	11.024548
3228.000000	11.259056
3227.000000	11.468529
3226.000000	11.656701
3225.000000	11.828130
3224.000000	11.984912
3223.000000	12.126594
3222.000000	12.253018
3221.000000	12.365152
3220.000000	12.462960
3219.000000	12.544244
3218.000000	12.607618
3217.000000	12.653293
3216.000000	12.680906
3215.000000	12.689804
3214.000000	12.681335
3213.000000	12.659379
3212.000000	12.627082
3211.000000	12.585841
3210.000000	12.538405
3209.000000	12.489186
3208.000000	12.441363
3207.000000	12.395922
3206.000000	12.354209
3205.000000	12.318733
3204.000000	12.290377
3203.000000	12.267658
3202.000000	12.249540
3201.000000	12.236399
3200.000000	12.227416
3199.000000	12.220133
3198.000000	12.213447
3197.000000	12.208551
3196.000000	12.206259
3195.000000	12.205814
3194.000000	12.207136
3193.000000	12.211244
3192.000000	12.217673
3191.000000	12.224378
3190.000000	12.230943
3189.000000	12.239748
3188.000000	12.253439
3187.000000	12.273725
3186.000000	12.303074
3185.000000	12.344003
3184.000000	12.395970
3183.000000	12.455295
3182.000000	12.518545
3181.000000	12.583559
3180.000000	12.646672
3179.000000	12.702507
3178.000000	12.747530
3177.000000	12.781508
3176.000000	12.805260
3175.000000	12.820128
3174.000000	12.830114
3173.000000	12.841531
3172.000000	12.859581
3171.000000	12.887872
3170.000000	12.931271
3169.000000	12.995769
3168.000000	13.084744
3167.000000	13.197424
3166.000000	13.332506
3165.000000	13.490090
3164.000000	13.670324
3163.000000	13.874021
3162.000000	14.103948
3161.000000	14.363691
3160.000000	14.652710
3159.000000	14.964768
3158.000000	15.291510
3157.000000	15.623549
3156.000000	15.949907
3155.000000	16.260160
3154.000000	16.548907
3153.000000	16.815895
3152.000000	17.061580
3151.000000	17.284895
3150.000000	17.485055
3149.000000	17.662807
3148.000000	17.818010
3147.000000	17.949564
3146.000000	18.056461
3145.000000	18.136533
3144.000000	18.184515
3143.000000	18.192028
3142.000000	18.152486
3141.000000	18.062959
3140.000000	17.922092
3139.000000	17.730631
3138.000000	17.492131
3137.000000	17.213439
3136.000000	16.902541
3135.000000	16.568529
3134.000000	16.224948
3133.000000	15.888497
3132.000000	15.574719
3131.000000	15.295855
3130.000000	15.062433
3129.000000	14.882008
3128.000000	14.755587
3127.000000	14.677350
3126.000000	14.639207
3125.000000	14.634121
3124.000000	14.653932
3123.000000	14.690649
3122.000000	14.740401
3121.000000	14.803726
3120.000000	14.881569
3119.000000	14.972132
3118.000000	15.073317
3117.000000	15.183741
3116.000000	15.300247
3115.000000	15.416543
3114.000000	15.524633
3113.000000	15.615455
3112.000000	15.678271
3111.000000	15.703939
3110.000000	15.688772
3109.000000	15.634227
3108.000000	15.541199
3107.000000	15.407733
3106.000000	15.233534
3105.000000	15.022201
3104.000000	14.780640
3103.000000	14.518360
3102.000000	14.249652
3101.000000	13.993042
3100.000000	13.765959
3099.000000	13.580854
3098.000000	13.445755
3097.000000	13.365897
3096.000000	13.341790
3095.000000	13.370285
3094.000000	13.447086
3093.000000	13.567645
3092.000000	13.726535
3091.000000	13.917154
3090.000000	14.134577
3089.000000	14.373977
3088.000000	14.627436
3087.000000	14.886157
3086.000000	15.145215
3085.000000	15.404322
3084.000000	15.662663
3083.000000	15.916472
3082.000000	16.162112
3081.000000	16.398447
3080.000000	16.625875
3079.000000	16.845544
3078.000000	17.059890
3077.000000	17.270861
3076.000000	17.477504
3075.000000	17.677220
3074.000000	17.869548
3073.000000	18.056291
3072.000000	18.237956
3071.000000	18.413324
3070.000000	18.582658
3069.000000	18.748955
3068.000000	18.915596
3067.000000	19.084418
3066.000000	19.255917
3065.000000	19.428903
3064.000000	19.600115
3063.000000	19.766505
3062.000000	19.927610
3061.000000	20.084113
3060.000000	20.235051
3059.000000	20.378929
3058.000000	20.516858
3057.000000	20.651609
3056.000000	20.784148
3055.000000	20.913473
3054.000000	21.039353
3053.000000	21.162912
3052.000000	21.284852
3051.000000	21.405558
3050.000000	21.526066
3049.000000	21.646275
3048.000000	21.763107
3047.000000	21.872987
3046.000000	21.975801
3045.000000	22.074008
3044.000000	22.168866
3043.000000	22.260503
3042.000000	22.350613
3041.000000	22.441671
3040.000000	22.533278
3039.000000	22.621993
3038.000000	22.705300
3037.000000	22.783761
3036.000000	22.860071
3035.000000	22.938172
3034.000000	23.022481
3033.000000	23.115122
3032.000000	23.213718
3031.000000	23.314019
3030.000000	23.414118
3029.000000	23.514252
3028.000000	23.613755
3027.000000	23.711339
3026.000000	23.808013
3025.000000	23.906689
3024.000000	24.008696
3023.000000	24.112764
3022.000000	24.217389
3021.000000	24.322094
3020.000000	24.426584
3019.000000	24.530682
3018.000000	24.634943
3017.000000	24.739751
3016.000000	24.844450
3015.000000	24.948976
3014.000000	25.055672
3013.000000	25.167688
3012.000000	25.286168
3011.000000	25.410383
3010.000000	25.539200
3009.000000	25.670684
3008.000000	25.801258
3007.000000	25.927504
3006.000000	26.048105
3005.000000	26.162699
3004.000000	26.269473
3003.000000	26.364700
3002.000000	26.443393
3001.000000	26.495885
3000.000000	26.502535
2999.000000	26.431064
2998.000000	26.244811
2997.000000	25.928435
2996.000000	25.520617
2995.000000	25.124865
2994.000000	24.869112
2993.000000	24.835972
2992.000000	25.017020
2991.000000	25.332126
2990.000000	25.686928
2989.000000	26.016710
2988.000000	26.295382
2987.000000	26.523049
2986.000000	26.713319
2985.000000	26.880631
2984.000000	27.032914
2983.000000	27.170684
2982.000000	27.292139
2981.000000	27.393418
2980.000000	27.464001
2979.000000	27.484997
2978.000000	27.436665
2977.000000	27.314278
2976.000000	27.143169
2975.000000	26.981686
2974.000000	26.899854
2973.000000	26.943473
2972.000000	27.111126
2971.000000	27.362954
2970.000000	27.649230
2969.000000	27.931262
2968.000000	28.186931
2967.000000	28.407805
2966.000000	28.595676
2965.000000	28.755471
2964.000000	28.889514
2963.000000	28.995080
2962.000000	29.064563
2961.000000	29.082289
2960.000000	29.016921
2959.000000	28.819810
2958.000000	28.434886
2957.000000	27.833157
2956.000000	27.060228
2955.000000	26.262068
2954.000000	25.640731
2953.000000	25.349156
2952.000000	25.403550
2951.000000	25.685975
2950.000000	26.031070
2949.000000	26.314279
2948.000000	26.492680
2947.000000	26.593613
2946.000000	26.680277
2945.000000	26.810573
2944.000000	27.009270
2943.000000	27.266291
2942.000000	27.555068
2941.000000	27.850516
2940.000000	28.136216
2939.000000	28.405788
2938.000000	28.663035
2937.000000	28.916250
2936.000000	29.170269
2935.000000	29.424192
2934.000000	29.675443
2933.000000	29.921471
2932.000000	30.158380
2931.000000	30.382925
2930.000000	30.596003
2929.000000	30.800431
2928.000000	30.995369
2927.000000	31.177078
2926.000000	31.344763
2925.000000	31.500965
2924.000000	31.646878
2923.000000	31.781349
2922.000000	31.904220
2921.000000	32.016114
2920.000000	32.114890
2919.000000	32.196736
2918.000000	32.260411
2917.000000	32.306878
2916.000000	32.336109
2915.000000	32.348621
2914.000000	32.349896
2913.000000	32.348440
2912.000000	32.349285
2911.000000	32.352619
2910.000000	32.358006
2909.000000	32.365952
2908.000000	32.375304
2907.000000	32.383638
2906.000000	32.390779
2905.000000	32.398924
2904.000000	32.409187
2903.000000	32.421137
2902.000000	32.435671
2901.000000	32.454912
2900.000000	32.478953
2899.000000	32.505224
2898.000000	32.530916
2897.000000	32.553177
2896.000000	32.567870
2895.000000	32.571610
2894.000000	32.565274
2893.000000	32.553018
2892.000000	32.538305
2891.000000	32.523598
2890.000000	32.512589
2889.000000	32.509121
2888.000000	32.513860
2887.000000	32.525284
2886.000000	32.543600
2885.000000	32.570621
2884.000000	32.606321
2883.000000	32.648658
2882.000000	32.696528
2881.000000	32.749571
2880.000000	32.805294
2879.000000	32.858942
2878.000000	32.906057
2877.000000	32.942301
2876.000000	32.961998
2875.000000	32.961253
2874.000000	32.942796
2873.000000	32.914558
2872.000000	32.882700
2871.000000	32.848772
2870.000000	32.814177
2869.000000	32.785370
2868.000000	32.774358
2867.000000	32.795786
2866.000000	32.862473
2865.000000	32.978831
2864.000000	33.137386
2863.000000	33.323202
2862.000000	33.521965
2861.000000	33.723165
2860.000000	33.918911
2859.000000	34.103892
2858.000000	34.276440
2857.000000	34.436617
2856.000000	34.582872
2855.000000	34.713400
2854.000000	34.828917
2853.000000	34.931086
2852.000000	35.018999
2851.000000	35.090263
2850.000000	35.145101
2849.000000	35.186837
2848.000000	35.219328
2847.000000	35.246566
2846.000000	35.273914
2845.000000	35.305973
2844.000000	35.343407
2843.000000	35.383958
2842.000000	35.426067
2841.000000	35.469642
2840.000000	35.514490
2839.000000	35.560802
2838.000000	35.610286
2837.000000	35.664181
2836.000000	35.720823
2835.000000	35.777518
2834.000000	35.833733
2833.000000	35.890161
2832.000000	35.945912
2831.000000	35.999505
2830.000000	36.051660
2829.000000	36.104362
2828.000000	36.157905
2827.000000	36.211449
2826.000000	36.265480
2825.000000	36.320924
2824.000000	36.376663
2823.000000	36.430628
2822.000000	36.482738
2821.000000	36.534227
2820.000000	36.584933
2819.000000	36.633807
2818.000000	36.681219
2817.000000	36.728117
2816.000000	36.773646
2815.000000	36.816242
2814.000000	36.856365
2813.000000	36.895711
2812.000000	36.934595
2811.000000	36.972676
2810.000000	37.011239
2809.000000	37.051812
2808.000000	37.093173
2807.000000	37.132573
2806.000000	37.169484
2805.000000	37.205666
2804.000000	37.242075
2803.000000	37.278270
2802.000000	37.314298
2801.000000	37.350614
2800.000000	37.386677
2799.000000	37.422030
2798.000000	37.458308
2797.000000	37.497766
2796.000000	37.540323
2795.000000	37.584227
2794.000000	37.628833
2793.000000	37.674356
2792.000000	37.719841
2791.000000	37.764025
2790.000000	37.807769
2789.000000	37.853152
2788.000000	37.900579
2787.000000	37.948965
2786.000000	37.997974
2785.000000	38.047737
2784.000000	38.097075
2783.000000	38.144421
2782.000000	38.190149
2781.000000	38.235826
2780.000000	38.281719
2779.000000	38.326991
2778.000000	38.371436
2777.000000	38.414874
2776.000000	38.455845
2775.000000	38.493218
2774.000000	38.528350
2773.000000	38.563517
2772.000000	38.599013
2771.000000	38.633969
2770.000000	38.668866
2769.000000	38.704698
2768.000000	38.740533
2767.000000	38.774380
2766.000000	38.805878
2765.000000	38.835796
2764.000000	38.863631
2763.000000	38.888142
2762.000000	38.909487
2761.000000	38.928509
2760.000000	38.944636
2759.000000	38.956908
2758.000000	38.966665
2757.000000	38.976867
2756.000000	38.989188
2755.000000	39.003814
2754.000000	39.021246
2753.000000	39.041965
2752.000000	39.065023
2751.000000	39.089223
2750.000000	39.115310
2749.000000	39.145012
2748.000000	39.178468
2747.000000	39.214634
2746.000000	39.253288
2745.000000	39.294231
2744.000000	39.335290
2743.000000	39.373324
2742.000000	39.406716
2741.000000	39.435112
2740.000000	39.457644
2739.000000	39.473533
2738.000000	39.483822
2737.000000	39.490620
2736.000000	39.495635
2735.000000	39.501604
2734.000000	39.513954
2733.000000	39.538111
2732.000000	39.575460
2731.000000	39.623502
2730.000000	39.678766
2729.000000	39.737656
2728.000000	39.795737
2727.000000	39.849442
2726.000000	39.898549
2725.000000	39.944879
2724.000000	39.989159
2723.000000	40.031002
2722.000000	40.070834
2721.000000	40.109361
2720.000000	40.145743
2719.000000	40.178497
2718.000000	40.207956
2717.000000	40.236189
2716.000000	40.265078
2715.000000	40.296175
2714.000000	40.331223
2713.000000	40.370528
2712.000000	40.411443
2711.000000	40.450425
2710.000000	40.486029
2709.000000	40.518344
2708.000000	40.546842
2707.000000	40.571001
2706.000000	40.591981
2705.000000	40.611505
2704.000000	40.629738
2703.000000	40.646114
2702.000000	40.661365
2701.000000	40.676582
2700.000000	40.691413
2699.000000	40.705276
2698.000000	40.719335
2697.000000	40.735184
2696.000000	40.752554
2695.000000	40.770591
2694.000000	40.790577
2693.000000	40.815165
2692.000000	40.845499
2691.000000	40.881090
2690.000000	40.921315
2689.000000	40.964837
2688.000000	41.008558
2687.000000	41.049456
2686.000000	41.087030
2685.000000	41.122180
2684.000000	41.154728
2683.000000	41.184114
2682.000000	41.211299
2681.000000	41.237441
2680.000000	41.261537
2679.000000	41.281660
2678.000000	41.297799
2677.000000	41.311666
2676.000000	41.324622
2675.000000	41.338045
2674.000000	41.354841
2673.000000	41.378133
2672.000000	41.408747
2671.000000	41.445859
2670.000000	41.489101
2669.000000	41.537775
2668.000000	41.589053
2667.000000	41.639171
2666.000000	41.686117
2665.000000	41.729509
2664.000000	41.768920
2663.000000	41.804563
2662.000000	41.838639
2661.000000	41.873557
2660.000000	41.909222
2659.000000	41.943938
2658.000000	41.977121
2657.000000	42.009354
2656.000000	42.040723
2655.000000	42.071221
2654.000000	42.102040
2653.000000	42.134165
2652.000000	42.166292
2651.000000	42.195910
2650.000000	42.221773
2649.000000	42.243753
2648.000000	42.261284
2647.000000	42.274195
2646.000000	42.284475
2645.000000	42.295208
2644.000000	42.308417
2643.000000	42.325442
2642.000000	42.348178
2641.000000	42.377755
2640.000000	42.412736
2639.000000	42.450431
2638.000000	42.489290
2637.000000	42.528256
2636.000000	42.564927
2635.000000	42.596660
2634.000000	42.622810
2633.000000	42.644031
2632.000000	42.660236
2631.000000	42.671313
2630.000000	42.679000
2629.000000	42.686377
2628.000000	42.696120
2627.000000	42.710657
2626.000000	42.732689
2625.000000	42.763330
2624.000000	42.800414
2623.000000	42.840581
2622.000000	42.882236
2621.000000	42.924738
2620.000000	42.966146
2619.000000	43.003933
2618.000000	43.037163
2617.000000	43.066127
2616.000000	43.090809
2615.000000	43.111573
2614.000000	43.130356
2613.000000	43.148985
2612.000000	43.166898
2611.000000	43.182585
2610.000000	43.196229
2609.000000	43.209168
2608.000000	43.221695
2607.000000	43.233286
2606.000000	43.244203
2605.000000	43.254653
2604.000000	43.263185
2603.000000	43.268016
2602.000000	43.269420
2601.000000	43.269299
2600.000000	43.269329
2599.000000	43.271268
2598.000000	43.277918
2597.000000	43.291397
2596.000000	43.310837
2595.000000	43.333576
2594.000000	43.358004
2593.000000	43.383599
2592.000000	43.409591
2591.000000	43.435536
2590.000000	43.462439
2589.000000	43.491236
2588.000000	43.520679
2587.000000	43.548628
2586.000000	43.574610
2585.000000	43.599445
2584.000000	43.623269
2583.000000	43.645869
2582.000000	43.668126
2581.000000	43.691250
2580.000000	43.715247
2579.000000	43.739749
2578.000000	43.765475
2577.000000	43.793197
2576.000000	43.822200
2575.000000	43.851506
2574.000000	43.881708
2573.000000	43.913783
2572.000000	43.947160
2571.000000	43.980583
2570.000000	44.013843
2569.000000	44.046858
2568.000000	44.078179
2567.000000	44.106427
2566.000000	44.132405
2565.000000	44.157925
2564.000000	44.183270
2563.000000	44.207564
2562.000000	44.230637
2561.000000	44.252803
2560.000000	44.273783
2559.000000	44.293667
2558.000000	44.314181
2557.000000	44.337233
2556.000000	44.362901
2555.000000	44.390252
2554.000000	44.419086
2553.000000	44.449243
2552.000000	44.479461
2551.000000	44.508819
2550.000000	44.538355
2549.000000	44.569560
2548.000000	44.602119
2547.000000	44.634658
2546.000000	44.666579
2545.000000	44.697546
2544.000000	44.726443
2543.000000	44.752736
2542.000000	44.777752
2541.000000	44.802701
2540.000000	44.826513
2539.000000	44.847151
2538.000000	44.864002
2537.000000	44.877349
2536.000000	44.886773
2535.000000	44.892421
2534.000000	44.896674
2533.000000	44.902607
2532.000000	44.911526
2531.000000	44.923620
2530.000000	44.939810
2529.000000	44.960951
2528.000000	44.986220
2527.000000	45.014217
2526.000000	45.044878
2525.000000	45.078185
2524.000000	45.112158
2523.000000	45.144077
2522.000000	45.172939
2521.000000	45.198916
2520.000000	45.221465
2519.000000	45.239896
2518.000000	45.254913
2517.000000	45.267648
2516.000000	45.277547
2515.000000	45.283212
2514.000000	45.284458
2513.000000	45.281928
2512.000000	45.275777
2511.000000	45.266349
2510.000000	45.255618
2509.000000	45.246099
2508.000000	45.238873
2507.000000	45.234169
2506.000000	45.232834
2505.000000	45.235538
2504.000000	45.241506
2503.000000	45.249876
2502.000000	45.261288
2501.000000	45.276712
2500.000000	45.295539
2499.000000	45.316493
2498.000000	45.339475
2497.000000	45.364505
2496.000000	45.390129
2495.000000	45.414692
2494.000000	45.438298
2493.000000	45.461872
2492.000000	45.485182
2491.000000	45.507594
2490.000000	45.529694
2489.000000	45.552356
2488.000000	45.575106
2487.000000	45.597192
2486.000000	45.619345
2485.000000	45.642812
2484.000000	45.667607
2483.000000	45.693464
2482.000000	45.721320
2481.000000	45.752098
2480.000000	45.784979
2479.000000	45.818576
2478.000000	45.852713
2477.000000	45.887126
2476.000000	45.919596
2475.000000	45.947537
2474.000000	45.970841
2473.000000	45.991600
2472.000000	46.012098
2471.000000	46.034590
2470.000000	46.061635
2469.000000	46.094235
2468.000000	46.130162
2467.000000	46.165863
2466.000000	46.199306
2465.000000	46.229556
2464.000000	46.255028
2463.000000	46.274195
2462.000000	46.287276
2461.000000	46.295315
2460.000000	46.298264
2459.000000	46.296080
2458.000000	46.290693
2457.000000	46.285252
2456.000000	46.281956
2455.000000	46.282077
2454.000000	46.287138
2453.000000	46.298152
2452.000000	46.314469
2451.000000	46.335027
2450.000000	46.360223
2449.000000	46.390678
2448.000000	46.425305
2447.000000	46.462143
2446.000000	46.500035
2445.000000	46.537954
2444.000000	46.573592
2443.000000	46.604817
2442.000000	46.631870
2441.000000	46.656488
2440.000000	46.679573
2439.000000	46.701285
2438.000000	46.722402
2437.000000	46.743706
2436.000000	46.764804
2435.000000	46.785103
2434.000000	46.805339
2433.000000	46.826493
2432.000000	46.847858
2431.000000	46.867675
2430.000000	46.884696
2429.000000	46.897778
2428.000000	46.905087
2427.000000	46.905531
2426.000000	46.900604
2425.000000	46.893139
2424.000000	46.885158
2423.000000	46.878073
2422.000000	46.873711
2421.000000	46.873276
2420.000000	46.875974
2419.000000	46.880440
2418.000000	46.886853
2417.000000	46.896363
2416.000000	46.909249
2415.000000	46.925380
2414.000000	46.945336
2413.000000	46.969131
2412.000000	46.994753
2411.000000	47.019550
2410.000000	47.042612
2409.000000	47.064374
2408.000000	47.084896
2407.000000	47.104199
2406.000000	47.123247
2405.000000	47.142679
2404.000000	47.161176
2403.000000	47.176813
2402.000000	47.189240
2401.000000	47.199138
2400.000000	47.206329
2399.000000	47.209967
2398.000000	47.209935
2397.000000	47.205933
2396.000000	47.196001
2395.000000	47.177540
2394.000000	47.149176
2393.000000	47.110680
2392.000000	47.061441
2391.000000	47.001007
2390.000000	46.930188
2389.000000	46.849462
2388.000000	46.757335
2387.000000	46.650936
2386.000000	46.528464
2385.000000	46.389810
2384.000000	46.235116
2383.000000	46.065500
2382.000000	45.883400
2381.000000	45.690891
2380.000000	45.487949
2379.000000	45.273588
2378.000000	45.050527
2377.000000	44.825731
2376.000000	44.608036
2375.000000	44.408584
2374.000000	44.241521
2373.000000	44.121282
2372.000000	44.054461
2371.000000	44.035973
2370.000000	44.055461
2369.000000	44.103205
2368.000000	44.165879
2367.000000	44.226613
2366.000000	44.277568
2365.000000	44.321036
2364.000000	44.351490
2363.000000	44.361269
2362.000000	44.354767
2361.000000	44.336974
2360.000000	44.317570
2359.000000	44.300184
2358.000000	44.283378
2357.000000	44.276376
2356.000000	44.280593
2355.000000	44.311175
2354.000000	44.396333
2353.000000	44.546940
2352.000000	44.717270
2351.000000	44.820506
2350.000000	44.835864
2349.000000	44.798695
2348.000000	44.759198
2347.000000	44.746538
2346.000000	44.749990
2345.000000	44.759852
2344.000000	44.766816
2343.000000	44.796214
2342.000000	44.854302
2341.000000	44.909758
2340.000000	44.946483
2339.000000	44.962127
2338.000000	44.973898
2337.000000	44.988348
2336.000000	45.003565
2335.000000	45.015447
2334.000000	45.029359
2333.000000	45.053737
2332.000000	45.091993
2331.000000	45.130185
2330.000000	45.173476
2329.000000	45.218804
2328.000000	45.258706
2327.000000	45.288713
2326.000000	45.300969
2325.000000	45.315353
2324.000000	45.332651
2323.000000	45.365233
2322.000000	45.413426
2321.000000	45.476772
2320.000000	45.552713
2319.000000	45.631191
2318.000000	45.711536
2317.000000	45.786448
2316.000000	45.855193
2315.000000	45.913184
2314.000000	45.962384
2313.000000	46.002433
2312.000000	46.031561
2311.000000	46.048952
2310.000000	46.054292
2309.000000	46.050972
2308.000000	46.036623
2307.000000	46.013671
2306.000000	45.983833
2305.000000	45.955597
2304.000000	45.934661
2303.000000	45.930305
2302.000000	45.951267
2301.000000	46.003911
2300.000000	46.087939
2299.000000	46.198828
2298.000000	46.329020
2297.000000	46.468373
2296.000000	46.603135
2295.000000	46.723892
2294.000000	46.825594
2293.000000	46.909909
2292.000000	46.976746
2291.000000	47.028710
2290.000000	47.067347
2289.000000	47.094644
2288.000000	47.107575
2287.000000	47.102445
2286.000000	47.076140
2285.000000	47.026799
2284.000000	46.953292
2283.000000	46.858266
2282.000000	46.750773
2281.000000	46.643813
2280.000000	46.550693
2279.000000	46.482066
2278.000000	46.444400
2277.000000	46.436591
2276.000000	46.452628
2275.000000	46.487835
2274.000000	46.543581
2273.000000	46.623066
2272.000000	46.725244
2271.000000	46.844935
2270.000000	46.975986
2269.000000	47.112141
2268.000000	47.246723
2267.000000	47.375009
2266.000000	47.496056
2265.000000	47.609749
2264.000000	47.714251
2263.000000	47.808081
2262.000000	47.892022
2261.000000	47.968319
2260.000000	48.037135
2259.000000	48.098474
2258.000000	48.154073
2257.000000	48.206303
2256.000000	48.256991
2255.000000	48.308098
2254.000000	48.363706
2253.000000	48.426992
2252.000000	48.498412
2251.000000	48.576636
2250.000000	48.660680
2249.000000	48.748867
2248.000000	48.837842
2247.000000	48.925122
2246.000000	49.010660
2245.000000	49.095055
2244.000000	49.176966
2243.000000	49.255073
2242.000000	49.329758
2241.000000	49.401508
2240.000000	49.468806
2239.000000	49.529929
2238.000000	49.585051
2237.000000	49.634882
2236.000000	49.679032
2235.000000	49.717559
2234.000000	49.752703
2233.000000	49.786936
2232.000000	49.820517
2231.000000	49.852613
2230.000000	49.883301
2229.000000	49.912657
2228.000000	49.939406
2227.000000	49.962196
2226.000000	49.981268
2225.000000	49.997250
2224.000000	50.009783
2223.000000	50.018816
2222.000000	50.025774
2221.000000	50.031910
2220.000000	50.036824
2219.000000	50.040214
2218.000000	50.043591
2217.000000	50.048686
2216.000000	50.055445
2215.000000	50.062950
2214.000000	50.070535
2213.000000	50.076438
2212.000000	50.077183
2211.000000	50.070534
2210.000000	50.058238
2209.000000	50.044698
2208.000000	50.034351
2207.000000	50.031043
2206.000000	50.037254
2205.000000	50.051180
2204.000000	50.065737
2203.000000	50.072578
2202.000000	50.066905
2201.000000	50.048651
2200.000000	50.022172
2199.000000	49.997124
2198.000000	49.986782
2197.000000	50.001587
2196.000000	50.043730
2195.000000	50.108418
2194.000000	50.188522
2193.000000	50.276565
2192.000000	50.365343
2191.000000	50.449950
2190.000000	50.528738
2189.000000	50.600705
2188.000000	50.663154
2187.000000	50.713536
2186.000000	50.751779
2185.000000	50.779464
2184.000000	50.798115
2183.000000	50.809744
2182.000000	50.817187
2181.000000	50.822076
2180.000000	50.823929
2179.000000	50.822709
2178.000000	50.820826
2177.000000	50.820944
2176.000000	50.823745
2175.000000	50.829488
2174.000000	50.839901
2173.000000	50.856459
2172.000000	50.878178
2171.000000	50.903164
2170.000000	50.930907
2169.000000	50.961380
2168.000000	50.993435
2167.000000	51.025851
2166.000000	51.058445
2165.000000	51.090459
2164.000000	51.119518
2163.000000	51.144145
2162.000000	51.165978
2161.000000	51.187895
2160.000000	51.211454
2159.000000	51.237733
2158.000000	51.268771
2157.000000	51.305940
2156.000000	51.348188
2155.000000	51.393691
2154.000000	51.441930
2153.000000	51.492489
2152.000000	51.543373
2151.000000	51.592129
2150.000000	51.637203
2149.000000	51.676683
2148.000000	51.707210
2147.000000	51.726032
2146.000000	51.732985
2145.000000	51.729194
2144.000000	51.715424
2143.000000	51.693378
2142.000000	51.666893
2141.000000	51.639783
2140.000000	51.613485
2139.000000	51.587784
2138.000000	51.562599
2137.000000	51.537918
2136.000000	51.514322
2135.000000	51.495673
2134.000000	51.489385
2133.000000	51.501946
2132.000000	51.534785
2131.000000	51.585217
2130.000000	51.649173
2129.000000	51.721127
2128.000000	51.793668
2127.000000	51.860143
2126.000000	51.917036
2125.000000	51.962463
2124.000000	51.994375
2123.000000	52.011931
2122.000000	52.017040
2121.000000	52.012748
2120.000000	52.001437
2119.000000	51.986162
2118.000000	51.971964
2117.000000	51.963489
2116.000000	51.962116
2115.000000	51.966753
2114.000000	51.975788
2113.000000	51.986822
2112.000000	51.996422
2111.000000	52.002277
2110.000000	52.004523
2109.000000	52.003475
2108.000000	51.997665
2107.000000	51.985874
2106.000000	51.969793
2105.000000	51.953260
2104.000000	51.940453
2103.000000	51.936163
2102.000000	51.945748
2101.000000	51.972156
2100.000000	52.013658
2099.000000	52.066248
2098.000000	52.126382
2097.000000	52.190459
2096.000000	52.253728
2095.000000	52.311523
2094.000000	52.360884
2093.000000	52.398931
2092.000000	52.421213
2091.000000	52.424102
2090.000000	52.408145
2089.000000	52.378069
2088.000000	52.341194
2087.000000	52.307151
2086.000000	52.286765
2085.000000	52.288292
2084.000000	52.314443
2083.000000	52.363334
2082.000000	52.430852
2081.000000	52.511109
2080.000000	52.596959
2079.000000	52.683075
2078.000000	52.767403
2077.000000	52.848972
2076.000000	52.926274
2075.000000	52.998097
2074.000000	53.064487
2073.000000	53.124530
2072.000000	53.175582
2071.000000	53.215977
2070.000000	53.246327
2069.000000	53.268068
2068.000000	53.282385
2067.000000	53.291750
2066.000000	53.300317
2065.000000	53.311498
2064.000000	53.326559
2063.000000	53.346238
2062.000000	53.371680
2061.000000	53.402575
2060.000000	53.436677
2059.000000	53.472650
2058.000000	53.511340
2057.000000	53.552775
2056.000000	53.594401
2055.000000	53.633780
2054.000000	53.671090
2053.000000	53.707011
2052.000000	53.740652
2051.000000	53.771311
2050.000000	53.799848
2049.000000	53.827077
2048.000000	53.852598
2047.000000	53.876153
2046.000000	53.898795
2045.000000	53.922046
2044.000000	53.946750
2043.000000	53.973738
2042.000000	54.004305
2041.000000	54.038804
2040.000000	54.075860
2039.000000	54.113901
2038.000000	54.152091
2037.000000	54.189013
2036.000000	54.222439
2035.000000	54.251547
2034.000000	54.277785
2033.000000	54.302682
2032.000000	54.326406
2031.000000	54.349452
2030.000000	54.373994
2029.000000	54.401276
2028.000000	54.430250
2027.000000	54.459104
2026.000000	54.487505
2025.000000	54.515616
2024.000000	54.542640
2023.000000	54.567882
2022.000000	54.590601
2021.000000	54.609872
2020.000000	54.625036
2019.000000	54.636986
2018.000000	54.648187
2017.000000	54.660795
2016.000000	54.675912
2015.000000	54.694700
2014.000000	54.718211
2013.000000	54.745175
2012.000000	54.772228
2011.000000	54.797168
2010.000000	54.820500
2009.000000	54.842950
2008.000000	54.864279
2007.000000	54.885120
2006.000000	54.908537
2005.000000	54.937312
2004.000000	54.971655
2003.000000	55.011519
2002.000000	55.056509
2001.000000	55.105073
2000.000000	55.152864
1999.000000	55.196806
1998.000000	55.237539
1997.000000	55.274239
1996.000000	55.304627
1995.000000	55.328829
1994.000000	55.349186
1993.000000	55.365608
1992.000000	55.375477
1991.000000	55.378734
1990.000000	55.379144
1989.000000	55.378730
1988.000000	55.374861
1987.000000	55.365779
1986.000000	55.355208
1985.000000	55.348847
1984.000000	55.349041
1983.000000	55.356365
1982.000000	55.372126
1981.000000	55.396949
1980.000000	55.426515
1979.000000	55.454799
1978.000000	55.478888
1977.000000	55.497689
1976.000000	55.511860
1975.000000	55.525115
1974.000000	55.543509
1973.000000	55.570647
1972.000000	55.605698
1971.000000	55.646875
1970.000000	55.694002
1969.000000	55.746197
1968.000000	55.800332
1967.000000	55.853642
1966.000000	55.905527
1965.000000	55.955213
1964.000000	55.999385
1963.000000	56.033961
1962.000000	56.058012
1961.000000	56.073713
1960.000000	56.082160
1959.000000	56.082071
1958.000000	56.071472
1957.000000	56.049233
1956.000000	56.016011
1955.000000	55.974159
1954.000000	55.928294
1953.000000	55.883000
1952.000000	55.842200
1951.000000	55.808932
1950.000000	55.786509
1949.000000	55.779375
1948.000000	55.788032
1947.000000	55.809923
1946.000000	55.844712
1945.000000	55.894826
1944.000000	55.961043
1943.000000	56.039757
1942.000000	56.126411
1941.000000	56.218256
1940.000000	56.313732
1939.000000	56.408922
1938.000000	56.497306
1937.000000	56.575918
1936.000000	56.648094
1935.000000	56.717696
1934.000000	56.783527
1933.000000	56.840487
1932.000000	56.886220
1931.000000	56.920484
1930.000000	56.943269
1929.000000	56.956977
1928.000000	56.961187
1927.000000	56.956882
1926.000000	56.946287
1925.000000	56.933546
1924.000000	56.921327
1923.000000	56.907242
1922.000000	56.894463
1921.000000	56.892301
1920.000000	56.902598
1919.000000	56.912701
1918.000000	56.908602
1917.000000	56.893663
1916.000000	56.883585
1915.000000	56.884762
1914.000000	56.887117
1913.000000	56.879108
1912.000000	56.863909
1911.000000	56.853107
1910.000000	56.853823
1909.000000	56.867525
1908.000000	56.892744
1907.000000	56.931188
1906.000000	56.979695
1905.000000	57.031194
1904.000000	57.080562
1903.000000	57.122675
1902.000000	57.156091
1901.000000	57.180061
1900.000000	57.192061
1899.000000	57.195228
1898.000000	57.196741
1897.000000	57.204415
1896.000000	57.223737
1895.000000	57.253981
1894.000000	57.293027
1893.000000	57.340524
1892.000000	57.395730
1891.000000	57.454621
1890.000000	57.512190
1889.000000	57.567872
1888.000000	57.625839
1887.000000	57.689605
1886.000000	57.755890
1885.000000	57.816520
1884.000000	57.868654
1883.000000	57.916915
1882.000000	57.966542
1881.000000	58.016962
1880.000000	58.063723
1879.000000	58.107234
1878.000000	58.148913
1877.000000	58.185949
1876.000000	58.216999
1875.000000	58.241464
1874.000000	58.257435
1873.000000	58.267426
1872.000000	58.278313
1871.000000	58.292907
1870.000000	58.306789
1869.000000	58.317739
1868.000000	58.331957
1867.000000	58.355470
1866.000000	58.382962
1865.000000	58.397533
1864.000000	58.385666
1863.000000	58.350526
1862.000000	58.306735
1861.000000	58.268225
1860.000000	58.244447
1859.000000	58.243807
1858.000000	58.271715
1857.000000	58.324532
1856.000000	58.391474
1855.000000	58.463645
1854.000000	58.535232
1853.000000	58.602974
1852.000000	58.662275
1851.000000	58.718053
1850.000000	58.774826
1849.000000	58.826492
1848.000000	58.875850
1847.000000	58.938552
1846.000000	59.019534
1845.000000	59.094781
1844.000000	59.136524
1843.000000	59.148484
1842.000000	59.162076
1841.000000	59.192640
1840.000000	59.218698
1839.000000	59.221460
1838.000000	59.209586
1837.000000	59.206906
1836.000000	59.222614
1835.000000	59.245881
1834.000000	59.270998
1833.000000	59.304236
1832.000000	59.348455
1831.000000	59.399527
1830.000000	59.447949
1829.000000	59.489173
1828.000000	59.534385
1827.000000	59.590702
1826.000000	59.641403
1825.000000	59.667576
1824.000000	59.679981
1823.000000	59.707212
1822.000000	59.758533
1821.000000	59.817131
1820.000000	59.869305
1819.000000	59.921364
1818.000000	59.980265
1817.000000	60.043860
1816.000000	60.105374
1815.000000	60.159294
1814.000000	60.207208
1813.000000	60.248103
1812.000000	60.284819
1811.000000	60.323717
1810.000000	60.366158
1809.000000	60.413456
1808.000000	60.463050
1807.000000	60.508880
1806.000000	60.546867
1805.000000	60.574315
1804.000000	60.593129
1803.000000	60.608560
1802.000000	60.630461
1801.000000	60.659677
1800.000000	60.692705
1799.000000	60.722585
1798.000000	60.738317
1797.000000	60.738121
1796.000000	60.733315
1795.000000	60.737645
1794.000000	60.749083
1793.000000	60.747571
1792.000000	60.732473
1791.000000	60.728367
1790.000000	60.752930
1789.000000	60.799601
1788.000000	60.847375
1787.000000	60.885224
1786.000000	60.917264
1785.000000	60.948546
1784.000000	60.980365
1783.000000	61.013903
1782.000000	61.054091
1781.000000	61.085048
1780.000000	61.098330
1779.000000	61.108020
1778.000000	61.123351
1777.000000	61.140842
1776.000000	61.158126
1775.000000	61.195250
1774.000000	61.260640
1773.000000	61.325097
1772.000000	61.366413
1771.000000	61.407131
1770.000000	61.478201
1769.000000	61.569885
1768.000000	61.643515
1767.000000	61.680606
1766.000000	61.706850
1765.000000	61.750204
1764.000000	61.805253
1763.000000	61.846768
1762.000000	61.867358
1761.000000	61.874748
1760.000000	61.887412
1759.000000	61.914169
1758.000000	61.944476
1757.000000	61.957765
1756.000000	61.948693
1755.000000	61.951720
1754.000000	61.991954
1753.000000	62.043977
1752.000000	62.065944
1751.000000	62.061311
1750.000000	62.069043
1749.000000	62.113268
1748.000000	62.170771
1747.000000	62.207794
1746.000000	62.218340
1745.000000	62.199497
1744.000000	62.156375
1743.000000	62.103548
1742.000000	62.052673
1741.000000	61.997041
1740.000000	61.917163
1739.000000	61.814694
1738.000000	61.738476
1737.000000	61.735066
1736.000000	61.774954
1735.000000	61.776096
1734.000000	61.705814
1733.000000	61.610914
1732.000000	61.565033
1731.000000	61.587005
1730.000000	61.625005
1729.000000	61.632734
1728.000000	61.609139
1727.000000	61.578816
1726.000000	61.548410
1725.000000	61.499246
1724.000000	61.435622
1723.000000	61.375253
1722.000000	61.331124
1721.000000	61.311410
1720.000000	61.303750
1719.000000	61.275173
1718.000000	61.201189
1717.000000	61.106146
1716.000000	61.039951
1715.000000	61.017975
1714.000000	61.013334
1713.000000	60.996342
1712.000000	60.961370
1711.000000	60.918306
1710.000000	60.871034
1709.000000	60.812459
1708.000000	60.745291
1707.000000	60.684526
1706.000000	60.618547
1705.000000	60.532350
1704.000000	60.454624
1703.000000	60.434274
1702.000000	60.439171
1701.000000	60.355857
1700.000000	60.151202
1699.000000	59.947426
1698.000000	59.859507
1697.000000	59.831792
1696.000000	59.728383
1695.000000	59.517679
1694.000000	59.298052
1693.000000	59.149821
1692.000000	59.035299
1691.000000	58.884454
1690.000000	58.691608
1689.000000	58.500788
1688.000000	58.348573
1687.000000	58.241285
1686.000000	58.114620
1685.000000	57.883572
1684.000000	57.566470
1683.000000	57.280684
1682.000000	57.087346
1681.000000	56.929237
1680.000000	56.730073
1679.000000	56.500040
1678.000000	56.291622
1677.000000	56.097963
1676.000000	55.862514
1675.000000	55.572523
1674.000000	55.288816
1673.000000	55.052204
1672.000000	54.847559
1671.000000	54.626061
1670.000000	54.364556
1669.000000	54.078027
1668.000000	53.791714
1667.000000	53.530118
1666.000000	53.294642
1665.000000	53.054573
1664.000000	52.778338
1663.000000	52.467072
1662.000000	52.161457
1661.000000	51.880402
1660.000000	51.612288
1659.000000	51.349167
1658.000000	51.093461
1657.000000	50.860843
1656.000000	50.670374
1655.000000	50.501380
1654.000000	50.273653
1653.000000	49.955478
1652.000000	49.595553
1651.000000	49.267425
1650.000000	49.021420
1649.000000	48.789657
1648.000000	48.477185
1647.000000	48.084735
1646.000000	47.684069
1645.000000	47.309190
1644.000000	46.947049
1643.000000	46.592680
1642.000000	46.250079
1641.000000	45.910430
1640.000000	45.582019
1639.000000	45.304932
1638.000000	45.099512
1637.000000	44.946171
1636.000000	44.822613
1635.000000	44.743558
1634.000000	44.705490
1633.000000	44.694071
1632.000000	44.701742
1631.000000	44.725993
1630.000000	44.780831
1629.000000	44.874164
1628.000000	44.998945
1627.000000	45.146076
1626.000000	45.319114
1625.000000	45.521934
1624.000000	45.756947
1623.000000	46.022037
1622.000000	46.299814
1621.000000	46.569885
1620.000000	46.841808
1619.000000	47.153764
1618.000000	47.548017
1617.000000	48.035696
1616.000000	48.547955
1615.000000	49.007154
1614.000000	49.418837
1613.000000	49.814706
1612.000000	50.193011
1611.000000	50.539269
1610.000000	50.850085
1609.000000	51.116226
1608.000000	51.309203
1607.000000	51.397214
1606.000000	51.365958
1605.000000	51.187683
1604.000000	50.816196
1603.000000	50.203979
1602.000000	49.299499
1601.000000	48.030619
1600.000000	46.269822
1599.000000	43.879644
1598.000000	40.794054
1597.000000	37.120989
1596.000000	33.248487
1595.000000	29.841616
1594.000000	27.551200
1593.000000	26.593047
1592.000000	26.707589
1591.000000	27.488640
1590.000000	28.655116
1589.000000	30.031219
1588.000000	31.445358
1587.000000	32.742642
1586.000000	33.871295
1585.000000	34.932749
1584.000000	36.071496
1583.000000	37.325430
1582.000000	38.568491
1581.000000	39.648123
1580.000000	40.562535
1579.000000	41.465642
1578.000000	42.517949
1577.000000	43.748970
1576.000000	44.980181
1575.000000	45.945279
1574.000000	46.589194
1573.000000	47.042015
1572.000000	47.416607
1571.000000	47.778347
1570.000000	48.166427
1569.000000	48.571759
1568.000000	48.954754
1567.000000	49.323185
1566.000000	49.703417
1565.000000	50.089324
1564.000000	50.446750
1563.000000	50.772702
1562.000000	51.090640
1561.000000	51.417271
1560.000000	51.780645
1559.000000	52.262319
1558.000000	52.789939
1557.000000	53.197950
1556.000000	53.514252
1555.000000	53.809524
1554.000000	54.098100
1553.000000	54.364266
1552.000000	54.616884
1551.000000	54.876898
1550.000000	55.140200
1549.000000	55.396003
1548.000000	55.626480
1547.000000	55.825805
1546.000000	55.996515
1545.000000	56.152396
1544.000000	56.315468
1543.000000	56.500096
1542.000000	56.698331
1541.000000	56.909217
1540.000000	57.127916
1539.000000	57.297575
1538.000000	57.378585
1537.000000	57.438977
1536.000000	57.537624
1535.000000	57.663897
1534.000000	57.805676
1533.000000	57.963792
1532.000000	58.135366
1531.000000	58.299502
1530.000000	58.438631
1529.000000	58.559178
1528.000000	58.675937
1527.000000	58.797265
1526.000000	58.924899
1525.000000	59.055920
1524.000000	59.195244
1523.000000	59.338444
1522.000000	59.466936
1521.000000	59.569813
1520.000000	59.647679
1519.000000	59.723776
1518.000000	59.807424
1517.000000	59.881249
1516.000000	59.939789
1515.000000	59.993220
1514.000000	60.050063
1513.000000	60.090619
1512.000000	60.100400
1511.000000	60.095818
1510.000000	60.117582
1509.000000	60.185845
1508.000000	60.302989
1507.000000	60.490767
1506.000000	60.725743
1505.000000	60.889791
1504.000000	60.960389
1503.000000	61.010168
1502.000000	61.070237
1501.000000	61.138176
1500.000000	61.214587
1499.000000	61.309901
1498.000000	61.423560
1497.000000	61.541036
1496.000000	61.643137
1495.000000	61.717563
1494.000000	61.787672
1493.000000	61.872521
1492.000000	61.959937
1491.000000	62.040557
1490.000000	62.142426
1489.000000	62.296284
1488.000000	62.485922
1487.000000	62.665061
1486.000000	62.817373
1485.000000	62.954708
1484.000000	63.080036
1483.000000	63.205348
1482.000000	63.333572
1481.000000	63.464243
1480.000000	63.595129
1479.000000	63.723881
1478.000000	63.846999
1477.000000	63.965285
1476.000000	64.093261
1475.000000	64.245764
1474.000000	64.432246
1473.000000	64.642218
1472.000000	64.856362
1471.000000	65.045895
1470.000000	65.196381
1469.000000	65.311029
1468.000000	65.397075
1467.000000	65.459527
1466.000000	65.489899
1465.000000	65.443999
1464.000000	65.274538
1463.000000	64.974220
1462.000000	64.559876
1461.000000	64.066289
1460.000000	63.541008
1459.000000	63.030900
1458.000000	62.551221
1457.000000	62.114415
1456.000000	61.725551
1455.000000	61.331673
1454.000000	60.832988
1453.000000	60.101122
1452.000000	59.082845
1451.000000	57.830059
1450.000000	56.353816
1449.000000	54.525678
1448.000000	52.256131
1447.000000	49.772347
1446.000000	47.581135
1445.000000	46.185147
1444.000000	45.925856
1443.000000	46.848624
1442.000000	48.609080
1441.000000	50.648124
1440.000000	52.510008
1439.000000	53.994736
1438.000000	55.079438
1437.000000	55.828655
1436.000000	56.368556
1435.000000	56.846820
1434.000000	57.365227
1433.000000	57.961942
1432.000000	58.619763
1431.000000	59.284700
1430.000000	59.900067
1429.000000	60.432003
1428.000000	60.861221
1427.000000	61.187653
1426.000000	61.447637
1425.000000	61.672933
1424.000000	61.882741
1423.000000	62.087863
1422.000000	62.295479
1421.000000	62.505423
1420.000000	62.707531
1419.000000	62.907336
1418.000000	63.120961
1417.000000	63.354374
1416.000000	63.591640
1415.000000	63.807991
1414.000000	63.998652
1413.000000	64.175078
1412.000000	64.340278
1411.000000	64.484246
1410.000000	64.603205
1409.000000	64.704500
1408.000000	64.786282
1407.000000	64.836341
1406.000000	64.860016
1405.000000	64.861673
1404.000000	64.829981
1403.000000	64.756360
1402.000000	64.655552
1401.000000	64.552776
1400.000000	64.463007
1399.000000	64.401710
1398.000000	64.382969
1397.000000	64.403260
1396.000000	64.439516
1395.000000	64.470052
1394.000000	64.474285
1393.000000	64.407082
1392.000000	64.225616
1391.000000	63.925627
1390.000000	63.544027
1389.000000	63.128682
1388.000000	62.724246
1387.000000	62.394931
1386.000000	62.224753
1385.000000	62.263247
1384.000000	62.506365
1383.000000	62.920188
1382.000000	63.452722
1381.000000	64.040357
1380.000000	64.615242
1379.000000	65.127915
1378.000000	65.562091
1377.000000	65.919635
1376.000000	66.192235
1375.000000	66.360540
1374.000000	66.402329
1373.000000	66.272043
1372.000000	65.878828
1371.000000	65.068884
1370.000000	63.629827
1369.000000	61.363702
1368.000000	58.304692
1367.000000	54.906554
1366.000000	51.916640
1365.000000	50.030978
1364.000000	49.634530
1363.000000	50.654406
1362.000000	52.559484
1361.000000	54.688931
1360.000000	56.628439
1359.000000	58.255384
1358.000000	59.591986
1357.000000	60.696678
1356.000000	61.621166
1355.000000	62.395259
1354.000000	63.038331
1353.000000	63.578179
1352.000000	64.043395
1351.000000	64.441002
1350.000000	64.770615
1349.000000	65.040414
1348.000000	65.265723
1347.000000	65.455472
1346.000000	65.619532
1345.000000	65.777320
1344.000000	65.943894
1343.000000	66.114253
1342.000000	66.277700
1341.000000	66.439546
1340.000000	66.614846
1339.000000	66.805681
1338.000000	66.997011
1337.000000	67.174000
1336.000000	67.328546
1335.000000	67.455395
1334.000000	67.556718
1333.000000	67.643950
1332.000000	67.725175
1331.000000	67.797145
1330.000000	67.856515
1329.000000	67.909574
1328.000000	67.961564
1327.000000	68.003085
1326.000000	68.016650
1325.000000	67.983712
1324.000000	67.882413
1323.000000	67.677244
1322.000000	67.323391
1321.000000	66.772223
1320.000000	65.951516
1319.000000	64.759348
1318.000000	63.123961
1317.000000	61.128711
1316.000000	59.096260
1315.000000	57.511422
1314.000000	56.766011
1313.000000	56.921630
1312.000000	57.718436
1311.000000	58.806286
1310.000000	59.966445
1309.000000	61.117739
1308.000000	62.212864
1307.000000	63.203984
1306.000000	64.077990
1305.000000	64.861120
1304.000000	65.570898
1303.000000	66.197758
1302.000000	66.735577
1301.000000	67.196153
1300.000000	67.582548
1299.000000	67.885804
1298.000000	68.108577
1297.000000	68.254857
1296.000000	68.298162
1295.000000	68.180944
1294.000000	67.842027
1293.000000	67.205055
1292.000000	66.178369
1291.000000	64.787645
1290.000000	63.342062
1289.000000	62.355754
1288.000000	62.187523
1287.000000	62.738957
1286.000000	63.547185
1285.000000	64.186823
1284.000000	64.527064
1283.000000	64.664225
1282.000000	64.741096
1281.000000	64.847309
1280.000000	65.003826
1279.000000	65.156210
1278.000000	65.181515
1277.000000	64.897022
1276.000000	64.056818
1275.000000	62.378565
1274.000000	59.746432
1273.000000	56.534528
1272.000000	53.701699
1271.000000	52.336168
1270.000000	52.930822
1269.000000	55.074623
1268.000000	57.826708
1267.000000	60.371714
1266.000000	62.359314
1265.000000	63.809304
1264.000000	64.867339
1263.000000	65.657016
1262.000000	66.262131
1261.000000	66.739649
1260.000000	67.122803
1259.000000	67.429456
1258.000000	67.682078
1257.000000	67.896596
1256.000000	68.071024
1255.000000	68.199307
1254.000000	68.288929
1253.000000	68.358810
1252.000000	68.424832
1251.000000	68.501149
1250.000000	68.606226
1249.000000	68.752517
1248.000000	68.933223
1247.000000	69.130796
1246.000000	69.334610
1245.000000	69.541352
1244.000000	69.744475
1243.000000	69.935682
1242.000000	70.113416
1241.000000	70.276387
1240.000000	70.411868
1239.000000	70.502402
1238.000000	70.544807
1237.000000	70.550444
1236.000000	70.531032
1235.000000	70.497198
1234.000000	70.463789
1233.000000	70.442191
1232.000000	70.426957
1231.000000	70.401709
1230.000000	70.357595
1229.000000	70.293679
1228.000000	70.203416
1227.000000	70.071305
1226.000000	69.877277
1225.000000	69.594240
1224.000000	69.178870
1223.000000	68.588423
1222.000000	67.810419
1221.000000	66.867498
1220.000000	65.805540
1219.000000	64.675287
1218.000000	63.518847
1217.000000	62.352815
1216.000000	61.156615
1215.000000	59.890638
1214.000000	58.522097
1213.000000	57.042190
1212.000000	55.473248
1211.000000	53.873776
1210.000000	52.335730
1209.000000	50.973715
1208.000000	49.899578
1207.000000	49.171938
1206.000000	48.753170
1205.000000	48.517847
1204.000000	48.347139
1203.000000	48.231545
1202.000000	48.278620
1201.000000	48.631917
1200.000000	49.348809
1199.000000	50.352223
1198.000000	51.483175
1197.000000	52.594251
1196.000000	53.617402
1195.000000	54.560174
1194.000000	55.467689
1193.000000	56.386038
1192.000000	57.337899
1191.000000	58.316440
1190.000000	59.296961
1189.000000	60.252047
1188.000000	61.155387
1187.000000	61.984181
1186.000000	62.722568
1185.000000	63.364039
1184.000000	63.905965
1183.000000	64.344235
1182.000000	64.682879
1181.000000	64.936141
1180.000000	65.123363
1179.000000	65.265398
1178.000000	65.381413
1177.000000	65.485475
1176.000000	65.580558
1175.000000	65.665721
1174.000000	65.749465
1173.000000	65.848408
1172.000000	65.973998
1171.000000	66.126838
1170.000000	66.302384
1169.000000	66.492315
1168.000000	66.680083
1167.000000	66.846068
1166.000000	66.980553
1165.000000	67.084826
1164.000000	67.160405
1163.000000	67.206614
1162.000000	67.230534
1161.000000	67.247716
1160.000000	67.270765
1159.000000	67.306059
1158.000000	67.361750
1157.000000	67.448847
1156.000000	67.571762
1155.000000	67.725227
1154.000000	67.900313
1153.000000	68.085928
1152.000000	68.264465
1151.000000	68.418317
1150.000000	68.544385
1149.000000	68.653276
1148.000000	68.751136
1147.000000	68.831376
1146.000000	68.883806
1145.000000	68.899131
1144.000000	68.866326
1143.000000	68.775581
1142.000000	68.630180
1141.000000	68.446082
1140.000000	68.234088
1139.000000	67.992866
1138.000000	67.713803
1137.000000	67.385072
1136.000000	66.991900
1135.000000	66.519988
1134.000000	65.966986
1133.000000	65.338446
1132.000000	64.633931
1131.000000	63.846456
1130.000000	62.970695
1129.000000	62.012849
1128.000000	60.987889
1127.000000	59.911447
1126.000000	58.794596
1125.000000	57.626000
1124.000000	56.362693
1123.000000	54.918822
1122.000000	53.148219
1121.000000	50.848347
1120.000000	47.779449
1119.000000	43.773282
1118.000000	38.912897
1117.000000	33.703466
1116.000000	29.055975
1115.000000	26.005858
1114.000000	25.235988
1113.000000	26.749770
1112.000000	29.929061
1111.000000	33.822926
1110.000000	37.535989
1109.000000	40.499609
1108.000000	42.497260
1107.000000	43.452306
1106.000000	43.217721
1105.000000	41.644954
1104.000000	38.947825
1103.000000	35.964612
1102.000000	33.890910
1101.000000	33.609104
1100.000000	35.203359
1099.000000	38.044158
1098.000000	41.284046
1097.000000	44.324995
1096.000000	46.926432
1095.000000	49.080616
1094.000000	50.868500
1093.000000	52.383111
1092.000000	53.695837
1091.000000	54.851468
1090.000000	55.880933
1089.000000	56.809128
1088.000000	57.655208
1087.000000	58.427275
1086.000000	59.139618
1085.000000	59.814988
1084.000000	60.464026
1083.000000	61.081029
1082.000000	61.658200
1081.000000	62.196225
1080.000000	62.695250
1079.000000	63.152462
1078.000000	63.577249
1077.000000	63.988098
1076.000000	64.391222
1075.000000	64.774475
1074.000000	65.122680
1073.000000	65.426244
1072.000000	65.666305
1071.000000	65.813716
1070.000000	65.847720
1069.000000	65.752812
1068.000000	65.504293
1067.000000	65.062493
1066.000000	64.393704
1065.000000	63.486075
1064.000000	62.332079
1063.000000	60.932544
1062.000000	59.293343
1061.000000	57.405444
1060.000000	55.226635
1059.000000	52.676533
1058.000000	49.685566
1057.000000	46.252236
1056.000000	42.505237
1055.000000	38.741476
1054.000000	35.407231
1053.000000	32.981109
1052.000000	31.821771
1051.000000	32.041020
1050.000000	33.442156
1049.000000	35.631532
1048.000000	38.167917
1047.000000	40.692361
1046.000000	43.003764
1045.000000	45.042713
1044.000000	46.838035
1043.000000	48.433320
1042.000000	49.851262
1041.000000	51.093799
1040.000000	52.160525
1039.000000	53.057348
1038.000000	53.807752
1037.000000	54.452621
1036.000000	55.028868
1035.000000	55.562370
1034.000000	56.070687
1033.000000	56.568305
1032.000000	57.063078
1031.000000	57.554277
1030.000000	58.042962
1029.000000	58.533922
1028.000000	59.027244
1027.000000	59.519043
1026.000000	60.015178
1025.000000	60.532636
1024.000000	61.083148
1023.000000	61.664200
1022.000000	62.268361
1021.000000	62.886962
1020.000000	63.500373
1019.000000	64.076228
1018.000000	64.580456
1017.000000	64.982055
1016.000000	65.231099
1015.000000	65.259669
1014.000000	64.995239
1013.000000	64.358789
1012.000000	63.266113
1011.000000	61.606329
1010.000000	59.246266
1009.000000	56.045882
1008.000000	51.956292
1007.000000	47.239746
1006.000000	42.618452
1005.000000	39.113511
1004.000000	37.570951
1003.000000	38.194255
1002.000000	40.438322
1001.000000	43.353913
1000.000000	46.012642
999.000000	47.716805
998.000000	48.058920
997.000000	47.014777
996.000000	45.086408
995.000000	43.222890
994.000000	42.372272
993.000000	42.949026
992.000000	44.682783
991.000000	46.932924
990.000000	49.142279
989.000000	51.060016
988.000000	52.671277
987.000000	54.031769
986.000000	55.193616
985.000000	56.196611
984.000000	57.066562
983.000000	57.816607
982.000000	58.470298
981.000000	59.063463
980.000000	59.617365
979.000000	60.133046
978.000000	60.609303
977.000000	61.055788
976.000000	61.478325
975.000000	61.872005
974.000000	62.239099
973.000000	62.590266
972.000000	62.924110
971.000000	63.221839
970.000000	63.470098
969.000000	63.674326
968.000000	63.841921
967.000000	63.975452
966.000000	64.087993
965.000000	64.204056
964.000000	64.337273
963.000000	64.482318
962.000000	64.634932
961.000000	64.801996
960.000000	64.985995
959.000000	65.179151
958.000000	65.380313
957.000000	65.598338
956.000000	65.830348
955.000000	66.054502
954.000000	66.252396
953.000000	66.420115
952.000000	66.552687
951.000000	66.639622
950.000000	66.683649
949.000000	66.705286
948.000000	66.719284
947.000000	66.725119
946.000000	66.726890
945.000000	66.740380
944.000000	66.773788
943.000000	66.821769
942.000000	66.886717
941.000000	66.985246
940.000000	67.125289
939.000000	67.294563
938.000000	67.479027
937.000000	67.672598
936.000000	67.860254
935.000000	68.014123
934.000000	68.118104
933.000000	68.178439
932.000000	68.202215
931.000000	68.188062
930.000000	68.143592
929.000000	68.089781
928.000000	68.038030
927.000000	67.983861
926.000000	67.932194
925.000000	67.906231
924.000000	67.923263
923.000000	67.982390
922.000000	68.083677
921.000000	68.233007
920.000000	68.418776
919.000000	68.606562
918.000000	68.769960
917.000000	68.906290
916.000000	69.013635
915.000000	69.079034
914.000000	69.100569
913.000000	69.094827
912.000000	69.067761
911.000000	69.006097
910.000000	68.908430
909.000000	68.800321
908.000000	68.706691
907.000000	68.634771
906.000000	68.594035
905.000000	68.601117
904.000000	68.648775
903.000000	68.698848
902.000000	68.724799
901.000000	68.737214
900.000000	68.755055
899.000000	68.774390
898.000000	68.774194
897.000000	68.714890
896.000000	68.531676
895.000000	68.176912
894.000000	67.675448
893.000000	67.067968
892.000000	66.272212
891.000000	65.113206
890.000000	63.600654
889.000000	62.137032
888.000000	61.305857
887.000000	61.413502
886.000000	62.258540
885.000000	63.355271
884.000000	64.333982
883.000000	65.092959
882.000000	65.687515
881.000000	66.177130
880.000000	66.576959
879.000000	66.887939
878.000000	67.121490
877.000000	67.294852
876.000000	67.418917
875.000000	67.497394
874.000000	67.532460
873.000000	67.531311
872.000000	67.502829
871.000000	67.455350
870.000000	67.402785
869.000000	67.366005
868.000000	67.363883
867.000000	67.404996
866.000000	67.489564
865.000000	67.611022
864.000000	67.751256
863.000000	67.883210
862.000000	67.987484
861.000000	68.061589
860.000000	68.108812
859.000000	68.126601
858.000000	68.111117
857.000000	68.061266
856.000000	67.971624
855.000000	67.834752
854.000000	67.657584
853.000000	67.467891
852.000000	67.297897
851.000000	67.169505
850.000000	67.096874
849.000000	67.088574
848.000000	67.138120
847.000000	67.223926
846.000000	67.328710
845.000000	67.448748
844.000000	67.580218
843.000000	67.708289
842.000000	67.816890
841.000000	67.895150
840.000000	67.926942
839.000000	67.889219
838.000000	67.773057
837.000000	67.595761
836.000000	67.383593
835.000000	67.157632
834.000000	66.940550
833.000000	66.759289
832.000000	66.628238
831.000000	66.541918
830.000000	66.493809
829.000000	66.491815
828.000000	66.545923
827.000000	66.651564
826.000000	66.795905
825.000000	66.963962
824.000000	67.127253
823.000000	67.242872
822.000000	67.281395
821.000000	67.243645
820.000000	67.141761
819.000000	66.981180
818.000000	66.768186
817.000000	66.517508
816.000000	66.231936
815.000000	65.891160
814.000000	65.465630
813.000000	64.915231
812.000000	64.161290
811.000000	63.086154
810.000000	61.625391
809.000000	59.894451
808.000000	58.217505
807.000000	56.991877
806.000000	56.478915
805.000000	56.678569
804.000000	57.374520
803.000000	58.292132
802.000000	59.221474
801.000000	60.045019
800.000000	60.702008
799.000000	61.166566
798.000000	61.455780
797.000000	61.618772
796.000000	61.701956
795.000000	61.732424
794.000000	61.732280
793.000000	61.723500
792.000000	61.716014
791.000000	61.709153
790.000000	61.711767
789.000000	61.744531
788.000000	61.815324
787.000000	61.908857
786.000000	62.003781
785.000000	62.083048
784.000000	62.124091
783.000000	62.100812
782.000000	62.007225
781.000000	61.863793
780.000000	61.694162
779.000000	61.511932
778.000000	61.333665
777.000000	61.185070
776.000000	61.085332
775.000000	61.041519
774.000000	61.063337
773.000000	61.166380
772.000000	61.351142
771.000000	61.593637
770.000000	61.863949
769.000000	62.138126
768.000000	62.387827
767.000000	62.579575
766.000000	62.697181
765.000000	62.747907
764.000000	62.739127
763.000000	62.666495
762.000000	62.532608
761.000000	62.357080
760.000000	62.159141
759.000000	61.950760
758.000000	61.754098
757.000000	61.605126
756.000000	61.527804
755.000000	61.520309
754.000000	61.572892
753.000000	61.680167
752.000000	61.827387
751.000000	61.985621
750.000000	62.133422
749.000000	62.265470
748.000000	62.370770
747.000000	62.422496
746.000000	62.401568
745.000000	62.311001
744.000000	62.158213
743.000000	61.945340
742.000000	61.687818
741.000000	61.420361
740.000000	61.171195
739.000000	60.949002
738.000000	60.762939
737.000000	60.632743
736.000000	60.566005
735.000000	60.544774
734.000000	60.545475
733.000000	60.550321
732.000000	60.526455
731.000000	60.418519
730.000000	60.181266
729.000000	59.803931
728.000000	59.297391
727.000000	58.686639
726.000000	58.031579
725.000000	57.429246
724.000000	56.970058
723.000000	56.699396
722.000000	56.627400
721.000000	56.746290
720.000000	57.017514
719.000000	57.369776
718.000000	57.738867
717.000000	58.098514
716.000000	58.441354
715.000000	58.754437
714.000000	59.029531
713.000000	59.274142
712.000000	59.490906
711.000000	59.663293
710.000000	59.778047
709.000000	59.839181
708.000000	59.845076
707.000000	59.778315
706.000000	59.635962
705.000000	59.447837
704.000000	59.249656
703.000000	59.057673
702.000000	58.885650
701.000000	58.759187
700.000000	58.689523
699.000000	58.660240
698.000000	58.658512
697.000000	58.696736
696.000000	58.785635
695.000000	58.907767
694.000000	59.040410
693.000000	59.176268
692.000000	59.296930
691.000000	59.361527
690.000000	59.346477
689.000000	59.271392
688.000000	59.162609
687.000000	59.017794
686.000000	58.837152
685.000000	58.651650
684.000000	58.486256
683.000000	58.331371
682.000000	58.183307
681.000000	58.077370
680.000000	58.048491
679.000000	58.088736
678.000000	58.181450
677.000000	58.334125
676.000000	58.532523
675.000000	58.724371
674.000000	58.875050
673.000000	58.960910
672.000000	58.869038
671.000000	58.406579
670.000000	57.514485
669.000000	56.528613
668.000000	56.050288
667.000000	56.410381
666.000000	57.282024
665.000000	57.990817
664.000000	58.265192
663.000000	58.268905
662.000000	58.216418
661.000000	58.217063
660.000000	58.272575
659.000000	58.368090
658.000000	58.492796
657.000000	58.637681
656.000000	58.790626
655.000000	58.942074
654.000000	59.078347
653.000000	59.175357
652.000000	59.212413
651.000000	59.183901
650.000000	59.102021
649.000000	58.989066
648.000000	58.866525
647.000000	58.749695
646.000000	58.648164
645.000000	58.571694
644.000000	58.530119
643.000000	58.529508
642.000000	58.574993
641.000000	58.671585
640.000000	58.816897
639.000000	58.995904
638.000000	59.186894
637.000000	59.370154
636.000000	59.526526
635.000000	59.635032
634.000000	59.686284
633.000000	59.690942
632.000000	59.662264
631.000000	59.601172
630.000000	59.506811
629.000000	59.388519
628.000000	59.259342
627.000000	59.132145
626.000000	59.030472
625.000000	58.987295
624.000000	59.017820
623.000000	59.104844
622.000000	59.221022
621.000000	59.350538
620.000000	59.482646
619.000000	59.605811
618.000000	59.723495
617.000000	59.854194
616.000000	59.995486
615.000000	60.107843
614.000000	60.153790
613.000000	60.134045
612.000000	60.067726
611.000000	59.965572
610.000000	59.844859
609.000000	59.741277
608.000000	59.679614
607.000000	59.652461
606.000000	59.648558
605.000000	59.679654
604.000000	59.755519
603.000000	59.857870
602.000000	59.967264
601.000000	60.087343
600.000000	60.211838
599.000000	60.292638
598.000000	60.274833
597.000000	60.130670
596.000000	59.834833
595.000000	59.325806
594.000000	58.491706
593.000000	57.144113
592.000000	55.001367
591.000000	51.875035
590.000000	48.036232
589.000000	44.370574
588.000000	42.021301
587.000000	41.732688
586.000000	43.379743
585.000000	46.090187
584.000000	48.886362
583.000000	51.208764
582.000000	52.963165
581.000000	54.280179
580.000000	55.295334
579.000000	56.084644
578.000000	56.698198
577.000000	57.179829
576.000000	57.550222
575.000000	57.809044
574.000000	57.963537
573.000000	58.047246
572.000000	58.097385
571.000000	58.135699
570.000000	58.182846
569.000000	58.263207
568.000000	58.383681
567.000000	58.522469
566.000000	58.652939
565.000000	58.764653
564.000000	58.849183
563.000000	58.890886
562.000000	58.888809
561.000000	58.864064
560.000000	58.826482
559.000000	58.754536
558.000000	58.627885
557.000000	58.458237
556.000000	58.275764
555.000000	58.111200
554.000000	58.003070
553.000000	57.990077
552.000000	58.076783
551.000000	58.227215
550.000000	58.406293
549.000000	58.611079
548.000000	58.847354
547.000000	59.101998
546.000000	59.359463
545.000000	59.617939
544.000000	59.866569
543.000000	60.073556
542.000000	60.221440
541.000000	60.326869
540.000000	60.403188
539.000000	60.433259
538.000000	60.403209
537.000000	60.331065
536.000000	60.235664
535.000000	60.114001
534.000000	59.973981
533.000000	59.855274
532.000000	59.789978
531.000000	59.769741
530.000000	59.774623
529.000000	59.803788
528.000000	59.854737
527.000000	59.902589
526.000000	59.924100
525.000000	59.913677
524.000000	59.848984
523.000000	59.672184
522.000000	59.335663
521.000000	58.828426
520.000000	58.141490
519.000000	57.243384
518.000000	56.124496
517.000000	54.854667
516.000000	53.573403
515.000000	52.445339
514.000000	51.630655
513.000000	51.257134
512.000000	51.365214
511.000000	51.883992
510.000000	52.678875
509.000000	53.627507
508.000000	54.640331
507.000000	55.619001
506.000000	56.468904
505.000000	57.156522
504.000000	57.705333
503.000000	58.142873
502.000000	58.491042
501.000000	58.778041
500.000000	59.013638
499.000000	59.177485
498.000000	59.258593
497.000000	59.288113
496.000000	59.306405
495.000000	59.326524
494.000000	59.360646
493.000000	59.443327
492.000000	59.589472
491.000000	59.760379
490.000000	59.907408
489.000000	60.022323
488.000000	60.107926
487.000000	60.138693
486.000000	60.085388
485.000000	59.935733
484.000000	59.656143
483.000000	59.162482
482.000000	58.384792
481.000000	57.319688
480.000000	55.976115
479.000000	54.328413
478.000000	52.378215
477.000000	50.259646
476.000000	48.252144
475.000000	46.706226
474.000000	45.938689
473.000000	46.122921
472.000000	47.156438
471.000000	48.670659
470.000000	50.309507
469.000000	51.915693
468.000000	53.426177
467.000000	54.740085
466.000000	55.778034
465.000000	56.578601
464.000000	57.226882
463.000000	57.753422
462.000000	58.170308
461.000000	58.528635
460.000000	58.863579
459.000000	59.156573
458.000000	59.409862
457.000000	59.686560
456.000000	60.009777
455.000000	60.324966
454.000000	60.618331
453.000000	60.953227
452.000000	61.347109
451.000000	61.705690
450.000000	61.955119
449.000000	62.143109
448.000000	62.329373
447.000000	62.481801
446.000000	62.561015
445.000000	62.609836
444.000000	62.668189
443.000000	62.698126
442.000000	62.686380
441.000000	62.714388
440.000000	62.830199
439.000000	62.970740
438.000000	63.090167
437.000000	63.251845
436.000000	63.500938
435.000000	63.755912
434.000000	63.946541
433.000000	64.127749
432.000000	64.334572
431.000000	64.472551
430.000000	64.478571
429.000000	64.442516
428.000000	64.435826
427.000000	64.383889
426.000000	64.243348
425.000000	64.135980
424.000000	64.157910
423.000000	64.212692
422.000000	64.204331
421.000000	64.224642
420.000000	64.390268
419.000000	64.639000
418.000000	64.871482
417.000000	65.150447
416.000000	65.506133
415.000000	65.804083
414.000000	65.968937
413.000000	66.130084
412.000000	66.379962
411.000000	66.566232
410.000000	66.555933
409.000000	66.460073
408.000000	66.351012
407.000000	66.071554
406.000000	65.606047
405.000000	65.309134
404.000000	65.419999
403.000000	65.717118
402.000000	65.901226
401.000000	66.081933
400.000000	66.436901
