PE IR       SUBTECH     SPECTRUM    ASCII       PEDS        4.00        
   -1
23ms173-trans.asc
24/10/17
16:19:23.00
24/10/17
16:19:23.00
Administrator
Sample 1297 By Administrator Date Thursday, October 17 2024
400.000000
#HDR
-1
-1
#GR
cm-1
%T
1.0
0.0
4000.000000
-1.000000
3601
8
72.464195
8.587452
#DATA
4000.000000	41.329486
3999.000000	41.316788
3998.000000	41.304032
3997.000000	41.290785
3996.000000	41.276204
3995.000000	41.259554
3994.000000	41.240623
3993.000000	41.219658
3992.000000	41.197146
3991.000000	41.173602
3990.000000	41.149435
3989.000000	41.125578
3988.000000	41.104346
3987.000000	41.088856
3986.000000	41.081282
3985.000000	41.081347
3984.000000	41.086530
3983.000000	41.093316
3982.000000	41.098332
3981.000000	41.099500
3980.000000	41.096461
3979.000000	41.090464
3978.000000	41.083839
3977.000000	41.078531
3976.000000	41.075040
3975.000000	41.072725
3974.000000	41.071740
3973.000000	41.074343
3972.000000	41.083498
3971.000000	41.101217
3970.000000	41.127539
3969.000000	41.160514
3968.000000	41.197868
3967.000000	41.238160
3966.000000	41.280686
3965.000000	41.325297
3964.000000	41.371806
3963.000000	41.419167
3962.000000	41.466128
3961.000000	41.511624
3960.000000	41.554586
3959.000000	41.594963
3958.000000	41.633127
3957.000000	41.668550
3956.000000	41.700537
3955.000000	41.729295
3954.000000	41.756282
3953.000000	41.782488
3952.000000	41.806973
3951.000000	41.828346
3950.000000	41.846097
3949.000000	41.861231
3948.000000	41.877461
3947.000000	41.899432
3946.000000	41.929624
3945.000000	41.967991
3944.000000	42.011662
3943.000000	42.053617
3942.000000	42.086738
3941.000000	42.110357
3940.000000	42.129082
3939.000000	42.148439
3938.000000	42.169557
3937.000000	42.188013
3936.000000	42.199515
3935.000000	42.204860
3934.000000	42.211938
3933.000000	42.228404
3932.000000	42.254129
3931.000000	42.282519
3930.000000	42.305747
3929.000000	42.323437
3928.000000	42.340469
3927.000000	42.360940
3926.000000	42.384925
3925.000000	42.405940
3924.000000	42.414965
3923.000000	42.409397
3922.000000	42.395526
3921.000000	42.382914
3920.000000	42.378080
3919.000000	42.382529
3918.000000	42.396675
3917.000000	42.421426
3916.000000	42.454363
3915.000000	42.488401
3914.000000	42.518900
3913.000000	42.547235
3912.000000	42.575129
3911.000000	42.601668
3910.000000	42.624752
3909.000000	42.643577
3908.000000	42.660383
3907.000000	42.673454
3906.000000	42.674358
3905.000000	42.653059
3904.000000	42.608470
3903.000000	42.558931
3902.000000	42.532292
3901.000000	42.544734
3900.000000	42.591354
3899.000000	42.651709
3898.000000	42.704572
3897.000000	42.743947
3896.000000	42.774664
3895.000000	42.805499
3894.000000	42.842019
3893.000000	42.881679
3892.000000	42.911946
3891.000000	42.922822
3890.000000	42.915863
3889.000000	42.897102
3888.000000	42.876438
3887.000000	42.871440
3886.000000	42.892817
3885.000000	42.928732
3884.000000	42.956624
3883.000000	42.971470
3882.000000	42.984151
3881.000000	43.002074
3880.000000	43.019555
3879.000000	43.029351
3878.000000	43.032710
3877.000000	43.035832
3876.000000	43.046580
3875.000000	43.068731
3874.000000	43.090792
3873.000000	43.094445
3872.000000	43.075743
3871.000000	43.052412
3870.000000	43.045499
3869.000000	43.056830
3868.000000	43.071965
3867.000000	43.080413
3866.000000	43.090730
3865.000000	43.115426
3864.000000	43.146382
3863.000000	43.167492
3862.000000	43.177464
3861.000000	43.185151
3860.000000	43.202695
3859.000000	43.241546
3858.000000	43.308842
3857.000000	43.396292
3856.000000	43.476322
3855.000000	43.518771
3854.000000	43.508533
3853.000000	43.460046
3852.000000	43.416295
3851.000000	43.397307
3850.000000	43.388053
3849.000000	43.381485
3848.000000	43.381660
3847.000000	43.392827
3846.000000	43.413811
3845.000000	43.436729
3844.000000	43.451153
3843.000000	43.454244
3842.000000	43.450027
3841.000000	43.446205
3840.000000	43.448438
3839.000000	43.452944
3838.000000	43.456910
3837.000000	43.465607
3836.000000	43.483055
3835.000000	43.504026
3834.000000	43.521131
3833.000000	43.537069
3832.000000	43.560471
3831.000000	43.591854
3830.000000	43.625347
3829.000000	43.657464
3828.000000	43.686888
3827.000000	43.713311
3826.000000	43.731621
3825.000000	43.733605
3824.000000	43.718025
3823.000000	43.701703
3822.000000	43.707736
3821.000000	43.733811
3820.000000	43.757792
3819.000000	43.769748
3818.000000	43.774837
3817.000000	43.788474
3816.000000	43.825144
3815.000000	43.878084
3814.000000	43.927637
3813.000000	43.961562
3812.000000	43.980491
3811.000000	43.992330
3810.000000	44.004388
3809.000000	44.018551
3808.000000	44.033228
3807.000000	44.045260
3806.000000	44.050648
3805.000000	44.050455
3804.000000	44.048872
3803.000000	44.057373
3802.000000	44.082657
3801.000000	44.110638
3800.000000	44.123796
3799.000000	44.122583
3798.000000	44.117660
3797.000000	44.122478
3796.000000	44.144282
3795.000000	44.179954
3794.000000	44.221188
3793.000000	44.262267
3792.000000	44.300268
3791.000000	44.333994
3790.000000	44.362434
3789.000000	44.385273
3788.000000	44.404177
3787.000000	44.421170
3786.000000	44.436215
3785.000000	44.446681
3784.000000	44.449434
3783.000000	44.443802
3782.000000	44.435944
3781.000000	44.436820
3780.000000	44.451042
3779.000000	44.470450
3778.000000	44.486372
3777.000000	44.497905
3776.000000	44.507339
3775.000000	44.515922
3774.000000	44.522514
3773.000000	44.523462
3772.000000	44.517427
3771.000000	44.510288
3770.000000	44.505971
3769.000000	44.502228
3768.000000	44.498404
3767.000000	44.497008
3766.000000	44.502287
3765.000000	44.514006
3764.000000	44.523494
3763.000000	44.521951
3762.000000	44.512235
3761.000000	44.509128
3760.000000	44.519136
3759.000000	44.529082
3758.000000	44.530446
3757.000000	44.528793
3756.000000	44.528774
3755.000000	44.526655
3754.000000	44.519608
3753.000000	44.515015
3752.000000	44.517014
3751.000000	44.514228
3750.000000	44.503492
3749.000000	44.501726
3748.000000	44.515467
3747.000000	44.532131
3746.000000	44.548121
3745.000000	44.578070
3744.000000	44.622161
3743.000000	44.661253
3742.000000	44.676562
3741.000000	44.661315
3740.000000	44.626838
3739.000000	44.588347
3738.000000	44.563508
3737.000000	44.569289
3736.000000	44.606535
3735.000000	44.650272
3734.000000	44.676852
3733.000000	44.697046
3732.000000	44.731072
3731.000000	44.778035
3730.000000	44.821099
3729.000000	44.846412
3728.000000	44.858308
3727.000000	44.872106
3726.000000	44.892680
3725.000000	44.910466
3724.000000	44.919423
3723.000000	44.924858
3722.000000	44.930839
3721.000000	44.939599
3720.000000	44.952008
3719.000000	44.964074
3718.000000	44.972733
3717.000000	44.976808
3716.000000	44.974090
3715.000000	44.963137
3714.000000	44.948648
3713.000000	44.941237
3712.000000	44.943895
3711.000000	44.947333
3710.000000	44.950024
3709.000000	44.959419
3708.000000	44.977472
3707.000000	44.999585
3706.000000	45.019375
3705.000000	45.034220
3704.000000	45.047060
3703.000000	45.061556
3702.000000	45.075458
3701.000000	45.082670
3700.000000	45.081956
3699.000000	45.074627
3698.000000	45.063929
3697.000000	45.055156
3696.000000	45.046439
3695.000000	45.029051
3694.000000	44.999548
3693.000000	44.968451
3692.000000	44.947641
3691.000000	44.933167
3690.000000	44.907064
3689.000000	44.865179
3688.000000	44.829593
3687.000000	44.814634
3686.000000	44.807662
3685.000000	44.792480
3684.000000	44.766799
3683.000000	44.735850
3682.000000	44.706319
3681.000000	44.680377
3680.000000	44.654820
3679.000000	44.617622
3678.000000	44.553989
3677.000000	44.472372
3676.000000	44.397399
3675.000000	44.337840
3674.000000	44.283837
3673.000000	44.222713
3672.000000	44.149761
3671.000000	44.088383
3670.000000	44.058395
3669.000000	44.044981
3668.000000	44.029304
3667.000000	44.005426
3666.000000	43.969431
3665.000000	43.926038
3664.000000	43.881238
3663.000000	43.834341
3662.000000	43.781639
3661.000000	43.718277
3660.000000	43.641067
3659.000000	43.548529
3658.000000	43.442307
3657.000000	43.329671
3656.000000	43.215702
3655.000000	43.100422
3654.000000	42.975322
3653.000000	42.831432
3652.000000	42.673724
3651.000000	42.517451
3650.000000	42.368024
3649.000000	42.221655
3648.000000	42.094690
3647.000000	42.003366
3646.000000	41.934935
3645.000000	41.866603
3644.000000	41.789642
3643.000000	41.706690
3642.000000	41.619622
3641.000000	41.522692
3640.000000	41.409261
3639.000000	41.280333
3638.000000	41.140373
3637.000000	40.991071
3636.000000	40.831761
3635.000000	40.667793
3634.000000	40.507063
3633.000000	40.348890
3632.000000	40.180478
3631.000000	39.990747
3630.000000	39.788397
3629.000000	39.593490
3628.000000	39.417267
3627.000000	39.263187
3626.000000	39.119761
3625.000000	38.972841
3624.000000	38.821979
3623.000000	38.671794
3622.000000	38.520111
3621.000000	38.361179
3620.000000	38.189252
3619.000000	38.000872
3618.000000	37.802366
3617.000000	37.605550
3616.000000	37.413181
3615.000000	37.224111
3614.000000	37.038708
3613.000000	36.855858
3612.000000	36.672891
3611.000000	36.488702
3610.000000	36.307620
3609.000000	36.140649
3608.000000	35.991258
3607.000000	35.849150
3606.000000	35.703163
3605.000000	35.549544
3604.000000	35.391517
3603.000000	35.232499
3602.000000	35.071234
3601.000000	34.905977
3600.000000	34.736428
3599.000000	34.561633
3598.000000	34.382376
3597.000000	34.202317
3596.000000	34.024314
3595.000000	33.848892
3594.000000	33.672936
3593.000000	33.494617
3592.000000	33.313813
3591.000000	33.129324
3590.000000	32.943212
3589.000000	32.765478
3588.000000	32.603620
3587.000000	32.452249
3586.000000	32.303089
3585.000000	32.154898
3584.000000	32.009293
3583.000000	31.866555
3582.000000	31.725920
3581.000000	31.586336
3580.000000	31.445825
3579.000000	31.301797
3578.000000	31.152901
3577.000000	31.000985
3576.000000	30.848603
3575.000000	30.696367
3574.000000	30.543321
3573.000000	30.388146
3572.000000	30.229663
3571.000000	30.065513
3570.000000	29.895267
3569.000000	29.727620
3568.000000	29.575051
3567.000000	29.439576
3566.000000	29.311963
3565.000000	29.185756
3564.000000	29.059701
3563.000000	28.935515
3562.000000	28.814997
3561.000000	28.698134
3560.000000	28.582265
3559.000000	28.463433
3558.000000	28.339892
3557.000000	28.212973
3556.000000	28.085078
3555.000000	27.957161
3554.000000	27.829697
3553.000000	27.702995
3552.000000	27.575918
3551.000000	27.445360
3550.000000	27.308489
3549.000000	27.167323
3548.000000	27.028353
3547.000000	26.897210
3546.000000	26.774182
3545.000000	26.655873
3544.000000	26.538985
3543.000000	26.421780
3542.000000	26.303971
3541.000000	26.186080
3540.000000	26.068624
3539.000000	25.950876
3538.000000	25.832329
3537.000000	25.713607
3536.000000	25.594699
3535.000000	25.474126
3534.000000	25.350425
3533.000000	25.225116
3532.000000	25.100508
3531.000000	24.976799
3530.000000	24.851387
3529.000000	24.722110
3528.000000	24.588770
3527.000000	24.452363
3526.000000	24.315261
3525.000000	24.181683
3524.000000	24.054716
3523.000000	23.932376
3522.000000	23.809516
3521.000000	23.683044
3520.000000	23.553601
3519.000000	23.422160
3518.000000	23.288393
3517.000000	23.152142
3516.000000	23.014090
3515.000000	22.875147
3514.000000	22.735845
3513.000000	22.596664
3512.000000	22.457351
3511.000000	22.316379
3510.000000	22.172009
3509.000000	22.024423
3508.000000	21.874551
3507.000000	21.722299
3506.000000	21.567898
3505.000000	21.414102
3504.000000	21.263763
3503.000000	21.116322
3502.000000	20.969282
3501.000000	20.821919
3500.000000	20.675426
3499.000000	20.530158
3498.000000	20.385823
3497.000000	20.242839
3496.000000	20.101548
3495.000000	19.960848
3494.000000	19.819690
3493.000000	19.678985
3492.000000	19.540147
3491.000000	19.402864
3490.000000	19.266344
3489.000000	19.131884
3488.000000	19.001656
3487.000000	18.875696
3486.000000	18.752686
3485.000000	18.632555
3484.000000	18.515708
3483.000000	18.401334
3482.000000	18.288666
3481.000000	18.179593
3480.000000	18.076947
3479.000000	17.980975
3478.000000	17.889983
3477.000000	17.803170
3476.000000	17.720126
3475.000000	17.638566
3474.000000	17.555686
3473.000000	17.470960
3472.000000	17.385710
3471.000000	17.301387
3470.000000	17.220604
3469.000000	17.148108
3468.000000	17.087756
3467.000000	17.038974
3466.000000	16.998562
3465.000000	16.964665
3464.000000	16.936802
3463.000000	16.913899
3462.000000	16.895261
3461.000000	16.882303
3460.000000	16.876560
3459.000000	16.876984
3458.000000	16.881126
3457.000000	16.887452
3456.000000	16.894623
3455.000000	16.900210
3454.000000	16.902176
3453.000000	16.900162
3452.000000	16.893083
3451.000000	16.878087
3450.000000	16.853525
3449.000000	16.820904
3448.000000	16.781690
3447.000000	16.734112
3446.000000	16.676190
3445.000000	16.609415
3444.000000	16.536758
3443.000000	16.459352
3442.000000	16.377334
3441.000000	16.292090
3440.000000	16.205676
3439.000000	16.119958
3438.000000	16.038391
3437.000000	15.966421
3436.000000	15.907919
3435.000000	15.862754
3434.000000	15.829089
3433.000000	15.806228
3432.000000	15.793816
3431.000000	15.791019
3430.000000	15.798474
3429.000000	15.818886
3428.000000	15.853171
3427.000000	15.898662
3426.000000	15.952369
3425.000000	16.013760
3424.000000	16.083161
3423.000000	16.159463
3422.000000	16.241749
3421.000000	16.330186
3420.000000	16.423478
3419.000000	16.517965
3418.000000	16.610799
3417.000000	16.702132
3416.000000	16.792648
3415.000000	16.881528
3414.000000	16.968246
3413.000000	17.053699
3412.000000	17.137901
3411.000000	17.219133
3410.000000	17.296675
3409.000000	17.371690
3408.000000	17.444008
3407.000000	17.510624
3406.000000	17.569253
3405.000000	17.620808
3404.000000	17.667120
3403.000000	17.709405
3402.000000	17.750426
3401.000000	17.794978
3400.000000	17.845519
3399.000000	17.899425
3398.000000	17.952123
3397.000000	18.000787
3396.000000	18.043891
3395.000000	18.080758
3394.000000	18.113736
3393.000000	18.148085
3392.000000	18.187257
3391.000000	18.230154
3390.000000	18.274551
3389.000000	18.320115
3388.000000	18.366418
3387.000000	18.411231
3386.000000	18.453175
3385.000000	18.493569
3384.000000	18.533657
3383.000000	18.572791
3382.000000	18.610941
3381.000000	18.650339
3380.000000	18.692400
3379.000000	18.735887
3378.000000	18.779843
3377.000000	18.825570
3376.000000	18.873578
3375.000000	18.921304
3374.000000	18.966227
3373.000000	19.008876
3372.000000	19.050894
3371.000000	19.092772
3370.000000	19.135658
3369.000000	19.182549
3368.000000	19.235299
3367.000000	19.292268
3366.000000	19.350740
3365.000000	19.409369
3364.000000	19.467129
3363.000000	19.522752
3362.000000	19.576938
3361.000000	19.632517
3360.000000	19.690668
3359.000000	19.749483
3358.000000	19.807572
3357.000000	19.865955
3356.000000	19.924801
3355.000000	19.981767
3354.000000	20.035713
3353.000000	20.089296
3352.000000	20.145913
3351.000000	20.206469
3350.000000	20.270435
3349.000000	20.337097
3348.000000	20.404283
3347.000000	20.468743
3346.000000	20.529929
3345.000000	20.590809
3344.000000	20.653337
3343.000000	20.716008
3342.000000	20.777232
3341.000000	20.838245
3340.000000	20.900964
3339.000000	20.965671
3338.000000	21.032387
3337.000000	21.101627
3336.000000	21.172147
3335.000000	21.240732
3334.000000	21.305911
3333.000000	21.369317
3332.000000	21.432191
3331.000000	21.493451
3330.000000	21.552409
3329.000000	21.610434
3328.000000	21.668386
3327.000000	21.725278
3326.000000	21.780853
3325.000000	21.836527
3324.000000	21.892257
3323.000000	21.945360
3322.000000	21.993768
3321.000000	22.037801
3320.000000	22.077424
3319.000000	22.110974
3318.000000	22.137588
3317.000000	22.158206
3316.000000	22.172484
3315.000000	22.177643
3314.000000	22.171825
3313.000000	22.155449
3312.000000	22.128364
3311.000000	22.088836
3310.000000	22.036325
3309.000000	21.972867
3308.000000	21.899592
3307.000000	21.815285
3306.000000	21.719536
3305.000000	21.613549
3304.000000	21.497308
3303.000000	21.368138
3302.000000	21.224144
3301.000000	21.065761
3300.000000	20.892418
3299.000000	20.701868
3298.000000	20.493928
3297.000000	20.272091
3296.000000	20.040218
3295.000000	19.800523
3294.000000	19.556956
3293.000000	19.316474
3292.000000	19.084586
3291.000000	18.862438
3290.000000	18.649566
3289.000000	18.445911
3288.000000	18.249251
3287.000000	18.054163
3286.000000	17.855746
3285.000000	17.651646
3284.000000	17.438884
3283.000000	17.212385
3282.000000	16.968829
3281.000000	16.709180
3280.000000	16.435535
3279.000000	16.149212
3278.000000	15.853515
3277.000000	15.554493
3276.000000	15.256822
3275.000000	14.961397
3274.000000	14.668983
3273.000000	14.383026
3272.000000	14.107518
3271.000000	13.845999
3270.000000	13.605457
3269.000000	13.397738
3268.000000	13.234069
3267.000000	13.122366
3266.000000	13.067993
3265.000000	13.074051
3264.000000	13.136890
3263.000000	13.243422
3262.000000	13.378028
3261.000000	13.526132
3260.000000	13.673479
3259.000000	13.805977
3258.000000	13.912954
3257.000000	13.987376
3256.000000	14.020640
3255.000000	13.999718
3254.000000	13.909877
3253.000000	13.738734
3252.000000	13.471890
3251.000000	13.095810
3250.000000	12.606021
3249.000000	12.012434
3248.000000	11.340639
3247.000000	10.629083
3246.000000	9.932509
3245.000000	9.319277
3244.000000	8.858887
3243.000000	8.604791
3242.000000	8.587452
3241.000000	8.806757
3240.000000	9.225769
3239.000000	9.782453
3238.000000	10.407704
3237.000000	11.046130
3236.000000	11.660130
3235.000000	12.226983
3234.000000	12.738943
3233.000000	13.196986
3232.000000	13.602771
3231.000000	13.955464
3230.000000	14.256971
3229.000000	14.512697
3228.000000	14.727899
3227.000000	14.904943
3226.000000	15.046659
3225.000000	15.158985
3224.000000	15.245829
3223.000000	15.307948
3222.000000	15.346432
3221.000000	15.364313
3220.000000	15.363712
3219.000000	15.343805
3218.000000	15.305233
3217.000000	15.251355
3216.000000	15.184224
3215.000000	15.103427
3214.000000	15.009457
3213.000000	14.905755
3212.000000	14.795031
3211.000000	14.677708
3210.000000	14.555852
3209.000000	14.433958
3208.000000	14.315071
3207.000000	14.199450
3206.000000	14.088598
3205.000000	13.986429
3204.000000	13.895223
3203.000000	13.814382
3202.000000	13.744472
3201.000000	13.688486
3200.000000	13.647275
3199.000000	13.618637
3198.000000	13.601841
3197.000000	13.598819
3196.000000	13.609972
3195.000000	13.632336
3194.000000	13.664339
3193.000000	13.707049
3192.000000	13.759507
3191.000000	13.817998
3190.000000	13.880833
3189.000000	13.950496
3188.000000	14.029279
3187.000000	14.116938
3186.000000	14.214374
3185.000000	14.323957
3184.000000	14.445020
3183.000000	14.572882
3182.000000	14.703761
3181.000000	14.836684
3180.000000	14.968763
3179.000000	15.093702
3178.000000	15.206682
3177.000000	15.307130
3176.000000	15.395667
3175.000000	15.473087
3174.000000	15.543690
3173.000000	15.615129
3172.000000	15.693201
3171.000000	15.780409
3170.000000	15.880490
3169.000000	15.999447
3168.000000	16.140940
3167.000000	16.304087
3166.000000	16.487837
3165.000000	16.692740
3164.000000	16.918067
3163.000000	17.162584
3162.000000	17.428059
3161.000000	17.718588
3160.000000	18.033484
3159.000000	18.365022
3158.000000	18.704250
3157.000000	19.043447
3156.000000	19.373743
3155.000000	19.685381
3154.000000	19.972834
3153.000000	20.235449
3152.000000	20.472695
3151.000000	20.682605
3150.000000	20.865649
3149.000000	21.025890
3148.000000	21.165367
3147.000000	21.282728
3146.000000	21.376561
3145.000000	21.446022
3144.000000	21.487767
3143.000000	21.494558
3142.000000	21.460704
3141.000000	21.383942
3140.000000	21.261490
3139.000000	21.090533
3138.000000	20.871649
3137.000000	20.611085
3136.000000	20.316885
3135.000000	19.997096
3134.000000	19.664127
3133.000000	19.334298
3132.000000	19.022484
3131.000000	18.739275
3130.000000	18.494090
3129.000000	18.295028
3128.000000	18.143896
3127.000000	18.034991
3126.000000	17.960612
3125.000000	17.915158
3124.000000	17.892091
3123.000000	17.884463
3122.000000	17.889145
3121.000000	17.906716
3120.000000	17.936625
3119.000000	17.975449
3118.000000	18.021690
3117.000000	18.075980
3116.000000	18.135315
3115.000000	18.191512
3114.000000	18.236428
3113.000000	18.264441
3112.000000	18.268717
3111.000000	18.241450
3110.000000	18.177964
3109.000000	18.077814
3108.000000	17.939634
3107.000000	17.760369
3106.000000	17.541727
3105.000000	17.291029
3104.000000	17.017219
3103.000000	16.729402
3102.000000	16.441880
3101.000000	16.174156
3100.000000	15.944024
3099.000000	15.764107
3098.000000	15.645247
3097.000000	15.598153
3096.000000	15.626422
3095.000000	15.725841
3094.000000	15.889615
3093.000000	16.111663
3092.000000	16.384444
3091.000000	16.696618
3090.000000	17.038329
3089.000000	17.402209
3088.000000	17.779839
3087.000000	18.162458
3086.000000	18.544895
3085.000000	18.925963
3084.000000	19.302794
3083.000000	19.669933
3082.000000	20.024450
3081.000000	20.367055
3080.000000	20.697495
3079.000000	21.013364
3078.000000	21.314539
3077.000000	21.603492
3076.000000	21.881234
3075.000000	22.146885
3074.000000	22.401914
3073.000000	22.650217
3072.000000	22.892727
3071.000000	23.127315
3070.000000	23.354013
3069.000000	23.575914
3068.000000	23.794461
3067.000000	24.008061
3066.000000	24.216458
3065.000000	24.421501
3064.000000	24.623001
3063.000000	24.818581
3062.000000	25.008055
3061.000000	25.193878
3060.000000	25.376600
3059.000000	25.554377
3058.000000	25.727513
3057.000000	25.898696
3056.000000	26.068082
3055.000000	26.232618
3054.000000	26.390911
3053.000000	26.544958
3052.000000	26.695886
3051.000000	26.842426
3050.000000	26.984333
3049.000000	27.123139
3048.000000	27.258937
3047.000000	27.389858
3046.000000	27.515719
3045.000000	27.638535
3044.000000	27.758728
3043.000000	27.874583
3042.000000	27.985835
3041.000000	28.094096
3040.000000	28.199577
3039.000000	28.300921
3038.000000	28.399247
3037.000000	28.498441
3036.000000	28.600846
3035.000000	28.706002
3034.000000	28.813897
3033.000000	28.925804
3032.000000	29.041106
3031.000000	29.156962
3030.000000	29.271822
3029.000000	29.386326
3028.000000	29.500534
3027.000000	29.613776
3026.000000	29.727448
3025.000000	29.844290
3024.000000	29.964736
3023.000000	30.087033
3022.000000	30.210928
3021.000000	30.337576
3020.000000	30.466059
3019.000000	30.593422
3018.000000	30.718311
3017.000000	30.840954
3016.000000	30.960013
3015.000000	31.073171
3014.000000	31.181078
3013.000000	31.287453
3012.000000	31.395226
3011.000000	31.505778
3010.000000	31.621380
3009.000000	31.744641
3008.000000	31.875146
3007.000000	32.009527
3006.000000	32.144479
3005.000000	32.276709
3004.000000	32.400353
3003.000000	32.507005
3002.000000	32.588341
3001.000000	32.633244
3000.000000	32.621681
2999.000000	32.523187
2998.000000	32.307679
2997.000000	31.969878
2996.000000	31.555909
2995.000000	31.170619
2994.000000	30.939735
2993.000000	30.944292
2992.000000	31.174050
2991.000000	31.544493
2990.000000	31.954894
2989.000000	32.335264
2988.000000	32.656939
2987.000000	32.919516
2986.000000	33.137708
2985.000000	33.327854
2984.000000	33.499684
2983.000000	33.654660
2982.000000	33.791409
2981.000000	33.905416
2980.000000	33.983965
2979.000000	34.006224
2978.000000	33.953411
2977.000000	33.823608
2976.000000	33.642026
2975.000000	33.462559
2974.000000	33.351249
2973.000000	33.355198
2972.000000	33.478623
2971.000000	33.686945
2970.000000	33.932667
2969.000000	34.175762
2968.000000	34.389370
2967.000000	34.558484
2966.000000	34.680174
2965.000000	34.759286
2964.000000	34.802679
2963.000000	34.815755
2962.000000	34.801941
2961.000000	34.756872
2960.000000	34.656728
2959.000000	34.454763
2958.000000	34.092619
2957.000000	33.535162
2956.000000	32.817779
2955.000000	32.077149
2954.000000	31.514958
2953.000000	31.293342
2952.000000	31.436009
2951.000000	31.819872
2950.000000	32.263598
2949.000000	32.626960
2948.000000	32.860314
2947.000000	32.992617
2946.000000	33.091823
2945.000000	33.216804
2944.000000	33.385740
2943.000000	33.577191
2942.000000	33.759324
2941.000000	33.918035
2940.000000	34.064174
2939.000000	34.224395
2938.000000	34.427093
2937.000000	34.687377
2936.000000	34.997225
2935.000000	35.331013
2934.000000	35.662436
2933.000000	35.975263
2932.000000	36.261476
2931.000000	36.517904
2930.000000	36.747060
2929.000000	36.955259
2928.000000	37.147110
2927.000000	37.324305
2926.000000	37.490217
2925.000000	37.649858
2924.000000	37.804792
2923.000000	37.952496
2922.000000	38.091869
2921.000000	38.224350
2920.000000	38.349150
2919.000000	38.462608
2918.000000	38.563055
2917.000000	38.651982
2916.000000	38.730172
2915.000000	38.797014
2914.000000	38.854170
2913.000000	38.905311
2912.000000	38.951955
2911.000000	38.993510
2910.000000	39.031205
2909.000000	39.067910
2908.000000	39.103439
2907.000000	39.134472
2906.000000	39.158904
2905.000000	39.176481
2904.000000	39.184985
2903.000000	39.180529
2902.000000	39.161754
2901.000000	39.132269
2900.000000	39.094453
2899.000000	39.051486
2898.000000	39.010437
2897.000000	38.980664
2896.000000	38.967333
2895.000000	38.970017
2894.000000	38.987572
2893.000000	39.019591
2892.000000	39.063133
2891.000000	39.112698
2890.000000	39.164915
2889.000000	39.219680
2888.000000	39.276642
2887.000000	39.334693
2886.000000	39.395097
2885.000000	39.460940
2884.000000	39.532543
2883.000000	39.607135
2882.000000	39.683074
2881.000000	39.760326
2880.000000	39.836563
2879.000000	39.906612
2878.000000	39.966517
2877.000000	40.014376
2876.000000	40.047354
2875.000000	40.062445
2874.000000	40.061229
2873.000000	40.050199
2872.000000	40.035455
2871.000000	40.020350
2870.000000	40.008814
2869.000000	40.008029
2868.000000	40.027178
2867.000000	40.076038
2866.000000	40.163729
2865.000000	40.293317
2864.000000	40.456915
2863.000000	40.639413
2862.000000	40.827464
2861.000000	41.012430
2860.000000	41.187340
2859.000000	41.346641
2858.000000	41.489603
2857.000000	41.619581
2856.000000	41.738848
2855.000000	41.847898
2854.000000	41.948739
2853.000000	42.044546
2852.000000	42.136041
2851.000000	42.222424
2850.000000	42.305537
2849.000000	42.389129
2848.000000	42.474204
2847.000000	42.559020
2846.000000	42.643475
2845.000000	42.729091
2844.000000	42.815067
2843.000000	42.898578
2842.000000	42.979196
2841.000000	43.058969
2840.000000	43.138000
2839.000000	43.213868
2838.000000	43.285820
2837.000000	43.355980
2836.000000	43.426052
2835.000000	43.496158
2834.000000	43.566968
2833.000000	43.639574
2832.000000	43.713042
2831.000000	43.785259
2830.000000	43.856181
2829.000000	43.927276
2828.000000	43.998028
2827.000000	44.066360
2826.000000	44.132197
2825.000000	44.197204
2824.000000	44.261364
2823.000000	44.323159
2822.000000	44.382960
2821.000000	44.442677
2820.000000	44.502193
2819.000000	44.559590
2818.000000	44.614670
2817.000000	44.668787
2816.000000	44.721400
2815.000000	44.770444
2814.000000	44.816203
2813.000000	44.861341
2812.000000	44.907021
2811.000000	44.952235
2810.000000	44.996865
2809.000000	45.041964
2808.000000	45.087002
2807.000000	45.130232
2806.000000	45.171868
2805.000000	45.213661
2804.000000	45.255356
2803.000000	45.294930
2802.000000	45.332370
2801.000000	45.369991
2800.000000	45.408998
2799.000000	45.448816
2798.000000	45.489781
2797.000000	45.533192
2796.000000	45.578679
2795.000000	45.624664
2794.000000	45.671353
2793.000000	45.720234
2792.000000	45.770790
2791.000000	45.820755
2790.000000	45.869439
2789.000000	45.917708
2788.000000	45.965059
2787.000000	46.010092
2786.000000	46.053674
2785.000000	46.098409
2784.000000	46.145042
2783.000000	46.192464
2782.000000	46.240925
2781.000000	46.291879
2780.000000	46.344786
2779.000000	46.397357
2778.000000	46.448813
2777.000000	46.499764
2776.000000	46.549074
2775.000000	46.594227
2774.000000	46.634971
2773.000000	46.673673
2772.000000	46.712048
2771.000000	46.750437
2770.000000	46.789904
2769.000000	46.831744
2768.000000	46.874850
2767.000000	46.916349
2766.000000	46.954798
2765.000000	46.990137
2764.000000	47.021178
2763.000000	47.046367
2762.000000	47.066607
2761.000000	47.084333
2760.000000	47.100121
2759.000000	47.113163
2758.000000	47.124606
2757.000000	47.137152
2756.000000	47.151661
2755.000000	47.167314
2754.000000	47.184620
2753.000000	47.205040
2752.000000	47.228063
2751.000000	47.251977
2750.000000	47.277319
2749.000000	47.306400
2748.000000	47.339574
2747.000000	47.375260
2746.000000	47.413238
2745.000000	47.454415
2744.000000	47.497523
2743.000000	47.539202
2742.000000	47.577219
2741.000000	47.610705
2740.000000	47.637631
2739.000000	47.655522
2738.000000	47.664916
2737.000000	47.669470
2736.000000	47.673060
2735.000000	47.679723
2734.000000	47.695512
2733.000000	47.726151
2732.000000	47.772374
2731.000000	47.830034
2730.000000	47.894327
2729.000000	47.961352
2728.000000	48.026454
2727.000000	48.085264
2726.000000	48.137016
2725.000000	48.183917
2724.000000	48.227323
2723.000000	48.267221
2722.000000	48.304626
2721.000000	48.341037
2720.000000	48.375760
2719.000000	48.406822
2718.000000	48.434533
2717.000000	48.461387
2716.000000	48.488723
2715.000000	48.516572
2714.000000	48.546243
2713.000000	48.579697
2712.000000	48.616368
2711.000000	48.653557
2710.000000	48.689856
2709.000000	48.725487
2708.000000	48.759757
2707.000000	48.791201
2706.000000	48.819837
2705.000000	48.846411
2704.000000	48.869764
2703.000000	48.887883
2702.000000	48.901209
2701.000000	48.911882
2700.000000	48.920504
2699.000000	48.926638
2698.000000	48.931851
2697.000000	48.939061
2696.000000	48.949145
2695.000000	48.961380
2694.000000	48.976801
2693.000000	48.997872
2692.000000	49.024911
2691.000000	49.055994
2690.000000	49.089890
2689.000000	49.126109
2688.000000	49.162559
2687.000000	49.196348
2686.000000	49.226989
2685.000000	49.256077
2684.000000	49.284222
2683.000000	49.311094
2682.000000	49.337698
2681.000000	49.365276
2680.000000	49.392356
2679.000000	49.415976
2678.000000	49.435553
2677.000000	49.452946
2676.000000	49.469437
2675.000000	49.485777
2674.000000	49.504543
2673.000000	49.529117
2672.000000	49.560399
2671.000000	49.597207
2670.000000	49.639093
2669.000000	49.685597
2668.000000	49.733772
2667.000000	49.779777
2666.000000	49.822681
2665.000000	49.863743
2664.000000	49.902687
2663.000000	49.938009
2662.000000	49.970257
2661.000000	50.001509
2660.000000	50.032004
2659.000000	50.060572
2658.000000	50.087795
2657.000000	50.115565
2656.000000	50.143930
2655.000000	50.171611
2654.000000	50.199281
2653.000000	50.228882
2652.000000	50.260107
2651.000000	50.290648
2650.000000	50.319485
2649.000000	50.346763
2648.000000	50.370897
2647.000000	50.389440
2646.000000	50.402984
2645.000000	50.415244
2644.000000	50.429497
2643.000000	50.447639
2642.000000	50.471879
2641.000000	50.503872
2640.000000	50.542192
2639.000000	50.583447
2638.000000	50.625750
2637.000000	50.668391
2636.000000	50.709013
2635.000000	50.744454
2634.000000	50.773974
2633.000000	50.798642
2632.000000	50.818104
2631.000000	50.831341
2630.000000	50.840111
2629.000000	50.848682
2628.000000	50.860325
2627.000000	50.876585
2626.000000	50.899094
2625.000000	50.928504
2624.000000	50.962060
2623.000000	50.995521
2622.000000	51.027318
2621.000000	51.058073
2620.000000	51.087019
2619.000000	51.112305
2618.000000	51.134286
2617.000000	51.155044
2616.000000	51.174867
2615.000000	51.192139
2614.000000	51.206400
2613.000000	51.218409
2612.000000	51.227506
2611.000000	51.232363
2610.000000	51.233880
2609.000000	51.234488
2608.000000	51.234958
2607.000000	51.234763
2606.000000	51.235019
2605.000000	51.237688
2604.000000	51.242332
2603.000000	51.246901
2602.000000	51.251464
2601.000000	51.257969
2600.000000	51.266887
2599.000000	51.277200
2598.000000	51.289306
2597.000000	51.304750
2596.000000	51.323295
2595.000000	51.343449
2594.000000	51.365514
2593.000000	51.390819
2592.000000	51.418598
2591.000000	51.446689
2590.000000	51.474953
2589.000000	51.504731
2588.000000	51.535170
2587.000000	51.563522
2586.000000	51.588815
2585.000000	51.612157
2584.000000	51.633731
2583.000000	51.652875
2582.000000	51.671054
2581.000000	51.691678
2580.000000	51.716860
2579.000000	51.746883
2578.000000	51.782129
2577.000000	51.822524
2576.000000	51.865395
2575.000000	51.906973
2574.000000	51.945994
2573.000000	51.983215
2572.000000	52.018384
2571.000000	52.050670
2570.000000	52.081371
2569.000000	52.112858
2568.000000	52.145166
2567.000000	52.176575
2566.000000	52.207016
2565.000000	52.237835
2564.000000	52.268540
2563.000000	52.297072
2562.000000	52.322942
2561.000000	52.347153
2560.000000	52.369522
2559.000000	52.389078
2558.000000	52.406991
2557.000000	52.426071
2556.000000	52.447632
2555.000000	52.471421
2554.000000	52.498039
2553.000000	52.528384
2552.000000	52.561163
2551.000000	52.593906
2550.000000	52.626058
2549.000000	52.658501
2548.000000	52.690626
2547.000000	52.720798
2546.000000	52.749084
2545.000000	52.776692
2544.000000	52.803300
2543.000000	52.827733
2542.000000	52.850448
2541.000000	52.872252
2540.000000	52.891454
2539.000000	52.905137
2538.000000	52.912774
2537.000000	52.915803
2536.000000	52.914282
2535.000000	52.907607
2534.000000	52.897543
2533.000000	52.887601
2532.000000	52.879761
2531.000000	52.874631
2530.000000	52.874052
2529.000000	52.880118
2528.000000	52.892082
2527.000000	52.907219
2526.000000	52.924438
2525.000000	52.943874
2524.000000	52.963898
2523.000000	52.981725
2522.000000	52.996554
2521.000000	53.008982
2520.000000	53.017990
2519.000000	53.021667
2518.000000	53.020354
2517.000000	53.016054
2516.000000	53.008824
2515.000000	52.997260
2514.000000	52.981807
2513.000000	52.964519
2512.000000	52.946140
2511.000000	52.926410
2510.000000	52.907007
2509.000000	52.890917
2508.000000	52.879122
2507.000000	52.870767
2506.000000	52.866247
2505.000000	52.866977
2504.000000	52.872681
2503.000000	52.882094
2502.000000	52.895556
2501.000000	52.914298
2500.000000	52.937473
2499.000000	52.962830
2498.000000	52.989788
2497.000000	53.018510
2496.000000	53.047052
2495.000000	53.072552
2494.000000	53.094748
2493.000000	53.115298
2492.000000	53.134456
2491.000000	53.151637
2490.000000	53.168384
2489.000000	53.187339
2488.000000	53.208648
2487.000000	53.230636
2486.000000	53.253352
2485.000000	53.278272
2484.000000	53.305040
2483.000000	53.331945
2482.000000	53.359051
2481.000000	53.387690
2480.000000	53.417368
2479.000000	53.446278
2478.000000	53.474397
2477.000000	53.502847
2476.000000	53.530887
2475.000000	53.556781
2474.000000	53.581310
2473.000000	53.607350
2472.000000	53.636402
2471.000000	53.668240
2470.000000	53.703098
2469.000000	53.740898
2468.000000	53.779027
2467.000000	53.814105
2466.000000	53.845521
2465.000000	53.874387
2464.000000	53.899993
2463.000000	53.920419
2462.000000	53.935846
2461.000000	53.947990
2460.000000	53.956664
2459.000000	53.960554
2458.000000	53.960464
2457.000000	53.958859
2456.000000	53.956682
2455.000000	53.953783
2454.000000	53.952108
2453.000000	53.955121
2452.000000	53.964551
2451.000000	53.980381
2450.000000	54.003445
2449.000000	54.034361
2448.000000	54.070713
2447.000000	54.108350
2446.000000	54.144999
2445.000000	54.180059
2444.000000	54.211788
2443.000000	54.238364
2442.000000	54.261031
2441.000000	54.282988
2440.000000	54.305589
2439.000000	54.328531
2438.000000	54.352693
2437.000000	54.379395
2436.000000	54.407543
2435.000000	54.434655
2434.000000	54.460069
2433.000000	54.483966
2432.000000	54.504065
2431.000000	54.516984
2430.000000	54.522154
2429.000000	54.521434
2428.000000	54.515561
2427.000000	54.504237
2426.000000	54.489415
2425.000000	54.474596
2424.000000	54.461386
2423.000000	54.449484
2422.000000	54.439429
2421.000000	54.432237
2420.000000	54.426915
2419.000000	54.421763
2418.000000	54.417591
2417.000000	54.416763
2416.000000	54.419558
2415.000000	54.424843
2414.000000	54.433276
2413.000000	54.446252
2412.000000	54.462329
2411.000000	54.477953
2410.000000	54.491316
2409.000000	54.502295
2408.000000	54.509522
2407.000000	54.511126
2406.000000	54.508073
2405.000000	54.503374
2404.000000	54.498360
2403.000000	54.492931
2402.000000	54.488567
2401.000000	54.487540
2400.000000	54.489336
2399.000000	54.490992
2398.000000	54.490600
2397.000000	54.487070
2396.000000	54.477287
2395.000000	54.457173
2394.000000	54.425268
2393.000000	54.382926
2392.000000	54.331179
2391.000000	54.271177
2390.000000	54.206965
2389.000000	54.143929
2388.000000	54.085193
2387.000000	54.031729
2386.000000	53.985738
2385.000000	53.950200
2384.000000	53.925227
2383.000000	53.908408
2382.000000	53.897832
2381.000000	53.891612
2380.000000	53.884930
2379.000000	53.871940
2378.000000	53.850882
2377.000000	53.824382
2376.000000	53.795585
2375.000000	53.767749
2374.000000	53.747696
2373.000000	53.743167
2372.000000	53.755906
2371.000000	53.781030
2370.000000	53.813154
2369.000000	53.848743
2368.000000	53.882756
2367.000000	53.909711
2366.000000	53.928866
2365.000000	53.942725
2364.000000	53.953172
2363.000000	53.960562
2362.000000	53.966740
2361.000000	53.975860
2360.000000	53.986946
2359.000000	53.996614
2358.000000	54.004102
2357.000000	54.008880
2356.000000	54.012141
2355.000000	54.017812
2354.000000	54.031322
2353.000000	54.050840
2352.000000	54.069344
2351.000000	54.083450
2350.000000	54.093660
2349.000000	54.105710
2348.000000	54.127627
2347.000000	54.162440
2346.000000	54.206280
2345.000000	54.253553
2344.000000	54.302128
2343.000000	54.340910
2342.000000	54.357300
2341.000000	54.348006
2340.000000	54.316378
2339.000000	54.270140
2338.000000	54.220989
2337.000000	54.184246
2336.000000	54.170504
2335.000000	54.185087
2334.000000	54.225510
2333.000000	54.281759
2332.000000	54.334410
2331.000000	54.372048
2330.000000	54.393476
2329.000000	54.407904
2328.000000	54.420803
2327.000000	54.435690
2326.000000	54.457199
2325.000000	54.487153
2324.000000	54.522306
2323.000000	54.555429
2322.000000	54.583321
2321.000000	54.605936
2320.000000	54.622240
2319.000000	54.633129
2318.000000	54.641529
2317.000000	54.650576
2316.000000	54.654451
2315.000000	54.645184
2314.000000	54.617230
2313.000000	54.572123
2312.000000	54.511059
2311.000000	54.437098
2310.000000	54.353849
2309.000000	54.266121
2308.000000	54.173875
2307.000000	54.077008
2306.000000	53.977985
2305.000000	53.882742
2304.000000	53.795076
2303.000000	53.719666
2302.000000	53.663888
2301.000000	53.636564
2300.000000	53.640405
2299.000000	53.672566
2298.000000	53.727922
2297.000000	53.800014
2296.000000	53.878438
2295.000000	53.952633
2294.000000	54.016665
2293.000000	54.068844
2292.000000	54.107386
2291.000000	54.131160
2290.000000	54.142378
2289.000000	54.144436
2288.000000	54.137479
2287.000000	54.119780
2286.000000	54.091955
2285.000000	54.055293
2284.000000	54.008402
2283.000000	53.949419
2282.000000	53.882347
2281.000000	53.816610
2280.000000	53.761359
2279.000000	53.722857
2278.000000	53.705483
2277.000000	53.710621
2276.000000	53.735122
2275.000000	53.776575
2274.000000	53.838110
2273.000000	53.925073
2272.000000	54.036990
2271.000000	54.166998
2270.000000	54.307416
2269.000000	54.450838
2268.000000	54.588565
2267.000000	54.713337
2266.000000	54.823984
2265.000000	54.923554
2264.000000	55.013817
2263.000000	55.095388
2262.000000	55.171390
2261.000000	55.246043
2260.000000	55.320038
2259.000000	55.391312
2258.000000	55.459533
2257.000000	55.526085
2256.000000	55.590738
2255.000000	55.652561
2254.000000	55.713433
2253.000000	55.776870
2252.000000	55.843976
2251.000000	55.914042
2250.000000	55.987739
2249.000000	56.066462
2248.000000	56.147627
2247.000000	56.228350
2246.000000	56.307878
2245.000000	56.386378
2244.000000	56.461207
2243.000000	56.528745
2242.000000	56.588695
2241.000000	56.643177
2240.000000	56.692822
2239.000000	56.737583
2238.000000	56.779884
2237.000000	56.822736
2236.000000	56.865851
2235.000000	56.907024
2234.000000	56.946130
2233.000000	56.983821
2232.000000	57.017702
2231.000000	57.044064
2230.000000	57.062416
2229.000000	57.074591
2228.000000	57.080747
2227.000000	57.080226
2226.000000	57.075423
2225.000000	57.070485
2224.000000	57.066908
2223.000000	57.064078
2222.000000	57.063004
2221.000000	57.065617
2220.000000	57.071174
2219.000000	57.077363
2218.000000	57.084011
2217.000000	57.092093
2216.000000	57.100066
2215.000000	57.105168
2214.000000	57.107226
2213.000000	57.107458
2212.000000	57.104600
2211.000000	57.096335
2210.000000	57.083805
2209.000000	57.070995
2208.000000	57.060565
2207.000000	57.053595
2206.000000	57.051782
2205.000000	57.055418
2204.000000	57.059947
2203.000000	57.058739
2202.000000	57.049014
2201.000000	57.032547
2200.000000	57.012657
2199.000000	56.995045
2198.000000	56.989521
2197.000000	57.005393
2196.000000	57.044339
2195.000000	57.100759
2194.000000	57.167764
2193.000000	57.239242
2192.000000	57.308415
2191.000000	57.369728
2190.000000	57.422268
2189.000000	57.467758
2188.000000	57.505952
2187.000000	57.535648
2186.000000	57.558670
2185.000000	57.578900
2184.000000	57.598023
2183.000000	57.615833
2182.000000	57.633391
2181.000000	57.651907
2180.000000	57.669595
2179.000000	57.683487
2178.000000	57.693565
2177.000000	57.701559
2176.000000	57.707148
2175.000000	57.709273
2174.000000	57.709891
2173.000000	57.712483
2172.000000	57.717812
2171.000000	57.724954
2170.000000	57.735076
2169.000000	57.750126
2168.000000	57.768885
2167.000000	57.788285
2166.000000	57.807600
2165.000000	57.827642
2164.000000	57.847285
2163.000000	57.864959
2162.000000	57.882392
2161.000000	57.902953
2160.000000	57.927475
2159.000000	57.955332
2158.000000	57.987863
2157.000000	58.026388
2156.000000	58.068255
2155.000000	58.108985
2154.000000	58.147154
2153.000000	58.183152
2152.000000	58.214954
2151.000000	58.239599
2150.000000	58.257716
2149.000000	58.272378
2148.000000	58.284420
2147.000000	58.293093
2146.000000	58.299835
2145.000000	58.307051
2144.000000	58.314083
2143.000000	58.318483
2142.000000	58.320008
2141.000000	58.319503
2140.000000	58.315133
2139.000000	58.303731
2138.000000	58.284996
2137.000000	58.261025
2136.000000	58.233638
2135.000000	58.206299
2134.000000	58.186838
2133.000000	58.183605
2132.000000	58.199232
2131.000000	58.231113
2130.000000	58.276000
2129.000000	58.329863
2128.000000	58.385365
2127.000000	58.434739
2126.000000	58.474757
2125.000000	58.505413
2124.000000	58.525790
2123.000000	58.535321
2122.000000	58.537286
2121.000000	58.536595
2120.000000	58.535075
2119.000000	58.532622
2118.000000	58.531010
2117.000000	58.532158
2116.000000	58.534118
2115.000000	58.533162
2114.000000	58.528625
2113.000000	58.522124
2112.000000	58.513854
2111.000000	58.503826
2110.000000	58.495017
2109.000000	58.490887
2108.000000	58.491178
2107.000000	58.493815
2106.000000	58.499317
2105.000000	58.509424
2104.000000	58.523482
2103.000000	58.540286
2102.000000	58.561432
2101.000000	58.588531
2100.000000	58.618967
2099.000000	58.648788
2098.000000	58.677986
2097.000000	58.708538
2096.000000	58.739407
2095.000000	58.767773
2094.000000	58.793227
2093.000000	58.815615
2092.000000	58.830827
2091.000000	58.833962
2090.000000	58.825582
2089.000000	58.810848
2088.000000	58.794671
2087.000000	58.782494
2086.000000	58.782646
2085.000000	58.802072
2084.000000	58.840746
2083.000000	58.894224
2082.000000	58.959372
2081.000000	59.032931
2080.000000	59.107675
2079.000000	59.176116
2078.000000	59.236627
2077.000000	59.290622
2076.000000	59.336872
2075.000000	59.373505
2074.000000	59.402846
2073.000000	59.428815
2072.000000	59.451320
2071.000000	59.468606
2070.000000	59.482559
2069.000000	59.496690
2068.000000	59.510321
2067.000000	59.520387
2066.000000	59.527256
2065.000000	59.534087
2064.000000	59.541158
2063.000000	59.546637
2062.000000	59.551378
2061.000000	59.557205
2060.000000	59.562472
2059.000000	59.564356
2058.000000	59.564407
2057.000000	59.566513
2056.000000	59.571234
2055.000000	59.577110
2054.000000	59.585598
2053.000000	59.599687
2052.000000	59.618922
2051.000000	59.640166
2050.000000	59.662062
2049.000000	59.684953
2048.000000	59.707142
2047.000000	59.725841
2046.000000	59.741526
2045.000000	59.757185
2044.000000	59.773310
2043.000000	59.788181
2042.000000	59.802837
2041.000000	59.820775
2040.000000	59.842496
2039.000000	59.865667
2038.000000	59.889995
2037.000000	59.916402
2036.000000	59.942240
2035.000000	59.963048
2034.000000	59.979366
2033.000000	59.996438
2032.000000	60.017520
2031.000000	60.042562
2030.000000	60.072873
2029.000000	60.110915
2028.000000	60.155151
2027.000000	60.200622
2026.000000	60.244199
2025.000000	60.285690
2024.000000	60.322853
2023.000000	60.351439
2022.000000	60.370386
2021.000000	60.382781
2020.000000	60.390060
2019.000000	60.390824
2018.000000	60.387205
2017.000000	60.386966
2016.000000	60.396377
2015.000000	60.416587
2014.000000	60.447640
2013.000000	60.489506
2012.000000	60.537214
2011.000000	60.581547
2010.000000	60.617546
2009.000000	60.647136
2008.000000	60.672548
2007.000000	60.694032
2006.000000	60.714725
2005.000000	60.741455
2004.000000	60.777013
2003.000000	60.818240
2002.000000	60.862329
2001.000000	60.908876
2000.000000	60.955712
1999.000000	60.997934
1998.000000	61.033187
1997.000000	61.063076
1996.000000	61.090574
1995.000000	61.116064
1994.000000	61.137557
1993.000000	61.153940
1992.000000	61.166868
1991.000000	61.178909
1990.000000	61.191696
1989.000000	61.205969
1988.000000	61.221524
1987.000000	61.235357
1986.000000	61.243176
1985.000000	61.244593
1984.000000	61.244353
1983.000000	61.248319
1982.000000	61.258837
1981.000000	61.274598
1980.000000	61.294976
1979.000000	61.320361
1978.000000	61.348475
1977.000000	61.373956
1976.000000	61.396087
1975.000000	61.419989
1974.000000	61.449136
1973.000000	61.482340
1972.000000	61.520238
1971.000000	61.566443
1970.000000	61.619211
1969.000000	61.669627
1968.000000	61.711796
1967.000000	61.748515
1966.000000	61.783488
1965.000000	61.815354
1964.000000	61.843087
1963.000000	61.868367
1962.000000	61.888711
1961.000000	61.897360
1960.000000	61.892808
1959.000000	61.881107
1958.000000	61.865472
1957.000000	61.841619
1956.000000	61.808103
1955.000000	61.771145
1954.000000	61.735890
1953.000000	61.701742
1952.000000	61.668701
1951.000000	61.642716
1950.000000	61.628852
1949.000000	61.625791
1948.000000	61.631407
1947.000000	61.650378
1946.000000	61.687985
1945.000000	61.739105
1944.000000	61.791480
1943.000000	61.839441
1942.000000	61.887343
1941.000000	61.937558
1940.000000	61.989387
1939.000000	62.047331
1938.000000	62.114454
1937.000000	62.183987
1936.000000	62.246833
1935.000000	62.302183
1934.000000	62.353857
1933.000000	62.401244
1932.000000	62.438114
1931.000000	62.462986
1930.000000	62.480426
1929.000000	62.492051
1928.000000	62.494330
1927.000000	62.488040
1926.000000	62.482251
1925.000000	62.478380
1924.000000	62.467270
1923.000000	62.446586
1922.000000	62.431303
1921.000000	62.431392
1920.000000	62.437936
1919.000000	62.439237
1918.000000	62.436616
1917.000000	62.434892
1916.000000	62.426521
1915.000000	62.408042
1914.000000	62.394668
1913.000000	62.397192
1912.000000	62.404396
1911.000000	62.402964
1910.000000	62.400276
1909.000000	62.410728
1908.000000	62.431420
1907.000000	62.452757
1906.000000	62.481060
1905.000000	62.523292
1904.000000	62.566744
1903.000000	62.593900
1902.000000	62.608608
1901.000000	62.622743
1900.000000	62.633929
1899.000000	62.636876
1898.000000	62.643447
1897.000000	62.667325
1896.000000	62.702095
1895.000000	62.735506
1894.000000	62.775296
1893.000000	62.834289
1892.000000	62.902453
1891.000000	62.958535
1890.000000	62.998714
1889.000000	63.034657
1888.000000	63.065883
1887.000000	63.087341
1886.000000	63.113651
1885.000000	63.159786
1884.000000	63.214758
1883.000000	63.260206
1882.000000	63.299821
1881.000000	63.345883
1880.000000	63.392442
1879.000000	63.425602
1878.000000	63.448691
1877.000000	63.474806
1876.000000	63.501668
1875.000000	63.520013
1874.000000	63.537913
1873.000000	63.574528
1872.000000	63.629093
1871.000000	63.678202
1870.000000	63.703899
1869.000000	63.711387
1868.000000	63.707913
1867.000000	63.686940
1866.000000	63.658567
1865.000000	63.644154
1864.000000	63.641803
1863.000000	63.631903
1862.000000	63.612390
1861.000000	63.601924
1860.000000	63.607470
1859.000000	63.620780
1858.000000	63.645669
1857.000000	63.695053
1856.000000	63.760389
1855.000000	63.820802
1854.000000	63.873077
1853.000000	63.926954
1852.000000	63.982608
1851.000000	64.031532
1850.000000	64.078782
1849.000000	64.135045
1848.000000	64.199220
1847.000000	64.261534
1846.000000	64.318246
1845.000000	64.363351
1844.000000	64.384769
1843.000000	64.378722
1842.000000	64.354718
1841.000000	64.331319
1840.000000	64.323984
1839.000000	64.333367
1838.000000	64.350687
1837.000000	64.368351
1836.000000	64.385545
1835.000000	64.408379
1834.000000	64.448218
1833.000000	64.507428
1832.000000	64.574970
1831.000000	64.626426
1830.000000	64.650565
1829.000000	64.661988
1828.000000	64.675047
1827.000000	64.691496
1826.000000	64.707070
1825.000000	64.723076
1824.000000	64.738514
1823.000000	64.747809
1822.000000	64.756222
1821.000000	64.784108
1820.000000	64.838316
1819.000000	64.896560
1818.000000	64.941534
1817.000000	64.987013
1816.000000	65.049164
1815.000000	65.112625
1814.000000	65.158011
1813.000000	65.192668
1812.000000	65.228723
1811.000000	65.254349
1810.000000	65.260010
1809.000000	65.267326
1808.000000	65.290214
1807.000000	65.312673
1806.000000	65.329179
1805.000000	65.358256
1804.000000	65.403191
1803.000000	65.435497
1802.000000	65.436294
1801.000000	65.431906
1800.000000	65.444435
1799.000000	65.455944
1798.000000	65.453690
1797.000000	65.458259
1796.000000	65.481424
1795.000000	65.507078
1794.000000	65.516744
1793.000000	65.513710
1792.000000	65.512754
1791.000000	65.505930
1790.000000	65.483627
1789.000000	65.471984
1788.000000	65.492019
1787.000000	65.529625
1786.000000	65.563798
1785.000000	65.597407
1784.000000	65.636069
1783.000000	65.665301
1782.000000	65.670721
1781.000000	65.665422
1780.000000	65.664953
1779.000000	65.671347
1778.000000	65.680990
1777.000000	65.698538
1776.000000	65.729586
1775.000000	65.771759
1774.000000	65.816033
1773.000000	65.853568
1772.000000	65.906268
1771.000000	65.971721
1770.000000	66.003056
1769.000000	65.995467
1768.000000	66.000715
1767.000000	66.042186
1766.000000	66.090111
1765.000000	66.129492
1764.000000	66.178883
1763.000000	66.240824
1762.000000	66.275146
1761.000000	66.262822
1760.000000	66.228978
1759.000000	66.198899
1758.000000	66.169713
1757.000000	66.131325
1756.000000	66.095701
1755.000000	66.070694
1754.000000	66.031806
1753.000000	65.967877
1752.000000	65.910559
1751.000000	65.900172
1750.000000	65.924402
1749.000000	65.927125
1748.000000	65.907177
1747.000000	65.902750
1746.000000	65.912695
1745.000000	65.906438
1744.000000	65.889757
1743.000000	65.890235
1742.000000	65.895674
1741.000000	65.868887
1740.000000	65.817011
1739.000000	65.785541
1738.000000	65.777246
1737.000000	65.762856
1736.000000	65.736643
1735.000000	65.694482
1734.000000	65.656692
1733.000000	65.657345
1732.000000	65.665122
1731.000000	65.657301
1730.000000	65.652461
1729.000000	65.652935
1728.000000	65.647529
1727.000000	65.637173
1726.000000	65.622015
1725.000000	65.593597
1724.000000	65.548470
1723.000000	65.512476
1722.000000	65.510137
1721.000000	65.534649
1720.000000	65.545922
1719.000000	65.488234
1718.000000	65.356267
1717.000000	65.267091
1716.000000	65.264364
1715.000000	65.257617
1714.000000	65.219356
1713.000000	65.184128
1712.000000	65.157299
1711.000000	65.124023
1710.000000	65.091083
1709.000000	65.080747
1708.000000	65.087520
1707.000000	65.068826
1706.000000	65.013742
1705.000000	64.977050
1704.000000	64.986010
1703.000000	65.012016
1702.000000	65.043590
1701.000000	65.039582
1700.000000	64.945071
1699.000000	64.728966
1698.000000	64.432721
1697.000000	64.183531
1696.000000	64.087998
1695.000000	64.083232
1694.000000	64.037047
1693.000000	63.919041
1692.000000	63.769121
1691.000000	63.626305
1690.000000	63.490686
1689.000000	63.346207
1688.000000	63.194065
1687.000000	63.050343
1686.000000	62.929083
1685.000000	62.777393
1684.000000	62.610378
1683.000000	62.493462
1682.000000	62.345192
1681.000000	62.118674
1680.000000	61.888752
1679.000000	61.728522
1678.000000	61.633225
1677.000000	61.530794
1676.000000	61.357874
1675.000000	61.132127
1674.000000	60.899682
1673.000000	60.658190
1672.000000	60.409077
1671.000000	60.176784
1670.000000	59.960189
1669.000000	59.729250
1668.000000	59.467884
1667.000000	59.213232
1666.000000	58.994822
1665.000000	58.793208
1664.000000	58.565802
1663.000000	58.309021
1662.000000	58.055233
1661.000000	57.799033
1660.000000	57.519140
1659.000000	57.259634
1658.000000	57.068551
1657.000000	56.936009
1656.000000	56.809757
1655.000000	56.660003
1654.000000	56.405113
1653.000000	56.061977
1652.000000	55.749670
1651.000000	55.449865
1650.000000	55.119348
1649.000000	54.736982
1648.000000	54.261215
1647.000000	53.702160
1646.000000	53.148378
1645.000000	52.610203
1644.000000	52.030399
1643.000000	51.380943
1642.000000	50.673156
1641.000000	49.934690
1640.000000	49.202202
1639.000000	48.515329
1638.000000	47.896465
1637.000000	47.346533
1636.000000	46.908978
1635.000000	46.692910
1634.000000	46.673729
1633.000000	46.731909
1632.000000	46.822372
1631.000000	46.970670
1630.000000	47.207943
1629.000000	47.527839
1628.000000	47.901528
1627.000000	48.310190
1626.000000	48.748748
1625.000000	49.220068
1624.000000	49.725466
1623.000000	50.258670
1622.000000	50.778406
1621.000000	51.218108
1620.000000	51.568477
1619.000000	51.899064
1618.000000	52.306840
1617.000000	52.830517
1616.000000	53.391694
1615.000000	53.870316
1614.000000	54.238628
1613.000000	54.537777
1612.000000	54.810654
1611.000000	55.072853
1610.000000	55.314013
1609.000000	55.500164
1608.000000	55.601500
1607.000000	55.617764
1606.000000	55.552326
1605.000000	55.372501
1604.000000	55.031390
1603.000000	54.503986
1602.000000	53.759844
1601.000000	52.721152
1600.000000	51.254557
1599.000000	49.222700
1598.000000	46.521571
1597.000000	43.175015
1596.000000	39.504232
1595.000000	36.192910
1594.000000	33.984816
1593.000000	33.180527
1592.000000	33.530452
1591.000000	34.571473
1590.000000	35.948339
1589.000000	37.437528
1588.000000	38.865523
1587.000000	40.108673
1586.000000	41.139309
1585.000000	42.043354
1584.000000	42.934790
1583.000000	43.844926
1582.000000	44.683739
1581.000000	45.339352
1580.000000	45.810417
1579.000000	46.208860
1578.000000	46.638542
1577.000000	47.084045
1576.000000	47.437180
1575.000000	47.630357
1574.000000	47.667666
1573.000000	47.581219
1572.000000	47.427388
1571.000000	47.268779
1570.000000	47.143715
1569.000000	47.052284
1568.000000	46.991953
1567.000000	47.008730
1566.000000	47.143615
1565.000000	47.376115
1564.000000	47.663666
1563.000000	47.998347
1562.000000	48.405552
1561.000000	48.901328
1560.000000	49.460239
1559.000000	50.182827
1558.000000	51.077339
1557.000000	51.731643
1556.000000	52.119328
1555.000000	52.485538
1554.000000	52.937122
1553.000000	53.398658
1552.000000	53.792332
1551.000000	54.140932
1550.000000	54.502976
1549.000000	54.872719
1548.000000	55.214310
1547.000000	55.538333
1546.000000	55.885088
1545.000000	56.257703
1544.000000	56.621517
1543.000000	56.942230
1542.000000	57.210797
1541.000000	57.460271
1540.000000	57.773915
1539.000000	58.165916
1538.000000	58.507402
1537.000000	58.747906
1536.000000	58.942617
1535.000000	59.159640
1534.000000	59.427916
1533.000000	59.727079
1532.000000	59.987389
1531.000000	60.173041
1530.000000	60.338869
1529.000000	60.539322
1528.000000	60.761344
1527.000000	60.972192
1526.000000	61.164023
1525.000000	61.344366
1524.000000	61.504092
1523.000000	61.640199
1522.000000	61.781332
1521.000000	61.971264
1520.000000	62.161898
1519.000000	62.270360
1518.000000	62.301078
1517.000000	62.319006
1516.000000	62.364152
1515.000000	62.411945
1514.000000	62.440177
1513.000000	62.482811
1512.000000	62.573569
1511.000000	62.685637
1510.000000	62.767151
1509.000000	62.803929
1508.000000	62.836202
1507.000000	62.955581
1506.000000	63.219106
1505.000000	63.447259
1504.000000	63.548395
1503.000000	63.592087
1502.000000	63.655637
1501.000000	63.769685
1500.000000	63.920057
1499.000000	64.053383
1498.000000	64.126175
1497.000000	64.177681
1496.000000	64.276909
1495.000000	64.401777
1494.000000	64.494871
1493.000000	64.568646
1492.000000	64.660968
1491.000000	64.770627
1490.000000	64.879605
1489.000000	65.009507
1488.000000	65.156729
1487.000000	65.280419
1486.000000	65.378271
1485.000000	65.465485
1484.000000	65.537586
1483.000000	65.588016
1482.000000	65.616715
1481.000000	65.630755
1480.000000	65.631319
1479.000000	65.605644
1478.000000	65.531875
1477.000000	65.388709
1476.000000	65.164684
1475.000000	64.852269
1474.000000	64.453201
1473.000000	64.008127
1472.000000	63.610174
1471.000000	63.285692
1470.000000	63.003443
1469.000000	62.781873
1468.000000	62.668585
1467.000000	62.675844
1466.000000	62.779599
1465.000000	62.942301
1464.000000	63.102821
1463.000000	63.174469
1462.000000	63.116042
1461.000000	62.954120
1460.000000	62.720126
1459.000000	62.385564
1458.000000	61.852385
1457.000000	61.131191
1456.000000	60.431665
1455.000000	59.835148
1454.000000	59.247074
1453.000000	58.592007
1452.000000	57.877006
1451.000000	57.129994
1450.000000	56.307893
1449.000000	55.294332
1448.000000	54.014574
1447.000000	52.579411
1446.000000	51.297353
1445.000000	50.560317
1444.000000	50.679993
1443.000000	51.712187
1442.000000	53.369793
1441.000000	55.200576
1440.000000	56.874521
1439.000000	58.275845
1438.000000	59.396124
1437.000000	60.242808
1436.000000	60.869037
1435.000000	61.349069
1434.000000	61.760074
1433.000000	62.197655
1432.000000	62.713663
1431.000000	63.261855
1430.000000	63.750937
1429.000000	64.143953
1428.000000	64.468231
1427.000000	64.748183
1426.000000	64.984892
1425.000000	65.175799
1424.000000	65.349705
1423.000000	65.538562
1422.000000	65.737222
1421.000000	65.933257
1420.000000	66.117332
1419.000000	66.275826
1418.000000	66.380776
1417.000000	66.438666
1416.000000	66.514167
1415.000000	66.648197
1414.000000	66.813457
1413.000000	66.963201
1412.000000	67.093685
1411.000000	67.222569
1410.000000	67.338408
1409.000000	67.425605
1408.000000	67.496766
1407.000000	67.561312
1406.000000	67.599478
1405.000000	67.588878
1404.000000	67.543549
1403.000000	67.490474
1402.000000	67.430279
1401.000000	67.347864
1400.000000	67.237129
1399.000000	67.115295
1398.000000	67.002314
1397.000000	66.912047
1396.000000	66.867780
1395.000000	66.888518
1394.000000	66.928222
1393.000000	66.900341
1392.000000	66.791991
1391.000000	66.662526
1390.000000	66.565657
1389.000000	66.518499
1388.000000	66.528478
1387.000000	66.616475
1386.000000	66.782358
1385.000000	66.986377
1384.000000	67.199025
1383.000000	67.416632
1382.000000	67.639366
1381.000000	67.859178
1380.000000	68.063548
1379.000000	68.244980
1378.000000	68.399200
1377.000000	68.507982
1376.000000	68.529670
1375.000000	68.409952
1374.000000	68.085161
1373.000000	67.478316
1372.000000	66.517526
1371.000000	65.166806
1370.000000	63.421733
1369.000000	61.310432
1368.000000	58.983286
1367.000000	56.770157
1366.000000	55.089028
1365.000000	54.282014
1364.000000	54.483441
1363.000000	55.524640
1362.000000	56.959037
1361.000000	58.349178
1360.000000	59.541661
1359.000000	60.613972
1358.000000	61.671025
1357.000000	62.730007
1356.000000	63.735720
1355.000000	64.625322
1354.000000	65.372863
1353.000000	65.995090
1352.000000	66.521105
1351.000000	66.969646
1350.000000	67.358196
1349.000000	67.700467
1348.000000	68.002674
1347.000000	68.265118
1346.000000	68.488401
1345.000000	68.674296
1344.000000	68.825819
1343.000000	68.944430
1342.000000	69.032463
1341.000000	69.094635
1340.000000	69.141356
1339.000000	69.188748
1338.000000	69.242419
1337.000000	69.297811
1336.000000	69.354936
1335.000000	69.419403
1334.000000	69.494169
1333.000000	69.570996
1332.000000	69.627308
1331.000000	69.632434
1330.000000	69.560964
1329.000000	69.402953
1328.000000	69.159781
1327.000000	68.831281
1326.000000	68.409493
1325.000000	67.889193
1324.000000	67.302986
1323.000000	66.715876
1322.000000	66.168432
1321.000000	65.635381
1320.000000	65.040607
1319.000000	64.298499
1318.000000	63.348720
1317.000000	62.211742
1316.000000	61.053047
1315.000000	60.170839
1314.000000	59.842863
1313.000000	60.150469
1312.000000	60.954250
1311.000000	62.023780
1310.000000	63.179218
1309.000000	64.311578
1308.000000	65.339275
1307.000000	66.200848
1306.000000	66.877236
1305.000000	67.383769
1304.000000	67.740284
1303.000000	67.957659
1302.000000	68.046591
1301.000000	68.027345
1300.000000	67.928603
1299.000000	67.793345
1298.000000	67.675696
1297.000000	67.611674
1296.000000	67.592546
1295.000000	67.562809
1294.000000	67.430236
1293.000000	67.066068
1292.000000	66.338572
1291.000000	65.232767
1290.000000	63.962463
1289.000000	62.900971
1288.000000	62.332119
1287.000000	62.250885
1286.000000	62.420657
1285.000000	62.623940
1284.000000	62.808550
1283.000000	63.021855
1282.000000	63.302445
1281.000000	63.655945
1280.000000	64.074559
1279.000000	64.513129
1278.000000	64.861574
1277.000000	64.955931
1276.000000	64.598965
1275.000000	63.575602
1274.000000	61.785233
1273.000000	59.501080
1272.000000	57.484947
1271.000000	56.637365
1270.000000	57.376679
1269.000000	59.352751
1268.000000	61.764558
1267.000000	63.930315
1266.000000	65.573614
1265.000000	66.731919
1264.000000	67.549983
1263.000000	68.156396
1262.000000	68.636911
1261.000000	69.038271
1260.000000	69.381350
1259.000000	69.677159
1258.000000	69.937820
1257.000000	70.166407
1256.000000	70.359234
1255.000000	70.519428
1254.000000	70.657574
1253.000000	70.782038
1252.000000	70.896226
1251.000000	71.006684
1250.000000	71.122102
1249.000000	71.243128
1248.000000	71.363680
1247.000000	71.481516
1246.000000	71.597976
1245.000000	71.710166
1244.000000	71.812294
1243.000000	71.904080
1242.000000	71.989879
1241.000000	72.070674
1240.000000	72.144212
1239.000000	72.211335
1238.000000	72.275169
1237.000000	72.334306
1236.000000	72.383720
1235.000000	72.421928
1234.000000	72.449830
1233.000000	72.464195
1232.000000	72.458270
1231.000000	72.427132
1230.000000	72.367531
1229.000000	72.271497
1228.000000	72.128384
1227.000000	71.930170
1226.000000	71.667071
1225.000000	71.322872
1224.000000	70.875291
1223.000000	70.307423
1222.000000	69.613990
1221.000000	68.798006
1220.000000	67.876307
1219.000000	66.876715
1218.000000	65.823546
1217.000000	64.723562
1216.000000	63.567141
1215.000000	62.345471
1214.000000	61.058396
1213.000000	59.721699
1212.000000	58.378856
1211.000000	57.102427
1210.000000	55.970952
1209.000000	55.052945
1208.000000	54.402092
1207.000000	54.030583
1206.000000	53.877262
1205.000000	53.817183
1204.000000	53.747219
1203.000000	53.668155
1202.000000	53.676482
1201.000000	53.892796
1200.000000	54.374972
1199.000000	55.086377
1198.000000	55.926284
1197.000000	56.793564
1196.000000	57.644923
1195.000000	58.493076
1194.000000	59.367652
1193.000000	60.285193
1192.000000	61.242351
1191.000000	62.219480
1190.000000	63.183774
1189.000000	64.100756
1188.000000	64.947916
1187.000000	65.718624
1186.000000	66.412145
1185.000000	67.029741
1184.000000	67.577184
1183.000000	68.058504
1182.000000	68.471102
1181.000000	68.806326
1180.000000	69.063491
1179.000000	69.257932
1178.000000	69.408424
1177.000000	69.527451
1176.000000	69.622015
1175.000000	69.700402
1174.000000	69.771576
1173.000000	69.837854
1172.000000	69.895956
1171.000000	69.938775
1170.000000	69.952141
1169.000000	69.914112
1168.000000	69.800559
1167.000000	69.596883
1166.000000	69.302088
1165.000000	68.931061
1164.000000	68.521359
1163.000000	68.134460
1162.000000	67.841499
1161.000000	67.703434
1160.000000	67.758396
1159.000000	68.007838
1158.000000	68.409996
1157.000000	68.888847
1156.000000	69.364761
1155.000000	69.782104
1154.000000	70.112448
1153.000000	70.346527
1152.000000	70.488160
1151.000000	70.551492
1150.000000	70.550223
1149.000000	70.491141
1148.000000	70.369037
1147.000000	70.167449
1146.000000	69.857996
1145.000000	69.403362
1144.000000	68.784981
1143.000000	68.023910
1142.000000	67.177371
1141.000000	66.313790
1140.000000	65.489116
1139.000000	64.738515
1138.000000	64.070384
1137.000000	63.466044
1136.000000	62.885767
1135.000000	62.275993
1134.000000	61.584355
1133.000000	60.801496
1132.000000	60.008430
1131.000000	59.365835
1130.000000	59.039595
1129.000000	59.105299
1128.000000	59.511465
1127.000000	60.100642
1126.000000	60.663819
1125.000000	61.002762
1124.000000	60.970956
1123.000000	60.459884
1122.000000	59.337325
1121.000000	57.431936
1120.000000	54.530796
1119.000000	50.473594
1118.000000	45.322476
1117.000000	39.594880
1116.000000	34.351702
1115.000000	30.919336
1114.000000	30.242961
1113.000000	32.349393
1112.000000	36.375498
1111.000000	41.025396
1110.000000	45.170161
1109.000000	48.206310
1108.000000	50.051082
1107.000000	50.839772
1106.000000	50.608109
1105.000000	49.275950
1104.000000	47.006002
1103.000000	44.536625
1102.000000	42.971336
1101.000000	43.098413
1100.000000	44.876604
1099.000000	47.562460
1098.000000	50.318815
1097.000000	52.728282
1096.000000	54.802974
1095.000000	56.700300
1094.000000	58.489845
1093.000000	60.131770
1092.000000	61.558902
1091.000000	62.742969
1090.000000	63.704806
1089.000000	64.492110
1088.000000	65.158521
1087.000000	65.742997
1086.000000	66.275644
1085.000000	66.780949
1084.000000	67.269725
1083.000000	67.739423
1082.000000	68.180155
1081.000000	68.584114
1080.000000	68.944237
1079.000000	69.251078
1078.000000	69.500588
1077.000000	69.693896
1076.000000	69.829957
1075.000000	69.902556
1074.000000	69.902458
1073.000000	69.822253
1072.000000	69.642179
1071.000000	69.320791
1070.000000	68.799769
1069.000000	67.992982
1068.000000	66.795816
1067.000000	65.107008
1066.000000	62.901801
1065.000000	60.316706
1064.000000	57.652647
1063.000000	55.261125
1062.000000	53.333108
1061.000000	51.748745
1060.000000	50.138045
1059.000000	48.125186
1058.000000	45.583599
1057.000000	42.713543
1056.000000	39.908818
1055.000000	37.528240
1054.000000	35.804513
1053.000000	34.895097
1052.000000	34.962962
1051.000000	36.123973
1050.000000	38.267050
1049.000000	41.044827
1048.000000	44.014399
1047.000000	46.821836
1046.000000	49.289880
1045.000000	51.387983
1044.000000	53.171080
1043.000000	54.710548
1042.000000	56.052544
1041.000000	57.205296
1040.000000	58.170916
1039.000000	58.958031
1038.000000	59.586117
1037.000000	60.083000
1036.000000	60.480024
1035.000000	60.815749
1034.000000	61.123865
1033.000000	61.426145
1032.000000	61.735847
1031.000000	62.060974
1030.000000	62.403571
1029.000000	62.756660
1028.000000	63.109347
1027.000000	63.454422
1026.000000	63.789296
1025.000000	64.112728
1024.000000	64.423495
1023.000000	64.719860
1022.000000	64.997570
1021.000000	65.245959
1020.000000	65.451478
1019.000000	65.600790
1018.000000	65.675644
1017.000000	65.649546
1016.000000	65.481627
1015.000000	65.126634
1014.000000	64.542282
1013.000000	63.687621
1012.000000	62.540032
1011.000000	61.071301
1010.000000	59.210806
1009.000000	56.813810
1008.000000	53.746619
1007.000000	50.120793
1006.000000	46.494549
1005.000000	43.780247
1004.000000	42.800882
1003.000000	43.786583
1002.000000	46.210900
1001.000000	49.132422
1000.000000	51.669763
999.000000	53.237929
998.000000	53.556160
997.000000	52.663650
996.000000	51.032488
995.000000	49.511739
994.000000	48.942097
993.000000	49.677721
992.000000	51.457308
991.000000	53.683726
990.000000	55.832381
989.000000	57.655397
988.000000	59.136150
987.000000	60.338616
986.000000	61.328228
985.000000	62.152353
984.000000	62.848828
983.000000	63.441985
982.000000	63.952722
981.000000	64.399492
980.000000	64.794123
979.000000	65.144273
978.000000	65.454198
977.000000	65.729107
976.000000	65.973575
975.000000	66.191302
974.000000	66.389822
973.000000	66.578922
972.000000	66.766218
971.000000	66.954936
970.000000	67.146006
969.000000	67.339494
968.000000	67.531887
967.000000	67.716358
966.000000	67.887160
965.000000	68.041850
964.000000	68.179942
963.000000	68.302054
962.000000	68.412141
961.000000	68.517361
960.000000	68.623200
959.000000	68.731083
958.000000	68.840032
957.000000	68.948760
956.000000	69.055332
955.000000	69.156927
954.000000	69.251749
953.000000	69.339268
952.000000	69.418747
951.000000	69.490016
950.000000	69.556039
949.000000	69.622507
948.000000	69.693486
947.000000	69.768690
946.000000	69.845178
945.000000	69.918986
944.000000	69.985462
943.000000	70.040612
942.000000	70.083723
941.000000	70.117551
940.000000	70.145762
939.000000	70.172501
938.000000	70.203392
937.000000	70.243588
936.000000	70.293969
935.000000	70.351284
934.000000	70.411693
933.000000	70.471623
932.000000	70.525570
931.000000	70.567426
930.000000	70.594916
929.000000	70.610413
928.000000	70.617208
927.000000	70.617779
926.000000	70.616082
925.000000	70.616644
924.000000	70.620797
923.000000	70.626702
922.000000	70.633412
921.000000	70.641283
920.000000	70.648347
919.000000	70.651159
918.000000	70.650249
917.000000	70.650484
916.000000	70.655161
915.000000	70.664710
914.000000	70.681356
913.000000	70.708854
912.000000	70.745432
911.000000	70.782746
910.000000	70.813690
909.000000	70.835058
908.000000	70.841029
907.000000	70.820786
906.000000	70.767021
905.000000	70.677627
904.000000	70.545767
903.000000	70.361002
902.000000	70.130078
901.000000	69.893112
900.000000	69.709343
899.000000	69.619011
898.000000	69.613847
897.000000	69.632462
896.000000	69.592432
895.000000	69.449615
894.000000	69.227987
893.000000	68.962825
892.000000	68.605464
891.000000	68.042047
890.000000	67.264970
889.000000	66.513305
888.000000	66.149219
887.000000	66.359460
886.000000	66.989922
885.000000	67.694635
884.000000	68.221294
883.000000	68.520164
882.000000	68.654354
881.000000	68.688819
880.000000	68.670126
879.000000	68.644310
878.000000	68.648472
877.000000	68.695477
876.000000	68.785452
875.000000	68.918741
874.000000	69.087082
873.000000	69.267183
872.000000	69.434886
871.000000	69.578854
870.000000	69.696718
869.000000	69.789547
868.000000	69.865190
867.000000	69.936192
866.000000	70.006196
865.000000	70.065537
864.000000	70.102069
863.000000	70.110973
862.000000	70.091613
861.000000	70.044612
860.000000	69.977894
859.000000	69.907160
858.000000	69.846376
857.000000	69.802421
856.000000	69.781265
855.000000	69.790071
854.000000	69.828585
853.000000	69.884468
852.000000	69.941211
851.000000	69.985483
850.000000	70.005249
849.000000	69.989716
848.000000	69.937293
847.000000	69.859536
846.000000	69.772883
845.000000	69.691223
844.000000	69.627344
843.000000	69.593572
842.000000	69.594280
841.000000	69.621486
840.000000	69.660800
839.000000	69.698129
838.000000	69.719350
837.000000	69.710651
836.000000	69.664530
835.000000	69.584516
834.000000	69.482926
833.000000	69.376906
832.000000	69.285460
831.000000	69.222516
830.000000	69.189155
829.000000	69.175546
828.000000	69.171348
827.000000	69.169190
826.000000	69.158564
825.000000	69.124698
824.000000	69.056924
823.000000	68.952968
822.000000	68.815625
821.000000	68.651403
820.000000	68.473390
819.000000	68.296811
818.000000	68.129061
817.000000	67.969410
816.000000	67.814951
815.000000	67.657721
814.000000	67.473283
813.000000	67.209225
812.000000	66.785846
811.000000	66.106098
810.000000	65.106770
809.000000	63.844527
808.000000	62.542411
807.000000	61.507643
806.000000	60.961223
805.000000	60.926508
804.000000	61.265768
803.000000	61.799655
802.000000	62.380549
801.000000	62.905130
800.000000	63.306289
799.000000	63.550070
798.000000	63.628382
797.000000	63.547094
796.000000	63.323086
795.000000	62.984639
794.000000	62.567093
793.000000	62.105025
792.000000	61.638057
791.000000	61.212836
790.000000	60.871277
789.000000	60.635962
788.000000	60.510935
787.000000	60.487502
786.000000	60.544606
785.000000	60.652441
784.000000	60.783302
783.000000	60.920214
782.000000	61.050272
781.000000	61.159120
780.000000	61.237251
779.000000	61.287382
778.000000	61.320515
777.000000	61.347830
776.000000	61.378549
775.000000	61.417541
774.000000	61.459742
773.000000	61.492413
772.000000	61.510525
771.000000	61.526304
770.000000	61.559799
769.000000	61.623556
768.000000	61.719760
767.000000	61.845507
766.000000	61.995515
765.000000	62.165515
764.000000	62.357869
763.000000	62.580204
762.000000	62.832435
761.000000	63.098273
760.000000	63.352736
759.000000	63.575042
758.000000	63.752143
757.000000	63.877117
756.000000	63.952629
755.000000	63.993595
754.000000	64.020712
753.000000	64.050804
752.000000	64.095571
751.000000	64.163030
750.000000	64.252938
749.000000	64.352926
748.000000	64.443988
747.000000	64.509217
746.000000	64.536758
745.000000	64.520230
744.000000	64.462242
743.000000	64.374983
742.000000	64.273651
741.000000	64.171702
740.000000	64.083321
739.000000	64.023544
738.000000	63.999020
737.000000	64.000832
736.000000	64.009787
735.000000	64.005425
734.000000	63.967131
733.000000	63.873622
732.000000	63.709044
731.000000	63.469130
730.000000	63.157727
729.000000	62.782172
728.000000	62.358053
727.000000	61.914771
726.000000	61.492251
725.000000	61.135032
724.000000	60.886772
723.000000	60.775376
722.000000	60.792575
721.000000	60.888710
720.000000	60.994148
719.000000	61.051038
718.000000	61.032165
717.000000	60.942590
716.000000	60.813569
715.000000	60.690351
714.000000	60.612711
713.000000	60.600368
712.000000	60.652901
711.000000	60.757307
710.000000	60.893671
709.000000	61.040442
708.000000	61.183203
707.000000	61.319940
706.000000	61.454296
705.000000	61.588170
704.000000	61.720675
703.000000	61.850424
702.000000	61.976092
701.000000	62.096180
700.000000	62.209237
699.000000	62.314937
698.000000	62.412526
697.000000	62.500633
696.000000	62.579432
695.000000	62.650100
694.000000	62.712730
693.000000	62.765035
692.000000	62.804755
691.000000	62.831865
690.000000	62.846694
689.000000	62.849855
688.000000	62.844126
687.000000	62.834468
686.000000	62.827551
685.000000	62.830172
684.000000	62.846104
683.000000	62.875061
682.000000	62.913994
681.000000	62.958128
680.000000	62.998186
679.000000	63.022646
678.000000	63.023508
677.000000	63.000639
676.000000	62.962171
675.000000	62.916457
674.000000	62.880105
673.000000	62.876450
672.000000	62.909554
671.000000	62.948034
670.000000	62.965903
669.000000	62.948940
668.000000	62.881859
667.000000	62.889141
666.000000	63.034329
665.000000	63.151822
664.000000	63.170321
663.000000	63.129436
662.000000	63.084543
661.000000	63.056982
660.000000	63.052862
659.000000	63.085808
658.000000	63.159336
657.000000	63.253710
656.000000	63.347968
655.000000	63.428977
654.000000	63.481578
653.000000	63.490929
652.000000	63.459096
651.000000	63.405632
650.000000	63.348543
649.000000	63.295816
648.000000	63.258265
647.000000	63.254590
646.000000	63.293648
645.000000	63.364637
644.000000	63.447537
643.000000	63.523857
642.000000	63.575799
641.000000	63.585475
640.000000	63.548277
639.000000	63.478021
638.000000	63.394820
637.000000	63.315378
636.000000	63.258038
635.000000	63.242422
634.000000	63.274157
633.000000	63.339849
632.000000	63.422212
631.000000	63.506800
630.000000	63.573963
629.000000	63.601010
628.000000	63.579410
627.000000	63.521645
626.000000	63.446726
625.000000	63.370045
624.000000	63.305987
623.000000	63.271630
622.000000	63.276983
621.000000	63.316409
620.000000	63.376382
619.000000	63.438916
618.000000	63.478379
617.000000	63.471176
616.000000	63.414804
615.000000	63.327056
614.000000	63.226081
613.000000	63.120872
612.000000	63.021484
611.000000	62.940397
610.000000	62.882025
609.000000	62.838706
608.000000	62.798137
607.000000	62.747691
606.000000	62.666165
605.000000	62.529559
604.000000	62.326152
603.000000	62.061569
602.000000	61.746528
601.000000	61.389999
600.000000	61.001540
599.000000	60.595594
598.000000	60.176133
597.000000	59.724233
596.000000	59.209830
595.000000	58.596749
594.000000	57.807194
593.000000	56.681645
592.000000	55.003747
591.000000	52.660140
590.000000	49.862450
589.000000	47.225249
588.000000	45.534370
587.000000	45.285576
586.000000	46.316200
585.000000	47.911929
584.000000	49.357440
583.000000	50.346916
582.000000	50.923646
581.000000	51.231955
580.000000	51.402737
579.000000	51.556204
578.000000	51.766534
577.000000	52.034351
576.000000	52.340326
575.000000	52.688344
574.000000	53.066043
573.000000	53.422763
572.000000	53.731566
571.000000	54.027955
570.000000	54.359961
569.000000	54.733341
568.000000	55.137943
567.000000	55.571146
566.000000	56.002423
565.000000	56.367985
564.000000	56.628852
563.000000	56.803297
562.000000	56.916220
561.000000	56.968403
560.000000	56.977103
559.000000	56.990752
558.000000	57.030340
557.000000	57.067804
556.000000	57.088878
555.000000	57.133878
554.000000	57.245521
553.000000	57.421164
552.000000	57.644880
551.000000	57.919372
550.000000	58.233343
549.000000	58.542591
548.000000	58.818392
547.000000	59.074449
546.000000	59.322809
545.000000	59.541743
544.000000	59.717486
543.000000	59.872936
542.000000	60.028742
541.000000	60.175160
540.000000	60.307460
539.000000	60.447593
538.000000	60.602112
537.000000	60.742467
536.000000	60.848908
535.000000	60.942198
534.000000	61.034951
533.000000	61.114077
532.000000	61.166488
531.000000	61.200918
530.000000	61.225337
529.000000	61.228668
528.000000	61.196647
527.000000	61.137332
526.000000	61.057745
525.000000	60.935549
524.000000	60.754742
523.000000	60.521630
522.000000	60.234356
521.000000	59.863689
520.000000	59.377675
519.000000	58.753261
518.000000	57.952113
517.000000	56.944221
516.000000	55.786819
515.000000	54.635593
514.000000	53.653155
513.000000	52.950973
512.000000	52.596344
511.000000	52.622866
510.000000	52.997593
509.000000	53.631435
508.000000	54.435349
507.000000	55.336851
506.000000	56.246616
505.000000	57.072652
504.000000	57.787796
503.000000	58.431692
502.000000	59.035185
501.000000	59.585093
500.000000	60.068785
499.000000	60.517046
498.000000	60.962240
497.000000	61.397990
496.000000	61.798099
495.000000	62.142995
494.000000	62.423511
493.000000	62.626162
492.000000	62.742969
491.000000	62.803934
490.000000	62.848685
489.000000	62.902397
488.000000	62.972996
487.000000	63.069019
486.000000	63.189816
485.000000	63.294896
484.000000	63.314004
483.000000	63.184796
482.000000	62.858528
481.000000	62.274850
480.000000	61.381682
479.000000	60.186954
478.000000	58.743624
477.000000	57.163418
476.000000	55.670704
475.000000	54.591040
474.000000	54.190362
473.000000	54.526804
472.000000	55.424245
471.000000	56.590658
470.000000	57.767213
469.000000	58.795486
468.000000	59.623559
467.000000	60.280229
466.000000	60.798520
465.000000	61.188366
464.000000	61.461496
463.000000	61.656132
462.000000	61.829381
461.000000	62.025718
460.000000	62.296246
459.000000	62.699517
458.000000	63.220087
457.000000	63.739869
456.000000	64.150489
455.000000	64.450796
454.000000	64.680741
453.000000	64.849976
452.000000	64.981685
451.000000	65.152173
450.000000	65.394099
449.000000	65.661576
448.000000	65.897757
447.000000	66.085400
446.000000	66.201536
445.000000	66.213238
444.000000	66.121763
443.000000	65.978615
442.000000	65.846649
441.000000	65.761894
440.000000	65.765824
439.000000	65.893883
438.000000	66.126109
437.000000	66.394847
436.000000	66.655786
435.000000	66.904079
434.000000	67.118648
433.000000	67.256385
432.000000	67.301829
431.000000	67.268682
430.000000	67.178711
429.000000	67.047790
428.000000	66.909811
427.000000	66.837368
426.000000	66.883936
425.000000	67.020666
424.000000	67.175309
423.000000	67.333278
422.000000	67.511415
421.000000	67.670442
420.000000	67.718422
419.000000	67.686028
418.000000	67.742527
417.000000	67.831213
416.000000	67.855474
415.000000	67.871883
414.000000	67.949703
413.000000	68.089882
412.000000	68.270004
411.000000	68.477538
410.000000	68.711269
409.000000	68.901702
408.000000	68.946607
407.000000	68.833075
406.000000	68.649241
405.000000	68.498335
404.000000	68.469002
403.000000	68.626230
402.000000	68.937326
401.000000	69.277379
400.000000	69.492432
