PE IR       SUBTECH     SPECTRUM    ASCII       PEDS        4.00        
   -1
23ms174_cis.asc
24/10/17
15:01:55.00
24/10/17
15:01:55.00
Administrator
Sample 1285 By Administrator Date Thursday, October 17 2024
400.000000
#HDR
-1
-1
#GR
cm-1
%T
1.0
0.0
4000.000000
-1.000000
3601
8
93.355500
47.401219
#DATA
4000.000000	84.805953
3999.000000	84.800118
3998.000000	84.797201
3997.000000	84.795809
3996.000000	84.793679
3995.000000	84.790178
3994.000000	84.786880
3993.000000	84.785368
3992.000000	84.785060
3991.000000	84.784067
3990.000000	84.781858
3989.000000	84.780040
3988.000000	84.780563
3987.000000	84.784223
3986.000000	84.791030
3985.000000	84.800704
3984.000000	84.812266
3983.000000	84.823955
3982.000000	84.834410
3981.000000	84.843687
3980.000000	84.853088
3979.000000	84.863990
3978.000000	84.876979
3977.000000	84.891913
3976.000000	84.908449
3975.000000	84.925699
3974.000000	84.942421
3973.000000	84.958415
3972.000000	84.974633
3971.000000	84.991844
3970.000000	85.009335
3969.000000	85.026100
3968.000000	85.041506
3967.000000	85.055589
3966.000000	85.069104
3965.000000	85.083346
3964.000000	85.099719
3963.000000	85.118685
3962.000000	85.139769
3961.000000	85.162594
3960.000000	85.186900
3959.000000	85.211837
3958.000000	85.235781
3957.000000	85.258570
3956.000000	85.280664
3955.000000	85.301765
3954.000000	85.321063
3953.000000	85.337745
3952.000000	85.352144
3951.000000	85.365320
3950.000000	85.379705
3949.000000	85.397613
3948.000000	85.419277
3947.000000	85.444605
3946.000000	85.473241
3945.000000	85.501184
3944.000000	85.521175
3943.000000	85.529845
3942.000000	85.533355
3941.000000	85.541111
3940.000000	85.555941
3939.000000	85.573875
3938.000000	85.589303
3937.000000	85.602549
3936.000000	85.618805
3935.000000	85.640507
3934.000000	85.664866
3933.000000	85.687190
3932.000000	85.706985
3931.000000	85.724359
3930.000000	85.736501
3929.000000	85.742995
3928.000000	85.748501
3927.000000	85.757423
3926.000000	85.764483
3925.000000	85.763060
3924.000000	85.759166
3923.000000	85.762952
3922.000000	85.773124
3921.000000	85.781307
3920.000000	85.786093
3919.000000	85.794847
3918.000000	85.808951
3917.000000	85.821488
3916.000000	85.828687
3915.000000	85.833372
3914.000000	85.837561
3913.000000	85.841442
3912.000000	85.846131
3911.000000	85.856783
3910.000000	85.873047
3909.000000	85.893576
3908.000000	85.917758
3907.000000	85.942657
3906.000000	85.959111
3905.000000	85.956419
3904.000000	85.942427
3903.000000	85.939027
3902.000000	85.956694
3901.000000	85.985749
3900.000000	86.008972
3899.000000	86.021438
3898.000000	86.031374
3897.000000	86.044009
3896.000000	86.058325
3895.000000	86.076415
3894.000000	86.099571
3893.000000	86.127160
3892.000000	86.148644
3891.000000	86.156174
3890.000000	86.154735
3889.000000	86.162850
3888.000000	86.192967
3887.000000	86.231204
3886.000000	86.254510
3885.000000	86.265064
3884.000000	86.278330
3883.000000	86.297477
3882.000000	86.310688
3881.000000	86.307706
3880.000000	86.296129
3879.000000	86.291090
3878.000000	86.299628
3877.000000	86.321763
3876.000000	86.344255
3875.000000	86.345180
3874.000000	86.324226
3873.000000	86.312738
3872.000000	86.333819
3871.000000	86.366048
3870.000000	86.378312
3869.000000	86.381186
3868.000000	86.398782
3867.000000	86.430796
3866.000000	86.450513
3865.000000	86.443312
3864.000000	86.430114
3863.000000	86.431271
3862.000000	86.441669
3861.000000	86.460135
3860.000000	86.486114
3859.000000	86.519319
3858.000000	86.563665
3857.000000	86.627804
3856.000000	86.697695
3855.000000	86.717802
3854.000000	86.685937
3853.000000	86.685347
3852.000000	86.725061
3851.000000	86.740230
3850.000000	86.711206
3849.000000	86.665254
3848.000000	86.631682
3847.000000	86.622863
3846.000000	86.632094
3845.000000	86.649922
3844.000000	86.667092
3843.000000	86.676792
3842.000000	86.685671
3841.000000	86.707310
3840.000000	86.732264
3839.000000	86.750506
3838.000000	86.768495
3837.000000	86.789923
3836.000000	86.804496
3835.000000	86.805715
3834.000000	86.803145
3833.000000	86.804190
3832.000000	86.804400
3831.000000	86.803755
3830.000000	86.809388
3829.000000	86.826579
3828.000000	86.849041
3827.000000	86.862071
3826.000000	86.860381
3825.000000	86.863975
3824.000000	86.891050
3823.000000	86.930004
3822.000000	86.949356
3821.000000	86.943992
3820.000000	86.940877
3819.000000	86.961461
3818.000000	87.004926
3817.000000	87.040616
3816.000000	87.048702
3815.000000	87.049383
3814.000000	87.061703
3813.000000	87.072369
3812.000000	87.064652
3811.000000	87.048387
3810.000000	87.049932
3809.000000	87.077924
3808.000000	87.110890
3807.000000	87.127108
3806.000000	87.132034
3805.000000	87.147900
3804.000000	87.183910
3803.000000	87.222583
3802.000000	87.231895
3801.000000	87.221467
3800.000000	87.219507
3799.000000	87.225834
3798.000000	87.229465
3797.000000	87.222563
3796.000000	87.213528
3795.000000	87.216898
3794.000000	87.235711
3793.000000	87.256579
3792.000000	87.270106
3791.000000	87.280345
3790.000000	87.292373
3789.000000	87.304006
3788.000000	87.313315
3787.000000	87.323259
3786.000000	87.335861
3785.000000	87.346386
3784.000000	87.351702
3783.000000	87.359174
3782.000000	87.374365
3781.000000	87.390114
3780.000000	87.395361
3779.000000	87.394804
3778.000000	87.401594
3777.000000	87.420249
3776.000000	87.439793
3775.000000	87.449512
3774.000000	87.453363
3773.000000	87.463767
3772.000000	87.481181
3771.000000	87.493515
3770.000000	87.498445
3769.000000	87.507394
3768.000000	87.525987
3767.000000	87.550471
3766.000000	87.571288
3765.000000	87.580374
3764.000000	87.584938
3763.000000	87.600611
3762.000000	87.626885
3761.000000	87.646414
3760.000000	87.652972
3759.000000	87.664705
3758.000000	87.686726
3757.000000	87.709602
3756.000000	87.735152
3755.000000	87.772005
3754.000000	87.814836
3753.000000	87.841118
3752.000000	87.851064
3751.000000	87.877258
3750.000000	87.921214
3749.000000	87.946623
3748.000000	87.951925
3747.000000	87.976186
3746.000000	88.017469
3745.000000	88.035751
3744.000000	88.042880
3743.000000	88.060414
3742.000000	88.066511
3741.000000	88.050045
3740.000000	88.026950
3739.000000	88.028034
3738.000000	88.059566
3737.000000	88.092681
3736.000000	88.106217
3735.000000	88.108690
3734.000000	88.121718
3733.000000	88.146622
3732.000000	88.168248
3731.000000	88.175735
3730.000000	88.173170
3729.000000	88.176417
3728.000000	88.189232
3727.000000	88.197637
3726.000000	88.198870
3725.000000	88.203514
3724.000000	88.213602
3723.000000	88.219580
3722.000000	88.219327
3721.000000	88.221959
3720.000000	88.233562
3719.000000	88.255029
3718.000000	88.276251
3717.000000	88.292360
3716.000000	88.312326
3715.000000	88.340108
3714.000000	88.366414
3713.000000	88.379859
3712.000000	88.385833
3711.000000	88.398867
3710.000000	88.421316
3709.000000	88.449642
3708.000000	88.476583
3707.000000	88.495737
3706.000000	88.510619
3705.000000	88.528040
3704.000000	88.547698
3703.000000	88.561394
3702.000000	88.567928
3701.000000	88.575217
3700.000000	88.587647
3699.000000	88.605147
3698.000000	88.623786
3697.000000	88.637732
3696.000000	88.650485
3695.000000	88.669480
3694.000000	88.693376
3693.000000	88.715722
3692.000000	88.730855
3691.000000	88.738572
3690.000000	88.747715
3689.000000	88.774999
3688.000000	88.816729
3687.000000	88.844540
3686.000000	88.845309
3685.000000	88.829392
3684.000000	88.810418
3683.000000	88.802129
3682.000000	88.814706
3681.000000	88.838950
3680.000000	88.858067
3679.000000	88.871693
3678.000000	88.897939
3677.000000	88.928256
3676.000000	88.940820
3675.000000	88.947352
3674.000000	88.958255
3673.000000	88.974719
3672.000000	88.996788
3671.000000	89.005900
3670.000000	88.998429
3669.000000	88.998990
3668.000000	89.012019
3667.000000	89.021860
3666.000000	89.021208
3665.000000	89.014430
3664.000000	89.010544
3663.000000	89.016999
3662.000000	89.029151
3661.000000	89.036841
3660.000000	89.042606
3659.000000	89.054365
3658.000000	89.072834
3657.000000	89.087243
3656.000000	89.095662
3655.000000	89.105234
3654.000000	89.119930
3653.000000	89.139359
3652.000000	89.152261
3651.000000	89.142822
3650.000000	89.123643
3649.000000	89.127738
3648.000000	89.156842
3647.000000	89.183916
3646.000000	89.191465
3645.000000	89.185109
3644.000000	89.178246
3643.000000	89.177170
3642.000000	89.177527
3641.000000	89.178608
3640.000000	89.184248
3639.000000	89.191588
3638.000000	89.194951
3637.000000	89.195752
3636.000000	89.202146
3635.000000	89.211163
3634.000000	89.212222
3633.000000	89.207706
3632.000000	89.211610
3631.000000	89.221995
3630.000000	89.214578
3629.000000	89.194802
3628.000000	89.194830
3627.000000	89.207099
3626.000000	89.202115
3625.000000	89.174919
3624.000000	89.139456
3623.000000	89.111297
3622.000000	89.093990
3621.000000	89.074201
3620.000000	89.038960
3619.000000	88.993419
3618.000000	88.948649
3617.000000	88.908474
3616.000000	88.873530
3615.000000	88.836752
3614.000000	88.788599
3613.000000	88.733066
3612.000000	88.684489
3611.000000	88.649404
3610.000000	88.621022
3609.000000	88.589264
3608.000000	88.549937
3607.000000	88.504659
3606.000000	88.454956
3605.000000	88.402409
3604.000000	88.349171
3603.000000	88.295053
3602.000000	88.241137
3601.000000	88.190656
3600.000000	88.148107
3599.000000	88.112154
3598.000000	88.075600
3597.000000	88.033597
3596.000000	87.988671
3595.000000	87.940703
3594.000000	87.889989
3593.000000	87.840110
3592.000000	87.794253
3591.000000	87.754912
3590.000000	87.721385
3589.000000	87.690555
3588.000000	87.663765
3587.000000	87.647169
3586.000000	87.639711
3585.000000	87.632050
3584.000000	87.615589
3583.000000	87.587489
3582.000000	87.551452
3581.000000	87.513250
3580.000000	87.476401
3579.000000	87.439607
3578.000000	87.401722
3577.000000	87.364798
3576.000000	87.331188
3575.000000	87.300167
3574.000000	87.268810
3573.000000	87.236726
3572.000000	87.203677
3571.000000	87.169037
3570.000000	87.131493
3569.000000	87.087673
3568.000000	87.035848
3567.000000	86.981376
3566.000000	86.930371
3565.000000	86.882017
3564.000000	86.833025
3563.000000	86.781498
3562.000000	86.726968
3561.000000	86.669941
3560.000000	86.610496
3559.000000	86.548209
3558.000000	86.482999
3557.000000	86.416059
3556.000000	86.348147
3555.000000	86.278612
3554.000000	86.205877
3553.000000	86.130585
3552.000000	86.055626
3551.000000	85.981774
3550.000000	85.906493
3549.000000	85.827174
3548.000000	85.743349
3547.000000	85.656375
3546.000000	85.566612
3545.000000	85.473014
3544.000000	85.374283
3543.000000	85.269456
3542.000000	85.158298
3541.000000	85.042501
3540.000000	84.924317
3539.000000	84.804088
3538.000000	84.679980
3537.000000	84.550337
3536.000000	84.414893
3535.000000	84.272106
3534.000000	84.120635
3533.000000	83.960795
3532.000000	83.794248
3531.000000	83.620942
3530.000000	83.438913
3529.000000	83.247745
3528.000000	83.049788
3527.000000	82.847636
3526.000000	82.641333
3525.000000	82.428541
3524.000000	82.205532
3523.000000	81.968425
3522.000000	81.715527
3521.000000	81.449498
3520.000000	81.174549
3519.000000	80.891752
3518.000000	80.600033
3517.000000	80.300436
3516.000000	79.995684
3515.000000	79.685085
3514.000000	79.365197
3513.000000	79.033423
3512.000000	78.687843
3511.000000	78.325612
3510.000000	77.946257
3509.000000	77.555238
3508.000000	77.159743
3507.000000	76.760815
3506.000000	76.352937
3505.000000	75.931788
3504.000000	75.499193
3503.000000	75.059385
3502.000000	74.613942
3501.000000	74.162713
3500.000000	73.705882
3499.000000	73.242510
3498.000000	72.769988
3497.000000	72.287371
3496.000000	71.797269
3495.000000	71.303162
3494.000000	70.807714
3493.000000	70.313800
3492.000000	69.823439
3491.000000	69.335630
3490.000000	68.848650
3489.000000	68.364531
3488.000000	67.888490
3487.000000	67.423876
3486.000000	66.970125
3485.000000	66.524934
3484.000000	66.085498
3483.000000	65.648926
3482.000000	65.215999
3481.000000	64.793299
3480.000000	64.386834
3479.000000	63.993828
3478.000000	63.605066
3477.000000	63.214679
3476.000000	62.823195
3475.000000	62.432307
3474.000000	62.041919
3473.000000	61.653500
3472.000000	61.271939
3471.000000	60.902963
3470.000000	60.552770
3469.000000	60.229308
3468.000000	59.939801
3467.000000	59.687428
3466.000000	59.473236
3465.000000	59.300882
3464.000000	59.175416
3463.000000	59.099355
3462.000000	59.074350
3461.000000	59.103437
3460.000000	59.187408
3459.000000	59.319392
3458.000000	59.487531
3457.000000	59.682761
3456.000000	59.898954
3455.000000	60.127592
3454.000000	60.357477
3453.000000	60.577773
3452.000000	60.778981
3451.000000	60.951208
3450.000000	61.084201
3449.000000	61.170106
3448.000000	61.203937
3447.000000	61.182556
3446.000000	61.106598
3445.000000	60.980370
3444.000000	60.808420
3443.000000	60.594266
3442.000000	60.343520
3441.000000	60.068056
3440.000000	59.782761
3439.000000	59.499819
3438.000000	59.229629
3437.000000	58.983685
3436.000000	58.772039
3435.000000	58.598493
3434.000000	58.462104
3433.000000	58.363097
3432.000000	58.306707
3431.000000	58.299852
3430.000000	58.347675
3429.000000	58.453886
3428.000000	58.619788
3427.000000	58.845251
3426.000000	59.129831
3425.000000	59.473765
3424.000000	59.877015
3423.000000	60.335449
3422.000000	60.842863
3421.000000	61.393510
3420.000000	61.980673
3419.000000	62.595154
3418.000000	63.226314
3417.000000	63.866264
3416.000000	64.510477
3415.000000	65.155087
3414.000000	65.795991
3413.000000	66.428913
3412.000000	67.048707
3411.000000	67.649823
3410.000000	68.228964
3409.000000	68.786086
3408.000000	69.321357
3407.000000	69.831782
3406.000000	70.313627
3405.000000	70.767542
3404.000000	71.198613
3403.000000	71.612797
3402.000000	72.014528
3401.000000	72.405517
3400.000000	72.783232
3399.000000	73.141068
3398.000000	73.474396
3397.000000	73.785956
3396.000000	74.082511
3395.000000	74.368724
3394.000000	74.646328
3393.000000	74.917515
3392.000000	75.184297
3391.000000	75.444809
3390.000000	75.695213
3389.000000	75.934889
3388.000000	76.167190
3387.000000	76.395159
3386.000000	76.619278
3385.000000	76.839631
3384.000000	77.056794
3383.000000	77.270530
3382.000000	77.480335
3381.000000	77.687038
3380.000000	77.892026
3379.000000	78.095200
3378.000000	78.296109
3377.000000	78.496053
3376.000000	78.696005
3375.000000	78.893763
3374.000000	79.086281
3373.000000	79.274534
3372.000000	79.462910
3371.000000	79.653850
3370.000000	79.845768
3369.000000	80.035637
3368.000000	80.220992
3367.000000	80.399981
3366.000000	80.572232
3365.000000	80.740030
3364.000000	80.906821
3363.000000	81.074500
3362.000000	81.243208
3361.000000	81.412461
3360.000000	81.580665
3359.000000	81.744647
3358.000000	81.902108
3357.000000	82.054110
3356.000000	82.203164
3355.000000	82.350225
3354.000000	82.495778
3353.000000	82.642493
3352.000000	82.793269
3351.000000	82.946481
3350.000000	83.096027
3349.000000	83.236819
3348.000000	83.368470
3347.000000	83.494074
3346.000000	83.617390
3345.000000	83.741047
3344.000000	83.865268
3343.000000	83.987590
3342.000000	84.105940
3341.000000	84.221748
3340.000000	84.338124
3339.000000	84.455125
3338.000000	84.568670
3337.000000	84.674618
3336.000000	84.771927
3335.000000	84.861770
3334.000000	84.945635
3333.000000	85.024602
3332.000000	85.099084
3331.000000	85.168022
3330.000000	85.229475
3329.000000	85.282828
3328.000000	85.329093
3327.000000	85.368777
3326.000000	85.399720
3325.000000	85.417468
3324.000000	85.417941
3323.000000	85.398996
3322.000000	85.361129
3321.000000	85.306100
3320.000000	85.233932
3319.000000	85.142214
3318.000000	85.027279
3317.000000	84.886327
3316.000000	84.716641
3315.000000	84.513225
3314.000000	84.270317
3313.000000	83.983157
3312.000000	83.648588
3311.000000	83.264000
3310.000000	82.825667
3309.000000	82.331202
3308.000000	81.778773
3307.000000	81.166025
3306.000000	80.489976
3305.000000	79.745298
3304.000000	78.926402
3303.000000	78.027615
3302.000000	77.045671
3301.000000	75.981079
3300.000000	74.834221
3299.000000	73.606960
3298.000000	72.307476
3297.000000	70.953899
3296.000000	69.572182
3295.000000	68.190166
3294.000000	66.837293
3293.000000	65.545061
3292.000000	64.339709
3291.000000	63.232932
3290.000000	62.222626
3289.000000	61.297770
3288.000000	60.441501
3287.000000	59.632541
3286.000000	58.849034
3285.000000	58.076999
3284.000000	57.311013
3283.000000	56.553119
3282.000000	55.815780
3281.000000	55.122081
3280.000000	54.501794
3279.000000	53.983701
3278.000000	53.594428
3277.000000	53.359677
3276.000000	53.295016
3275.000000	53.400084
3274.000000	53.659804
3273.000000	54.048274
3272.000000	54.530412
3271.000000	55.058160
3270.000000	55.576975
3269.000000	56.036832
3268.000000	56.396985
3267.000000	56.626745
3266.000000	56.708770
3265.000000	56.641008
3264.000000	56.434531
3263.000000	56.111273
3262.000000	55.701679
3261.000000	55.246015
3260.000000	54.787892
3259.000000	54.366252
3258.000000	54.014912
3257.000000	53.762049
3256.000000	53.624296
3255.000000	53.602189
3254.000000	53.684036
3253.000000	53.851411
3252.000000	54.082808
3251.000000	54.352582
3250.000000	54.636085
3249.000000	54.916320
3248.000000	55.180959
3247.000000	55.418708
3246.000000	55.620451
3245.000000	55.784015
3244.000000	55.914153
3243.000000	56.018228
3242.000000	56.103159
3241.000000	56.174576
3240.000000	56.234355
3239.000000	56.278929
3238.000000	56.304487
3237.000000	56.311515
3236.000000	56.304197
3235.000000	56.287188
3234.000000	56.263502
3233.000000	56.234180
3232.000000	56.195940
3231.000000	56.141672
3230.000000	56.065978
3229.000000	55.967361
3228.000000	55.844955
3227.000000	55.695214
3226.000000	55.514763
3225.000000	55.304102
3224.000000	55.064591
3223.000000	54.796248
3222.000000	54.500540
3221.000000	54.183394
3220.000000	53.852596
3219.000000	53.513183
3218.000000	53.168927
3217.000000	52.824127
3216.000000	52.480856
3215.000000	52.137283
3214.000000	51.791017
3213.000000	51.442184
3212.000000	51.090438
3211.000000	50.732705
3210.000000	50.367444
3209.000000	49.998479
3208.000000	49.631996
3207.000000	49.272636
3206.000000	48.925713
3205.000000	48.599404
3204.000000	48.302045
3203.000000	48.038935
3202.000000	47.814588
3201.000000	47.635593
3200.000000	47.506479
3199.000000	47.428155
3198.000000	47.401219
3197.000000	47.427883
3196.000000	47.508924
3195.000000	47.639299
3194.000000	47.813226
3193.000000	48.027624
3192.000000	48.278594
3191.000000	48.560439
3190.000000	48.867887
3189.000000	49.198659
3188.000000	49.549869
3187.000000	49.915133
3186.000000	50.289400
3185.000000	50.671333
3184.000000	51.059450
3183.000000	51.449205
3182.000000	51.836541
3181.000000	52.221140
3180.000000	52.602906
3179.000000	52.978918
3178.000000	53.346206
3177.000000	53.704538
3176.000000	54.053710
3175.000000	54.391482
3174.000000	54.716533
3173.000000	55.030397
3172.000000	55.334563
3171.000000	55.627840
3170.000000	55.909519
3169.000000	56.181621
3168.000000	56.445528
3167.000000	56.700014
3166.000000	56.943879
3165.000000	57.178123
3164.000000	57.402906
3163.000000	57.615120
3162.000000	57.811921
3161.000000	57.993030
3160.000000	58.158624
3159.000000	58.307632
3158.000000	58.439623
3157.000000	58.556835
3156.000000	58.661751
3155.000000	58.755870
3154.000000	58.841998
3153.000000	58.923975
3152.000000	59.003196
3151.000000	59.078143
3150.000000	59.149704
3149.000000	59.223680
3148.000000	59.305671
3147.000000	59.396589
3146.000000	59.494881
3145.000000	59.599636
3144.000000	59.709087
3143.000000	59.819429
3142.000000	59.927796
3141.000000	60.033891
3140.000000	60.136172
3139.000000	60.229412
3138.000000	60.308698
3137.000000	60.373593
3136.000000	60.425803
3135.000000	60.465126
3134.000000	60.490545
3133.000000	60.501447
3132.000000	60.495618
3131.000000	60.467303
3130.000000	60.409202
3129.000000	60.316061
3128.000000	60.184149
3127.000000	60.011968
3126.000000	59.802947
3125.000000	59.565276
3124.000000	59.309249
3123.000000	59.045175
3122.000000	58.784309
3121.000000	58.537154
3120.000000	58.308619
3119.000000	58.097756
3118.000000	57.903291
3117.000000	57.725903
3116.000000	57.563552
3115.000000	57.409447
3114.000000	57.256937
3113.000000	57.103722
3112.000000	56.949684
3111.000000	56.794464
3110.000000	56.639503
3109.000000	56.488239
3108.000000	56.342687
3107.000000	56.203235
3106.000000	56.073150
3105.000000	55.960397
3104.000000	55.872367
3103.000000	55.812956
3102.000000	55.786322
3101.000000	55.798357
3100.000000	55.853629
3099.000000	55.952445
3098.000000	56.094781
3097.000000	56.283704
3096.000000	56.520403
3095.000000	56.801662
3094.000000	57.122363
3093.000000	57.478564
3092.000000	57.865818
3091.000000	58.275928
3090.000000	58.700161
3089.000000	59.132118
3088.000000	59.567013
3087.000000	60.001043
3086.000000	60.432228
3085.000000	60.859938
3084.000000	61.281521
3083.000000	61.692562
3082.000000	62.091399
3081.000000	62.480530
3080.000000	62.861817
3079.000000	63.233209
3078.000000	63.591755
3077.000000	63.936328
3076.000000	64.266684
3075.000000	64.582542
3074.000000	64.885523
3073.000000	65.179144
3072.000000	65.464884
3071.000000	65.741489
3070.000000	66.008648
3069.000000	66.268515
3068.000000	66.521926
3067.000000	66.765784
3066.000000	66.997177
3065.000000	67.217290
3064.000000	67.429181
3063.000000	67.634137
3062.000000	67.832020
3061.000000	68.023829
3060.000000	68.211176
3059.000000	68.394631
3058.000000	68.574573
3057.000000	68.751710
3056.000000	68.925566
3055.000000	69.093905
3054.000000	69.255571
3053.000000	69.412437
3052.000000	69.566687
3051.000000	69.717998
3050.000000	69.865002
3049.000000	70.008204
3048.000000	70.149609
3047.000000	70.290395
3046.000000	70.430764
3045.000000	70.570798
3044.000000	70.709827
3043.000000	70.846060
3042.000000	70.978058
3041.000000	71.105757
3040.000000	71.229219
3039.000000	71.348111
3038.000000	71.463789
3037.000000	71.580030
3036.000000	71.699982
3035.000000	71.823138
3034.000000	71.946526
3033.000000	72.067864
3032.000000	72.186435
3031.000000	72.302467
3030.000000	72.416927
3029.000000	72.530747
3028.000000	72.643611
3027.000000	72.754569
3026.000000	72.864013
3025.000000	72.973261
3024.000000	73.081677
3023.000000	73.186466
3022.000000	73.285905
3021.000000	73.380489
3020.000000	73.470051
3019.000000	73.551420
3018.000000	73.620445
3017.000000	73.674559
3016.000000	73.712248
3015.000000	73.732641
3014.000000	73.737885
3013.000000	73.735561
3012.000000	73.736857
3011.000000	73.752736
3010.000000	73.791743
3009.000000	73.858584
3008.000000	73.952072
3007.000000	74.064637
3006.000000	74.184939
3005.000000	74.300638
3004.000000	74.398415
3003.000000	74.463312
3002.000000	74.480487
3001.000000	74.437893
3000.000000	74.329539
2999.000000	74.159525
2998.000000	73.947350
2997.000000	73.729332
2996.000000	73.551816
2995.000000	73.458289
2994.000000	73.474846
2993.000000	73.600920
2992.000000	73.809323
2991.000000	74.059334
2990.000000	74.314193
2989.000000	74.550991
2988.000000	74.759624
2987.000000	74.937368
2986.000000	75.086220
2985.000000	75.210579
2984.000000	75.314240
2983.000000	75.398699
2982.000000	75.464902
2981.000000	75.513857
2980.000000	75.544621
2979.000000	75.553446
2978.000000	75.536603
2977.000000	75.494217
2976.000000	75.430474
2975.000000	75.353147
2974.000000	75.273784
2973.000000	75.206310
2972.000000	75.162400
2971.000000	75.146320
2970.000000	75.152875
2969.000000	75.167129
2968.000000	75.165208
2967.000000	75.120214
2966.000000	75.013521
2965.000000	74.844044
2964.000000	74.628279
2963.000000	74.392774
2962.000000	74.165986
2961.000000	73.972061
2960.000000	73.827794
2959.000000	73.742446
2958.000000	73.720130
2957.000000	73.760144
2956.000000	73.855610
2955.000000	73.994535
2954.000000	74.162191
2953.000000	74.341302
2952.000000	74.510226
2951.000000	74.647689
2950.000000	74.742212
2949.000000	74.797075
2948.000000	74.824995
2947.000000	74.837919
2946.000000	74.838448
2945.000000	74.811858
2944.000000	74.724190
2943.000000	74.536298
2942.000000	74.235815
2941.000000	73.864587
2940.000000	73.516361
2939.000000	73.299903
2938.000000	73.289098
2937.000000	73.492221
2936.000000	73.855050
2935.000000	74.293940
2934.000000	74.734410
2933.000000	75.132716
2932.000000	75.474384
2931.000000	75.762229
2930.000000	76.005995
2929.000000	76.215827
2928.000000	76.400153
2927.000000	76.565533
2926.000000	76.717990
2925.000000	76.862352
2924.000000	77.000492
2923.000000	77.131942
2922.000000	77.256615
2921.000000	77.375370
2920.000000	77.487690
2919.000000	77.591259
2918.000000	77.684042
2917.000000	77.765432
2916.000000	77.835107
2915.000000	77.892433
2914.000000	77.937536
2913.000000	77.971576
2912.000000	77.995820
2911.000000	78.011887
2910.000000	78.022588
2909.000000	78.030500
2908.000000	78.035026
2907.000000	78.031659
2906.000000	78.014168
2905.000000	77.975466
2904.000000	77.906255
2903.000000	77.796843
2902.000000	77.641677
2901.000000	77.442506
2900.000000	77.209707
2899.000000	76.962846
2898.000000	76.730185
2897.000000	76.542986
2896.000000	76.424781
2895.000000	76.384437
2894.000000	76.417908
2893.000000	76.512659
2892.000000	76.650830
2891.000000	76.812272
2890.000000	76.979712
2889.000000	77.141684
2888.000000	77.291567
2887.000000	77.425803
2886.000000	77.543682
2885.000000	77.646998
2884.000000	77.737476
2883.000000	77.815747
2882.000000	77.882954
2881.000000	77.941760
2880.000000	77.994744
2879.000000	78.043074
2878.000000	78.087693
2877.000000	78.130517
2876.000000	78.173449
2875.000000	78.216813
2874.000000	78.259477
2873.000000	78.299710
2872.000000	78.336111
2871.000000	78.369394
2870.000000	78.403591
2869.000000	78.444154
2868.000000	78.494164
2867.000000	78.553078
2866.000000	78.618654
2865.000000	78.688062
2864.000000	78.757356
2863.000000	78.822642
2862.000000	78.882701
2861.000000	78.938726
2860.000000	78.991150
2859.000000	79.038852
2858.000000	79.082149
2857.000000	79.124314
2856.000000	79.169076
2855.000000	79.218356
2854.000000	79.272985
2853.000000	79.333157
2852.000000	79.396802
2851.000000	79.459347
2850.000000	79.516468
2849.000000	79.566011
2848.000000	79.607085
2847.000000	79.639655
2846.000000	79.666100
2845.000000	79.691052
2844.000000	79.718143
2843.000000	79.748100
2842.000000	79.780852
2841.000000	79.817542
2840.000000	79.858778
2839.000000	79.902538
2838.000000	79.945800
2837.000000	79.987715
2836.000000	80.029979
2835.000000	80.074710
2834.000000	80.122865
2833.000000	80.173953
2832.000000	80.226346
2831.000000	80.278202
2830.000000	80.328729
2829.000000	80.378094
2828.000000	80.425984
2827.000000	80.471338
2826.000000	80.513811
2825.000000	80.554377
2824.000000	80.594049
2823.000000	80.633115
2822.000000	80.672108
2821.000000	80.712149
2820.000000	80.753425
2819.000000	80.794356
2818.000000	80.833027
2817.000000	80.868587
2816.000000	80.900733
2815.000000	80.929007
2814.000000	80.953588
2813.000000	80.975960
2812.000000	80.997931
2811.000000	81.020519
2810.000000	81.044145
2809.000000	81.069056
2808.000000	81.094993
2807.000000	81.121171
2806.000000	81.147096
2805.000000	81.172635
2804.000000	81.197030
2803.000000	81.218939
2802.000000	81.238042
2801.000000	81.255709
2800.000000	81.273547
2799.000000	81.292032
2798.000000	81.310979
2797.000000	81.330451
2796.000000	81.350688
2795.000000	81.371876
2794.000000	81.394312
2793.000000	81.418006
2792.000000	81.441871
2791.000000	81.464139
2790.000000	81.483689
2789.000000	81.500171
2788.000000	81.513036
2787.000000	81.521954
2786.000000	81.528513
2785.000000	81.536068
2784.000000	81.547230
2783.000000	81.562560
2782.000000	81.581962
2781.000000	81.605780
2780.000000	81.633769
2779.000000	81.664274
2778.000000	81.695344
2777.000000	81.725799
2776.000000	81.754601
2775.000000	81.780377
2774.000000	81.802627
2773.000000	81.822692
2772.000000	81.842757
2771.000000	81.864404
2770.000000	81.888438
2769.000000	81.915059
2768.000000	81.943408
2767.000000	81.971522
2766.000000	81.997385
2765.000000	82.019661
2764.000000	82.037440
2763.000000	82.050356
2762.000000	82.059360
2761.000000	82.066556
2760.000000	82.073802
2759.000000	82.082037
2758.000000	82.092029
2757.000000	82.104445
2756.000000	82.118648
2755.000000	82.132505
2754.000000	82.144131
2753.000000	82.153267
2752.000000	82.160732
2751.000000	82.167513
2750.000000	82.174833
2749.000000	82.183962
2748.000000	82.195130
2747.000000	82.207289
2746.000000	82.219509
2745.000000	82.231969
2744.000000	82.245255
2743.000000	82.259429
2742.000000	82.274125
2741.000000	82.288612
2740.000000	82.301216
2739.000000	82.309585
2738.000000	82.312495
2737.000000	82.311337
2736.000000	82.309843
2735.000000	82.312958
2734.000000	82.325611
2733.000000	82.350663
2732.000000	82.386963
2731.000000	82.429890
2730.000000	82.474309
2729.000000	82.516832
2728.000000	82.555375
2727.000000	82.588104
2726.000000	82.613914
2725.000000	82.633370
2724.000000	82.648290
2723.000000	82.660588
2722.000000	82.671644
2721.000000	82.682179
2720.000000	82.692439
2719.000000	82.702629
2718.000000	82.713207
2717.000000	82.724357
2716.000000	82.735303
2715.000000	82.745001
2714.000000	82.753568
2713.000000	82.762286
2712.000000	82.772226
2711.000000	82.783751
2710.000000	82.797353
2709.000000	82.813861
2708.000000	82.833335
2707.000000	82.854477
2706.000000	82.875494
2705.000000	82.894917
2704.000000	82.911415
2703.000000	82.923731
2702.000000	82.931264
2701.000000	82.934132
2700.000000	82.932591
2699.000000	82.926936
2698.000000	82.918169
2697.000000	82.908233
2696.000000	82.899207
2695.000000	82.892629
2694.000000	82.889352
2693.000000	82.889161
2692.000000	82.890541
2691.000000	82.891600
2690.000000	82.891434
2689.000000	82.890222
2688.000000	82.888342
2687.000000	82.886229
2686.000000	82.884966
2685.000000	82.885937
2684.000000	82.889753
2683.000000	82.896313
2682.000000	82.905726
2681.000000	82.918393
2680.000000	82.934168
2679.000000	82.952203
2678.000000	82.971540
2677.000000	82.990918
2676.000000	83.008339
2675.000000	83.021996
2674.000000	83.031632
2673.000000	83.038158
2672.000000	83.042233
2671.000000	83.044220
2670.000000	83.045323
2669.000000	83.047498
2668.000000	83.052233
2667.000000	83.060414
2666.000000	83.073105
2665.000000	83.090916
2664.000000	83.112437
2663.000000	83.134716
2662.000000	83.155469
2661.000000	83.173729
2660.000000	83.188437
2659.000000	83.197972
2658.000000	83.201630
2657.000000	83.200616
2656.000000	83.197175
2655.000000	83.193598
2654.000000	83.192156
2653.000000	83.194722
2652.000000	83.201994
2651.000000	83.213872
2650.000000	83.230519
2649.000000	83.251873
2648.000000	83.276189
2647.000000	83.300370
2646.000000	83.322118
2645.000000	83.340929
2644.000000	83.356992
2643.000000	83.370646
2642.000000	83.383244
2641.000000	83.397195
2640.000000	83.414408
2639.000000	83.435281
2638.000000	83.459238
2637.000000	83.485043
2636.000000	83.510346
2635.000000	83.532230
2634.000000	83.549034
2633.000000	83.561031
2632.000000	83.569224
2631.000000	83.574472
2630.000000	83.577942
2629.000000	83.581395
2628.000000	83.586298
2627.000000	83.593124
2626.000000	83.601622
2625.000000	83.610861
2624.000000	83.619072
2623.000000	83.624455
2622.000000	83.626454
2621.000000	83.625670
2620.000000	83.622602
2619.000000	83.617528
2618.000000	83.611450
2617.000000	83.605797
2616.000000	83.600889
2615.000000	83.595558
2614.000000	83.588507
2613.000000	83.579074
2612.000000	83.566703
2611.000000	83.551208
2610.000000	83.533986
2609.000000	83.517876
2608.000000	83.505319
2607.000000	83.497490
2606.000000	83.495140
2605.000000	83.499107
2604.000000	83.509459
2603.000000	83.525095
2602.000000	83.544714
2601.000000	83.566983
2600.000000	83.589847
2599.000000	83.610892
2598.000000	83.628838
2597.000000	83.643952
2596.000000	83.656753
2595.000000	83.667504
2594.000000	83.677252
2593.000000	83.688074
2592.000000	83.701504
2591.000000	83.717427
2590.000000	83.734691
2589.000000	83.751882
2588.000000	83.767260
2587.000000	83.779045
2586.000000	83.786513
2585.000000	83.790320
2584.000000	83.791711
2583.000000	83.792352
2582.000000	83.795009
2581.000000	83.803092
2580.000000	83.818827
2579.000000	83.842315
2578.000000	83.872146
2577.000000	83.906016
2576.000000	83.940664
2575.000000	83.972729
2574.000000	84.000578
2573.000000	84.024666
2572.000000	84.046121
2571.000000	84.065862
2570.000000	84.085165
2569.000000	84.105810
2568.000000	84.128926
2567.000000	84.154289
2566.000000	84.181005
2565.000000	84.208071
2564.000000	84.233950
2563.000000	84.256644
2562.000000	84.274772
2561.000000	84.288248
2560.000000	84.297947
2559.000000	84.305428
2558.000000	84.313108
2557.000000	84.323583
2556.000000	84.338259
2555.000000	84.357092
2554.000000	84.379571
2553.000000	84.404902
2552.000000	84.431146
2551.000000	84.455391
2550.000000	84.475464
2549.000000	84.490971
2548.000000	84.502575
2547.000000	84.511194
2546.000000	84.518278
2545.000000	84.526007
2544.000000	84.536375
2543.000000	84.550269
2542.000000	84.567350
2541.000000	84.586059
2540.000000	84.603701
2539.000000	84.617315
2538.000000	84.625029
2537.000000	84.626283
2536.000000	84.620819
2535.000000	84.608634
2534.000000	84.590895
2533.000000	84.570203
2532.000000	84.549537
2531.000000	84.531197
2530.000000	84.516806
2529.000000	84.507169
2528.000000	84.501717
2527.000000	84.498654
2526.000000	84.495913
2525.000000	84.491618
2524.000000	84.483976
2523.000000	84.471793
2522.000000	84.455359
2521.000000	84.436009
2520.000000	84.414759
2519.000000	84.392020
2518.000000	84.368572
2517.000000	84.345780
2516.000000	84.324417
2515.000000	84.304207
2514.000000	84.284702
2513.000000	84.265847
2512.000000	84.247548
2511.000000	84.229684
2510.000000	84.212823
2509.000000	84.198223
2508.000000	84.186945
2507.000000	84.179543
2506.000000	84.176972
2505.000000	84.180663
2504.000000	84.191452
2503.000000	84.209118
2502.000000	84.232582
2501.000000	84.260021
2500.000000	84.288496
2499.000000	84.314566
2498.000000	84.335742
2497.000000	84.350851
2496.000000	84.359409
2495.000000	84.361630
2494.000000	84.359090
2493.000000	84.354251
2492.000000	84.349307
2491.000000	84.345976
2490.000000	84.346197
2489.000000	84.351762
2488.000000	84.362939
2487.000000	84.378258
2486.000000	84.395698
2485.000000	84.413242
2484.000000	84.428515
2483.000000	84.439288
2482.000000	84.444810
2481.000000	84.445984
2480.000000	84.444330
2479.000000	84.441704
2478.000000	84.440961
2477.000000	84.445499
2476.000000	84.457583
2475.000000	84.477679
2474.000000	84.505033
2473.000000	84.537914
2472.000000	84.573006
2471.000000	84.606120
2470.000000	84.634160
2469.000000	84.655954
2468.000000	84.671558
2467.000000	84.681994
2466.000000	84.689814
2465.000000	84.698547
2464.000000	84.710909
2463.000000	84.727971
2462.000000	84.749888
2461.000000	84.776030
2460.000000	84.803924
2459.000000	84.829371
2458.000000	84.848414
2457.000000	84.858994
2456.000000	84.860834
2455.000000	84.854800
2454.000000	84.843239
2453.000000	84.830061
2452.000000	84.819759
2451.000000	84.816167
2450.000000	84.821722
2449.000000	84.836761
2448.000000	84.859133
2447.000000	84.885167
2446.000000	84.911337
2445.000000	84.935069
2444.000000	84.954363
2443.000000	84.968099
2442.000000	84.976931
2441.000000	84.983131
2440.000000	84.989270
2439.000000	84.997431
2438.000000	85.009333
2437.000000	85.026014
2436.000000	85.047007
2435.000000	85.070399
2434.000000	85.093710
2433.000000	85.114195
2432.000000	85.128736
2431.000000	85.134929
2430.000000	85.132458
2429.000000	85.122873
2428.000000	85.108049
2427.000000	85.089644
2426.000000	85.070080
2425.000000	85.052268
2424.000000	85.038048
2423.000000	85.027545
2422.000000	85.020220
2421.000000	85.015538
2420.000000	85.012442
2419.000000	85.009439
2418.000000	85.005747
2417.000000	85.001609
2416.000000	84.997186
2415.000000	84.992211
2414.000000	84.986982
2413.000000	84.982579
2412.000000	84.979460
2411.000000	84.976576
2410.000000	84.972201
2409.000000	84.964858
2408.000000	84.953316
2407.000000	84.936571
2406.000000	84.914653
2405.000000	84.888784
2404.000000	84.860591
2403.000000	84.831899
2402.000000	84.805275
2401.000000	84.783688
2400.000000	84.768953
2399.000000	84.761114
2398.000000	84.759152
2397.000000	84.761335
2396.000000	84.764609
2395.000000	84.765174
2394.000000	84.760430
2393.000000	84.749776
2392.000000	84.733452
2391.000000	84.711971
2390.000000	84.687340
2389.000000	84.663333
2388.000000	84.644338
2387.000000	84.633739
2386.000000	84.634020
2385.000000	84.647119
2384.000000	84.672798
2383.000000	84.708736
2382.000000	84.751433
2381.000000	84.797176
2380.000000	84.841830
2379.000000	84.879724
2378.000000	84.905859
2377.000000	84.917780
2376.000000	84.915028
2375.000000	84.898940
2374.000000	84.873156
2373.000000	84.843742
2372.000000	84.816383
2371.000000	84.793771
2370.000000	84.775987
2369.000000	84.764971
2368.000000	84.762869
2367.000000	84.768342
2366.000000	84.779089
2365.000000	84.798327
2364.000000	84.829611
2363.000000	84.868069
2362.000000	84.911188
2361.000000	84.956796
2360.000000	85.000371
2359.000000	85.039102
2358.000000	85.065205
2357.000000	85.078704
2356.000000	85.077271
2355.000000	85.059016
2354.000000	85.033084
2353.000000	85.019299
2352.000000	85.042089
2351.000000	85.087212
2350.000000	85.120658
2349.000000	85.124509
2348.000000	85.110572
2347.000000	85.112490
2346.000000	85.132682
2345.000000	85.157908
2344.000000	85.168651
2343.000000	85.164102
2342.000000	85.160407
2341.000000	85.159631
2340.000000	85.162251
2339.000000	85.162503
2338.000000	85.164161
2337.000000	85.168363
2336.000000	85.179053
2335.000000	85.193494
2334.000000	85.211640
2333.000000	85.221222
2332.000000	85.218132
2331.000000	85.192255
2330.000000	85.150875
2329.000000	85.106201
2328.000000	85.065282
2327.000000	85.038451
2326.000000	85.022271
2325.000000	85.019464
2324.000000	85.021569
2323.000000	85.021094
2322.000000	85.015034
2321.000000	85.000010
2320.000000	84.982124
2319.000000	84.960786
2318.000000	84.943309
2317.000000	84.927806
2316.000000	84.915259
2315.000000	84.899240
2314.000000	84.877764
2313.000000	84.847461
2312.000000	84.809485
2311.000000	84.766168
2310.000000	84.721066
2309.000000	84.675840
2308.000000	84.629156
2307.000000	84.579261
2306.000000	84.525258
2305.000000	84.466732
2304.000000	84.404225
2303.000000	84.338066
2302.000000	84.271648
2301.000000	84.207892
2300.000000	84.150241
2299.000000	84.100704
2298.000000	84.061021
2297.000000	84.031433
2296.000000	84.009757
2295.000000	83.993957
2294.000000	83.981326
2293.000000	83.970637
2292.000000	83.959861
2291.000000	83.949861
2290.000000	83.942960
2289.000000	83.943092
2288.000000	83.952882
2287.000000	83.974772
2286.000000	84.010139
2285.000000	84.058085
2284.000000	84.113976
2283.000000	84.171262
2282.000000	84.223992
2281.000000	84.267388
2280.000000	84.298515
2279.000000	84.317092
2278.000000	84.326770
2277.000000	84.332811
2276.000000	84.340777
2275.000000	84.355592
2274.000000	84.381446
2273.000000	84.419914
2272.000000	84.468764
2271.000000	84.523671
2270.000000	84.580503
2269.000000	84.635800
2268.000000	84.686552
2267.000000	84.731141
2266.000000	84.770557
2265.000000	84.807846
2264.000000	84.846350
2263.000000	84.889638
2262.000000	84.940501
2261.000000	84.999887
2260.000000	85.065531
2259.000000	85.132974
2258.000000	85.197486
2257.000000	85.254406
2256.000000	85.300320
2255.000000	85.333886
2254.000000	85.356940
2253.000000	85.373003
2252.000000	85.386386
2251.000000	85.402095
2250.000000	85.425353
2249.000000	85.459329
2248.000000	85.503789
2247.000000	85.555602
2246.000000	85.610042
2245.000000	85.661379
2244.000000	85.703571
2243.000000	85.732538
2242.000000	85.747578
2241.000000	85.750870
2240.000000	85.746150
2239.000000	85.738411
2238.000000	85.733217
2237.000000	85.734760
2236.000000	85.744509
2235.000000	85.761796
2234.000000	85.784819
2233.000000	85.810277
2232.000000	85.833423
2231.000000	85.849879
2230.000000	85.857519
2229.000000	85.856303
2228.000000	85.847571
2227.000000	85.834332
2226.000000	85.821487
2225.000000	85.814166
2224.000000	85.815602
2223.000000	85.826550
2222.000000	85.845778
2221.000000	85.870143
2220.000000	85.894967
2219.000000	85.915625
2218.000000	85.929055
2217.000000	85.933972
2216.000000	85.930730
2215.000000	85.921843
2214.000000	85.911878
2213.000000	85.905871
2212.000000	85.907668
2211.000000	85.919502
2210.000000	85.941747
2209.000000	85.972238
2208.000000	86.006546
2207.000000	86.039886
2206.000000	86.068404
2205.000000	86.088818
2204.000000	86.098257
2203.000000	86.095738
2202.000000	86.083188
2201.000000	86.064437
2200.000000	86.043770
2199.000000	86.025701
2198.000000	86.014722
2197.000000	86.013729
2196.000000	86.022949
2195.000000	86.040737
2194.000000	86.064790
2193.000000	86.091916
2192.000000	86.117922
2191.000000	86.139007
2190.000000	86.153278
2189.000000	86.160662
2188.000000	86.162371
2187.000000	86.161219
2186.000000	86.161570
2185.000000	86.167726
2184.000000	86.182219
2183.000000	86.205539
2182.000000	86.236455
2181.000000	86.271872
2180.000000	86.307246
2179.000000	86.338068
2178.000000	86.360788
2177.000000	86.372731
2176.000000	86.372620
2175.000000	86.362112
2174.000000	86.345822
2173.000000	86.329085
2172.000000	86.316030
2171.000000	86.309713
2170.000000	86.312342
2169.000000	86.324089
2168.000000	86.342334
2167.000000	86.362936
2166.000000	86.381701
2165.000000	86.394510
2164.000000	86.397783
2163.000000	86.390315
2162.000000	86.374331
2161.000000	86.354195
2160.000000	86.334740
2159.000000	86.320902
2158.000000	86.317290
2157.000000	86.326271
2156.000000	86.346722
2155.000000	86.375105
2154.000000	86.407014
2153.000000	86.437287
2152.000000	86.460397
2151.000000	86.472548
2150.000000	86.473462
2149.000000	86.465737
2148.000000	86.453112
2147.000000	86.439905
2146.000000	86.430689
2145.000000	86.429006
2144.000000	86.436244
2143.000000	86.451827
2142.000000	86.473525
2141.000000	86.497366
2140.000000	86.518409
2139.000000	86.532757
2138.000000	86.538630
2137.000000	86.535728
2136.000000	86.524815
2135.000000	86.508401
2134.000000	86.490601
2133.000000	86.475358
2132.000000	86.465066
2131.000000	86.460811
2130.000000	86.462561
2129.000000	86.468291
2128.000000	86.474207
2127.000000	86.476971
2126.000000	86.475326
2125.000000	86.469403
2124.000000	86.459792
2123.000000	86.448105
2122.000000	86.437299
2121.000000	86.430463
2120.000000	86.429755
2119.000000	86.436493
2118.000000	86.450974
2117.000000	86.471450
2116.000000	86.494323
2115.000000	86.516135
2114.000000	86.534789
2113.000000	86.548825
2112.000000	86.557143
2111.000000	86.560170
2110.000000	86.559978
2109.000000	86.558536
2108.000000	86.556725
2107.000000	86.555367
2106.000000	86.555830
2105.000000	86.558789
2104.000000	86.563391
2103.000000	86.568467
2102.000000	86.573454
2101.000000	86.577446
2100.000000	86.578706
2099.000000	86.575834
2098.000000	86.568913
2097.000000	86.558682
2096.000000	86.545738
2095.000000	86.531469
2094.000000	86.518275
2093.000000	86.508031
2092.000000	86.501410
2091.000000	86.499171
2090.000000	86.502736
2089.000000	86.512714
2088.000000	86.528073
2087.000000	86.547660
2086.000000	86.570991
2085.000000	86.596644
2084.000000	86.621496
2083.000000	86.642554
2082.000000	86.658380
2081.000000	86.668193
2080.000000	86.671210
2079.000000	86.667637
2078.000000	86.659261
2077.000000	86.647886
2076.000000	86.634370
2075.000000	86.620094
2074.000000	86.606953
2073.000000	86.595572
2072.000000	86.584391
2071.000000	86.571308
2070.000000	86.555612
2069.000000	86.537063
2068.000000	86.514420
2067.000000	86.486145
2066.000000	86.452116
2065.000000	86.413983
2064.000000	86.374267
2063.000000	86.335729
2062.000000	86.300476
2061.000000	86.268626
2060.000000	86.238536
2059.000000	86.208951
2058.000000	86.179972
2057.000000	86.151532
2056.000000	86.122508
2055.000000	86.092230
2054.000000	86.061483
2053.000000	86.031672
2052.000000	86.003919
2051.000000	85.979391
2050.000000	85.959546
2049.000000	85.945049
2048.000000	85.934767
2047.000000	85.927153
2046.000000	85.922244
2045.000000	85.920595
2044.000000	85.921338
2043.000000	85.922958
2042.000000	85.925232
2041.000000	85.929042
2040.000000	85.934911
2039.000000	85.943338
2038.000000	85.955512
2037.000000	85.972089
2036.000000	85.992237
2035.000000	86.015159
2034.000000	86.041410
2033.000000	86.071342
2032.000000	86.103704
2031.000000	86.137384
2030.000000	86.172672
2029.000000	86.209869
2028.000000	86.247335
2027.000000	86.283099
2026.000000	86.316255
2025.000000	86.346161
2024.000000	86.371392
2023.000000	86.391235
2022.000000	86.408207
2021.000000	86.426212
2020.000000	86.446661
2019.000000	86.468453
2018.000000	86.491319
2017.000000	86.516902
2016.000000	86.546585
2015.000000	86.580256
2014.000000	86.616679
2013.000000	86.653369
2012.000000	86.686623
2011.000000	86.714036
2010.000000	86.736515
2009.000000	86.756644
2008.000000	86.776035
2007.000000	86.796377
2006.000000	86.820486
2005.000000	86.850587
2004.000000	86.886207
2003.000000	86.924639
2002.000000	86.963659
2001.000000	87.000067
2000.000000	87.030241
1999.000000	87.052261
1998.000000	87.066460
1997.000000	87.075620
1996.000000	87.083911
1995.000000	87.094554
1994.000000	87.108461
1993.000000	87.125780
1992.000000	87.148246
1991.000000	87.178232
1990.000000	87.215026
1989.000000	87.253914
1988.000000	87.289139
1987.000000	87.317135
1986.000000	87.337502
1985.000000	87.351750
1984.000000	87.362461
1983.000000	87.373061
1982.000000	87.387698
1981.000000	87.409186
1980.000000	87.439320
1979.000000	87.477995
1978.000000	87.521623
1977.000000	87.565022
1976.000000	87.604374
1975.000000	87.637378
1974.000000	87.661851
1973.000000	87.677331
1972.000000	87.687524
1971.000000	87.698233
1970.000000	87.712389
1969.000000	87.729109
1968.000000	87.746855
1967.000000	87.765793
1966.000000	87.786683
1965.000000	87.808670
1964.000000	87.828542
1963.000000	87.841214
1962.000000	87.841781
1961.000000	87.829674
1960.000000	87.810035
1959.000000	87.789310
1958.000000	87.770935
1957.000000	87.756482
1956.000000	87.748701
1955.000000	87.750748
1954.000000	87.762341
1953.000000	87.780595
1952.000000	87.801783
1951.000000	87.822503
1950.000000	87.839841
1949.000000	87.850281
1948.000000	87.852729
1947.000000	87.851157
1946.000000	87.850861
1945.000000	87.853007
1944.000000	87.854434
1943.000000	87.853616
1942.000000	87.854310
1941.000000	87.860933
1940.000000	87.873857
1939.000000	87.889909
1938.000000	87.903847
1937.000000	87.911403
1936.000000	87.912089
1935.000000	87.907815
1934.000000	87.899543
1933.000000	87.888480
1932.000000	87.876275
1931.000000	87.866253
1930.000000	87.862272
1929.000000	87.863194
1928.000000	87.868094
1927.000000	87.878286
1926.000000	87.895609
1925.000000	87.915182
1924.000000	87.926178
1923.000000	87.926432
1922.000000	87.924858
1921.000000	87.927045
1920.000000	87.929440
1919.000000	87.926634
1918.000000	87.921181
1917.000000	87.918726
1916.000000	87.918137
1915.000000	87.917823
1914.000000	87.920048
1913.000000	87.925302
1912.000000	87.929579
1911.000000	87.930676
1910.000000	87.930765
1909.000000	87.929373
1908.000000	87.924593
1907.000000	87.916281
1906.000000	87.909359
1905.000000	87.906357
1904.000000	87.903517
1903.000000	87.902367
1902.000000	87.910357
1901.000000	87.928711
1900.000000	87.953219
1899.000000	87.982237
1898.000000	88.017874
1897.000000	88.056406
1896.000000	88.086502
1895.000000	88.104681
1894.000000	88.119373
1893.000000	88.135399
1892.000000	88.146617
1891.000000	88.147018
1890.000000	88.141117
1889.000000	88.139685
1888.000000	88.147906
1887.000000	88.166346
1886.000000	88.195316
1885.000000	88.229915
1884.000000	88.260702
1883.000000	88.284773
1882.000000	88.305582
1881.000000	88.321029
1880.000000	88.325614
1879.000000	88.320409
1878.000000	88.313842
1877.000000	88.313386
1876.000000	88.319105
1875.000000	88.331411
1874.000000	88.356886
1873.000000	88.397714
1872.000000	88.444425
1871.000000	88.484274
1870.000000	88.509486
1869.000000	88.519221
1868.000000	88.516527
1867.000000	88.507303
1866.000000	88.501205
1865.000000	88.503073
1864.000000	88.509299
1863.000000	88.518535
1862.000000	88.537088
1861.000000	88.567504
1860.000000	88.602319
1859.000000	88.635268
1858.000000	88.668260
1857.000000	88.700840
1856.000000	88.724904
1855.000000	88.735677
1854.000000	88.739021
1853.000000	88.738583
1852.000000	88.737272
1851.000000	88.741088
1850.000000	88.754431
1849.000000	88.775998
1848.000000	88.800559
1847.000000	88.827211
1846.000000	88.856222
1845.000000	88.882591
1844.000000	88.905446
1843.000000	88.927095
1842.000000	88.943013
1841.000000	88.950049
1840.000000	88.951582
1839.000000	88.949827
1838.000000	88.948361
1837.000000	88.950748
1836.000000	88.957890
1835.000000	88.972844
1834.000000	88.998152
1833.000000	89.029990
1832.000000	89.061708
1831.000000	89.083095
1830.000000	89.093168
1829.000000	89.105815
1828.000000	89.126636
1827.000000	89.147629
1826.000000	89.158881
1825.000000	89.161423
1824.000000	89.164341
1823.000000	89.171787
1822.000000	89.184575
1821.000000	89.205319
1820.000000	89.233322
1819.000000	89.260993
1818.000000	89.285783
1817.000000	89.311057
1816.000000	89.334992
1815.000000	89.353372
1814.000000	89.364380
1813.000000	89.368728
1812.000000	89.362117
1811.000000	89.341265
1810.000000	89.319627
1809.000000	89.310870
1808.000000	89.310344
1807.000000	89.311042
1806.000000	89.319712
1805.000000	89.343916
1804.000000	89.373852
1803.000000	89.394757
1802.000000	89.400226
1801.000000	89.397267
1800.000000	89.392508
1799.000000	89.387231
1798.000000	89.385148
1797.000000	89.386155
1796.000000	89.384185
1795.000000	89.381523
1794.000000	89.385997
1793.000000	89.402233
1792.000000	89.426770
1791.000000	89.451099
1790.000000	89.472681
1789.000000	89.494381
1788.000000	89.512935
1787.000000	89.520488
1786.000000	89.516040
1785.000000	89.505263
1784.000000	89.490852
1783.000000	89.478109
1782.000000	89.468368
1781.000000	89.464396
1780.000000	89.471993
1779.000000	89.493048
1778.000000	89.524819
1777.000000	89.558455
1776.000000	89.589135
1775.000000	89.616849
1774.000000	89.633261
1773.000000	89.631967
1772.000000	89.631686
1771.000000	89.642946
1770.000000	89.655886
1769.000000	89.670248
1768.000000	89.691302
1767.000000	89.718640
1766.000000	89.747920
1765.000000	89.781913
1764.000000	89.821025
1763.000000	89.851650
1762.000000	89.861448
1761.000000	89.863450
1760.000000	89.866992
1759.000000	89.866742
1758.000000	89.855728
1757.000000	89.836159
1756.000000	89.829550
1755.000000	89.843236
1754.000000	89.866267
1753.000000	89.893992
1752.000000	89.928609
1751.000000	89.964564
1750.000000	89.989551
1749.000000	89.996794
1748.000000	89.998623
1747.000000	90.010740
1746.000000	90.025495
1745.000000	90.032924
1744.000000	90.035394
1743.000000	90.036517
1742.000000	90.037808
1741.000000	90.044332
1740.000000	90.061094
1739.000000	90.087118
1738.000000	90.111605
1737.000000	90.134237
1736.000000	90.157898
1735.000000	90.163863
1734.000000	90.164464
1733.000000	90.184153
1732.000000	90.192255
1731.000000	90.175507
1730.000000	90.153669
1729.000000	90.138889
1728.000000	90.135970
1727.000000	90.144575
1726.000000	90.155324
1725.000000	90.163100
1724.000000	90.164752
1723.000000	90.162575
1722.000000	90.168007
1721.000000	90.187394
1720.000000	90.212168
1719.000000	90.217918
1718.000000	90.207148
1717.000000	90.216229
1716.000000	90.231783
1715.000000	90.225090
1714.000000	90.217140
1713.000000	90.227896
1712.000000	90.242631
1711.000000	90.249997
1710.000000	90.260982
1709.000000	90.282479
1708.000000	90.305623
1707.000000	90.318892
1706.000000	90.330686
1705.000000	90.356199
1704.000000	90.385383
1703.000000	90.411961
1702.000000	90.440404
1701.000000	90.457830
1700.000000	90.480516
1699.000000	90.507311
1698.000000	90.521253
1697.000000	90.538501
1696.000000	90.566044
1695.000000	90.605162
1694.000000	90.637329
1693.000000	90.649031
1692.000000	90.655572
1691.000000	90.666350
1690.000000	90.677208
1689.000000	90.681489
1688.000000	90.688951
1687.000000	90.712496
1686.000000	90.741461
1685.000000	90.735184
1684.000000	90.717835
1683.000000	90.739531
1682.000000	90.759745
1681.000000	90.748283
1680.000000	90.726586
1679.000000	90.716903
1678.000000	90.718094
1677.000000	90.713763
1676.000000	90.695597
1675.000000	90.683750
1674.000000	90.679374
1673.000000	90.661834
1672.000000	90.632186
1671.000000	90.600983
1670.000000	90.571830
1669.000000	90.549597
1668.000000	90.537891
1667.000000	90.532873
1666.000000	90.526940
1665.000000	90.513672
1664.000000	90.484862
1663.000000	90.450974
1662.000000	90.425884
1661.000000	90.395622
1660.000000	90.351733
1659.000000	90.305849
1658.000000	90.260516
1657.000000	90.212095
1656.000000	90.169244
1655.000000	90.111825
1654.000000	89.958375
1653.000000	89.767550
1652.000000	89.642506
1651.000000	89.492538
1650.000000	89.274945
1649.000000	88.993631
1648.000000	88.577316
1647.000000	87.972024
1646.000000	87.228351
1645.000000	86.391931
1644.000000	85.427792
1643.000000	84.286693
1642.000000	82.944798
1641.000000	81.428690
1640.000000	79.850478
1639.000000	78.348482
1638.000000	77.005288
1637.000000	75.856317
1636.000000	75.026686
1635.000000	74.711401
1634.000000	74.898938
1633.000000	75.408847
1632.000000	76.110073
1631.000000	76.941198
1630.000000	77.858732
1629.000000	78.822159
1628.000000	79.791112
1627.000000	80.714402
1626.000000	81.554008
1625.000000	82.326747
1624.000000	83.074555
1623.000000	83.797038
1622.000000	84.436217
1621.000000	84.952426
1620.000000	85.380819
1619.000000	85.778568
1618.000000	86.170730
1617.000000	86.561821
1616.000000	86.945976
1615.000000	87.277948
1614.000000	87.525293
1613.000000	87.712883
1612.000000	87.877375
1611.000000	88.024252
1610.000000	88.126911
1609.000000	88.167645
1608.000000	88.155022
1607.000000	88.093710
1606.000000	87.958747
1605.000000	87.721649
1604.000000	87.376878
1603.000000	86.916521
1602.000000	86.328401
1601.000000	85.635340
1600.000000	84.903265
1599.000000	84.198557
1598.000000	83.548286
1597.000000	82.953433
1596.000000	82.417355
1595.000000	81.947889
1594.000000	81.543787
1593.000000	81.199191
1592.000000	80.916387
1591.000000	80.693470
1590.000000	80.506939
1589.000000	80.321453
1588.000000	80.111345
1587.000000	79.853818
1586.000000	79.519611
1585.000000	79.092121
1584.000000	78.599368
1583.000000	78.085929
1582.000000	77.564776
1581.000000	77.033475
1580.000000	76.507081
1579.000000	75.978936
1578.000000	75.356521
1577.000000	74.500498
1576.000000	73.423952
1575.000000	72.345880
1574.000000	71.411981
1573.000000	70.591128
1572.000000	69.817663
1571.000000	69.067737
1570.000000	68.381017
1569.000000	67.842950
1568.000000	67.524782
1567.000000	67.436968
1566.000000	67.532035
1565.000000	67.740887
1564.000000	68.032690
1563.000000	68.411799
1562.000000	68.885869
1561.000000	69.447691
1560.000000	70.121110
1559.000000	70.971083
1558.000000	71.893559
1557.000000	72.636651
1556.000000	73.191038
1555.000000	73.689329
1554.000000	74.167543
1553.000000	74.588715
1552.000000	74.939539
1551.000000	75.256392
1550.000000	75.580590
1549.000000	75.926426
1548.000000	76.300414
1547.000000	76.723887
1546.000000	77.205397
1545.000000	77.713529
1544.000000	78.210703
1543.000000	78.690448
1542.000000	79.172845
1541.000000	79.668281
1540.000000	80.181547
1539.000000	80.700869
1538.000000	81.149561
1537.000000	81.490238
1536.000000	81.775976
1535.000000	82.066243
1534.000000	82.370673
1533.000000	82.673782
1532.000000	82.960177
1531.000000	83.228689
1530.000000	83.496774
1529.000000	83.768319
1528.000000	84.031293
1527.000000	84.284334
1526.000000	84.528124
1525.000000	84.753746
1524.000000	84.958788
1523.000000	85.149807
1522.000000	85.322135
1521.000000	85.469577
1520.000000	85.592610
1519.000000	85.696106
1518.000000	85.789780
1517.000000	85.877679
1516.000000	85.969095
1515.000000	86.079121
1514.000000	86.209172
1513.000000	86.355117
1512.000000	86.506244
1511.000000	86.651307
1510.000000	86.786137
1509.000000	86.901845
1508.000000	86.961577
1507.000000	86.962480
1506.000000	87.007999
1505.000000	87.111990
1504.000000	87.204546
1503.000000	87.284954
1502.000000	87.376662
1501.000000	87.480749
1500.000000	87.590895
1499.000000	87.702018
1498.000000	87.807194
1497.000000	87.905895
1496.000000	87.998420
1495.000000	88.079697
1494.000000	88.146624
1493.000000	88.205395
1492.000000	88.260695
1491.000000	88.308599
1490.000000	88.349978
1489.000000	88.398217
1488.000000	88.457819
1487.000000	88.526412
1486.000000	88.599829
1485.000000	88.651186
1484.000000	88.661910
1483.000000	88.628837
1482.000000	88.542141
1481.000000	88.393326
1480.000000	88.189092
1479.000000	87.930419
1478.000000	87.577945
1477.000000	87.081494
1476.000000	86.436208
1475.000000	85.676567
1474.000000	84.801891
1473.000000	83.817855
1472.000000	82.857640
1471.000000	82.086775
1470.000000	81.541283
1469.000000	81.177860
1468.000000	80.973899
1467.000000	80.945142
1466.000000	81.120046
1465.000000	81.494360
1464.000000	81.994248
1463.000000	82.486120
1462.000000	82.865501
1461.000000	83.095274
1460.000000	83.165169
1459.000000	83.041572
1458.000000	82.663455
1457.000000	82.088807
1456.000000	81.546499
1455.000000	81.170347
1454.000000	80.921451
1453.000000	80.745931
1452.000000	80.623030
1451.000000	80.546508
1450.000000	80.514780
1449.000000	80.535278
1448.000000	80.612747
1447.000000	80.739451
1446.000000	80.897523
1445.000000	81.088846
1444.000000	81.336547
1443.000000	81.648221
1442.000000	82.017973
1441.000000	82.445377
1440.000000	82.935907
1439.000000	83.484478
1438.000000	84.078601
1437.000000	84.693884
1436.000000	85.272138
1435.000000	85.737809
1434.000000	86.082752
1433.000000	86.365493
1432.000000	86.625250
1431.000000	86.858289
1430.000000	87.056844
1429.000000	87.236472
1428.000000	87.407910
1427.000000	87.566791
1426.000000	87.702704
1425.000000	87.811585
1424.000000	87.904206
1423.000000	87.990034
1422.000000	88.076503
1421.000000	88.167714
1420.000000	88.253650
1419.000000	88.317610
1418.000000	88.365878
1417.000000	88.423525
1416.000000	88.503363
1415.000000	88.596888
1414.000000	88.687701
1413.000000	88.769828
1412.000000	88.843785
1411.000000	88.902146
1410.000000	88.941022
1409.000000	88.975612
1408.000000	89.018617
1407.000000	89.067569
1406.000000	89.112875
1405.000000	89.153009
1404.000000	89.196646
1403.000000	89.240347
1402.000000	89.267006
1401.000000	89.253139
1400.000000	89.172702
1399.000000	89.022419
1398.000000	88.845753
1397.000000	88.706733
1396.000000	88.645541
1395.000000	88.666397
1394.000000	88.740368
1393.000000	88.832468
1392.000000	88.931974
1391.000000	89.049659
1390.000000	89.198449
1389.000000	89.380366
1388.000000	89.582332
1387.000000	89.782660
1386.000000	89.961658
1385.000000	90.107781
1384.000000	90.218295
1383.000000	90.292535
1382.000000	90.338312
1381.000000	90.372271
1380.000000	90.405432
1379.000000	90.437017
1378.000000	90.459063
1377.000000	90.453151
1376.000000	90.369250
1375.000000	90.110025
1374.000000	89.544012
1373.000000	88.562481
1372.000000	87.143399
1371.000000	85.405196
1370.000000	83.635530
1369.000000	82.246249
1368.000000	81.588173
1367.000000	81.713753
1366.000000	82.356499
1365.000000	83.131936
1364.000000	83.710523
1363.000000	83.893782
1362.000000	83.674088
1361.000000	83.257258
1360.000000	82.965562
1359.000000	83.069366
1358.000000	83.654087
1357.000000	84.587977
1356.000000	85.622021
1355.000000	86.543753
1354.000000	87.265689
1353.000000	87.810169
1352.000000	88.234278
1351.000000	88.585037
1350.000000	88.890769
1349.000000	89.163650
1348.000000	89.406107
1347.000000	89.615925
1346.000000	89.790289
1345.000000	89.927349
1344.000000	90.029854
1343.000000	90.105944
1342.000000	90.165566
1341.000000	90.215037
1340.000000	90.259339
1339.000000	90.309745
1338.000000	90.380337
1337.000000	90.477138
1336.000000	90.592726
1335.000000	90.708892
1334.000000	90.801303
1333.000000	90.838696
1332.000000	90.782269
1331.000000	90.593314
1330.000000	90.247060
1329.000000	89.744188
1328.000000	89.099473
1327.000000	88.319910
1326.000000	87.403572
1325.000000	86.385393
1324.000000	85.399290
1323.000000	84.657235
1322.000000	84.318731
1321.000000	84.370629
1320.000000	84.643694
1319.000000	84.943417
1318.000000	85.170517
1317.000000	85.332127
1316.000000	85.474807
1315.000000	85.635451
1314.000000	85.839391
1313.000000	86.115482
1312.000000	86.490087
1311.000000	86.962601
1310.000000	87.491940
1309.000000	88.009582
1308.000000	88.445841
1307.000000	88.753686
1306.000000	88.917233
1305.000000	88.940639
1304.000000	88.834510
1303.000000	88.608736
1302.000000	88.273838
1301.000000	87.852067
1300.000000	87.391762
1299.000000	86.971921
1298.000000	86.677437
1297.000000	86.551332
1296.000000	86.563276
1295.000000	86.620263
1294.000000	86.610703
1293.000000	86.447774
1292.000000	86.088912
1291.000000	85.531366
1290.000000	84.791412
1289.000000	83.894698
1288.000000	82.899485
1287.000000	81.930442
1286.000000	81.163843
1285.000000	80.749780
1284.000000	80.733520
1283.000000	81.046550
1282.000000	81.575860
1281.000000	82.234559
1280.000000	82.966866
1279.000000	83.700861
1278.000000	84.327818
1277.000000	84.746469
1276.000000	84.917676
1275.000000	84.875876
1274.000000	84.707344
1273.000000	84.528949
1272.000000	84.467692
1271.000000	84.622524
1270.000000	85.019039
1269.000000	85.596674
1268.000000	86.244480
1267.000000	86.857426
1266.000000	87.375104
1265.000000	87.788594
1264.000000	88.122405
1263.000000	88.409310
1262.000000	88.674790
1261.000000	88.933732
1260.000000	89.190747
1259.000000	89.439949
1258.000000	89.669900
1257.000000	89.869232
1256.000000	90.029505
1255.000000	90.146297
1254.000000	90.220974
1253.000000	90.262854
1252.000000	90.285945
1251.000000	90.304629
1250.000000	90.332338
1249.000000	90.380796
1248.000000	90.457651
1247.000000	90.562946
1246.000000	90.688572
1245.000000	90.821282
1244.000000	90.945619
1243.000000	91.046801
1242.000000	91.114577
1241.000000	91.145829
1240.000000	91.143825
1239.000000	91.116180
1238.000000	91.074710
1237.000000	91.033863
1236.000000	91.006257
1235.000000	90.999314
1234.000000	91.014597
1233.000000	91.048376
1232.000000	91.090946
1231.000000	91.126815
1230.000000	91.139061
1229.000000	91.113096
1228.000000	91.037873
1227.000000	90.905805
1226.000000	90.713592
1225.000000	90.463771
1224.000000	90.158770
1223.000000	89.796312
1222.000000	89.368453
1221.000000	88.861941
1220.000000	88.264627
1219.000000	87.568954
1218.000000	86.775976
1217.000000	85.898790
1216.000000	84.964628
1215.000000	84.017556
1214.000000	83.118634
1213.000000	82.340962
1212.000000	81.757136
1211.000000	81.418472
1210.000000	81.328291
1209.000000	81.440362
1208.000000	81.678963
1207.000000	81.957872
1206.000000	82.197201
1205.000000	82.333856
1204.000000	82.327689
1203.000000	82.162752
1202.000000	81.850367
1201.000000	81.438765
1200.000000	81.016055
1199.000000	80.692103
1198.000000	80.561758
1197.000000	80.672277
1196.000000	81.017730
1195.000000	81.549947
1194.000000	82.201217
1193.000000	82.909615
1192.000000	83.628364
1191.000000	84.324085
1190.000000	84.971157
1189.000000	85.553148
1188.000000	86.065129
1187.000000	86.510276
1186.000000	86.895907
1185.000000	87.234590
1184.000000	87.543525
1183.000000	87.836964
1182.000000	88.122324
1181.000000	88.398487
1180.000000	88.657215
1179.000000	88.886271
1178.000000	89.072973
1177.000000	89.210530
1176.000000	89.297105
1175.000000	89.333109
1174.000000	89.321850
1173.000000	89.267413
1172.000000	89.172523
1171.000000	89.032207
1170.000000	88.832009
1169.000000	88.552559
1168.000000	88.173399
1167.000000	87.684243
1166.000000	87.100190
1165.000000	86.473462
1164.000000	85.889274
1163.000000	85.442249
1162.000000	85.201489
1161.000000	85.189547
1160.000000	85.383371
1159.000000	85.724989
1158.000000	86.144502
1157.000000	86.580318
1156.000000	86.989864
1155.000000	87.348260
1154.000000	87.641526
1153.000000	87.864024
1152.000000	88.015821
1151.000000	88.098070
1150.000000	88.109229
1149.000000	88.049230
1148.000000	87.915377
1147.000000	87.697692
1146.000000	87.377037
1145.000000	86.922097
1144.000000	86.296775
1143.000000	85.461304
1142.000000	84.386050
1141.000000	83.079056
1140.000000	81.604342
1139.000000	80.077801
1138.000000	78.621303
1137.000000	77.306911
1136.000000	76.129935
1135.000000	75.032187
1134.000000	73.963041
1133.000000	72.961936
1132.000000	72.194461
1131.000000	71.885979
1130.000000	72.203197
1129.000000	73.148004
1128.000000	74.551576
1127.000000	76.145801
1126.000000	77.651967
1125.000000	78.849518
1124.000000	79.595449
1123.000000	79.809791
1122.000000	79.465634
1121.000000	78.592368
1120.000000	77.250965
1119.000000	75.525214
1118.000000	73.561784
1117.000000	71.639351
1116.000000	70.172092
1115.000000	69.570392
1114.000000	70.020902
1113.000000	71.372024
1112.000000	73.214652
1111.000000	75.055567
1110.000000	76.504470
1109.000000	77.400933
1108.000000	77.837416
1107.000000	78.063274
1106.000000	78.316416
1105.000000	78.695411
1104.000000	79.152553
1103.000000	79.568306
1102.000000	79.807051
1101.000000	79.749198
1100.000000	79.331705
1099.000000	78.622137
1098.000000	77.864983
1097.000000	77.410611
1096.000000	77.537263
1095.000000	78.293261
1094.000000	79.482544
1093.000000	80.800583
1092.000000	82.004925
1091.000000	82.986951
1090.000000	83.748829
1089.000000	84.345985
1088.000000	84.841323
1087.000000	85.283859
1086.000000	85.705294
1085.000000	86.121138
1084.000000	86.529733
1083.000000	86.917435
1082.000000	87.265178
1081.000000	87.558649
1080.000000	87.791372
1079.000000	87.960758
1078.000000	88.071418
1077.000000	88.133004
1076.000000	88.153159
1075.000000	88.129994
1074.000000	88.046273
1073.000000	87.876140
1072.000000	87.570795
1071.000000	87.048574
1070.000000	86.195859
1069.000000	84.863265
1068.000000	82.898374
1067.000000	80.210473
1066.000000	76.892688
1065.000000	73.324145
1064.000000	70.110219
1063.000000	67.811701
1062.000000	66.595991
1061.000000	66.088421
1060.000000	65.592438
1059.000000	64.568272
1058.000000	63.006705
1057.000000	61.465090
1056.000000	60.718352
1055.000000	61.249421
1054.000000	62.997180
1053.000000	65.476067
1052.000000	68.122637
1051.000000	70.560679
1050.000000	72.636687
1049.000000	74.350211
1048.000000	75.772880
1047.000000	76.992052
1046.000000	78.071384
1045.000000	79.042764
1044.000000	79.914870
1043.000000	80.688235
1042.000000	81.360318
1041.000000	81.923008
1040.000000	82.375909
1039.000000	82.727189
1038.000000	82.990849
1037.000000	83.185115
1036.000000	83.332658
1035.000000	83.462165
1034.000000	83.598343
1033.000000	83.754520
1032.000000	83.933875
1031.000000	84.131354
1030.000000	84.334851
1029.000000	84.526163
1028.000000	84.685870
1027.000000	84.798204
1026.000000	84.852054
1025.000000	84.844437
1024.000000	84.783082
1023.000000	84.684664
1022.000000	84.569387
1021.000000	84.451987
1020.000000	84.338372
1019.000000	84.219658
1018.000000	84.066150
1017.000000	83.831233
1016.000000	83.459084
1015.000000	82.904048
1014.000000	82.152911
1013.000000	81.246259
1012.000000	80.285214
1011.000000	79.399326
1010.000000	78.683329
1009.000000	78.143274
1008.000000	77.704546
1007.000000	77.287452
1006.000000	76.907711
1005.000000	76.707469
1004.000000	76.873584
1003.000000	77.493193
1002.000000	78.462800
1001.000000	79.544258
1000.000000	80.496592
999.000000	81.170161
998.000000	81.519996
997.000000	81.576699
996.000000	81.423861
995.000000	81.183019
994.000000	80.990740
993.000000	80.965106
992.000000	81.174681
991.000000	81.615772
990.000000	82.211539
989.000000	82.848394
988.000000	83.430707
987.000000	83.910888
986.000000	84.286517
985.000000	84.582196
984.000000	84.832948
983.000000	85.071989
982.000000	85.321558
981.000000	85.589188
980.000000	85.870530
979.000000	86.154090
978.000000	86.421092
977.000000	86.649792
976.000000	86.823809
975.000000	86.938210
974.000000	87.000406
973.000000	87.026116
972.000000	87.036993
971.000000	87.056883
970.000000	87.105075
969.000000	87.191548
968.000000	87.316185
967.000000	87.469969
966.000000	87.636394
965.000000	87.795283
964.000000	87.928890
963.000000	88.026009
962.000000	88.083128
961.000000	88.104501
960.000000	88.101677
959.000000	88.091400
958.000000	88.090629
957.000000	88.112188
956.000000	88.163246
955.000000	88.244673
954.000000	88.350304
953.000000	88.468247
952.000000	88.584673
951.000000	88.687343
950.000000	88.767437
949.000000	88.820959
948.000000	88.849759
947.000000	88.860655
946.000000	88.862763
945.000000	88.865386
944.000000	88.877869
943.000000	88.908525
942.000000	88.961474
941.000000	89.034793
940.000000	89.122291
939.000000	89.216041
938.000000	89.307171
937.000000	89.386369
936.000000	89.446143
935.000000	89.483404
934.000000	89.500063
933.000000	89.501513
932.000000	89.495206
931.000000	89.490307
930.000000	89.496323
929.000000	89.520592
928.000000	89.566509
927.000000	89.633302
926.000000	89.716021
925.000000	89.805469
924.000000	89.889437
923.000000	89.956090
922.000000	89.997705
921.000000	90.012393
920.000000	90.003815
919.000000	89.980836
918.000000	89.956476
917.000000	89.944457
916.000000	89.955081
915.000000	89.992996
914.000000	90.056733
913.000000	90.138966
912.000000	90.226956
911.000000	90.305237
910.000000	90.358559
909.000000	90.372591
908.000000	90.333404
907.000000	90.227261
906.000000	90.044155
905.000000	89.779008
904.000000	89.433852
903.000000	89.029828
902.000000	88.623145
901.000000	88.303750
900.000000	88.162131
899.000000	88.238673
898.000000	88.495156
897.000000	88.839308
896.000000	89.176705
895.000000	89.450889
894.000000	89.650681
893.000000	89.790499
892.000000	89.890106
891.000000	89.965337
890.000000	90.029124
889.000000	90.093392
888.000000	90.166314
887.000000	90.243295
886.000000	90.301542
885.000000	90.306729
884.000000	90.230649
883.000000	90.072805
882.000000	89.866387
881.000000	89.659998
880.000000	89.484089
879.000000	89.332392
878.000000	89.180845
877.000000	89.028615
876.000000	88.919293
875.000000	88.913555
874.000000	89.039642
873.000000	89.268908
872.000000	89.537620
871.000000	89.788352
870.000000	89.994533
869.000000	90.158524
868.000000	90.294933
867.000000	90.416765
866.000000	90.528996
865.000000	90.628786
864.000000	90.708438
863.000000	90.760753
862.000000	90.783949
861.000000	90.783454
860.000000	90.770829
859.000000	90.760324
858.000000	90.765649
857.000000	90.796923
856.000000	90.857929
855.000000	90.944325
854.000000	91.043772
853.000000	91.138912
852.000000	91.212210
851.000000	91.250625
850.000000	91.248810
849.000000	91.210417
848.000000	91.148428
847.000000	91.083811
846.000000	91.040661
845.000000	91.038766
844.000000	91.087526
843.000000	91.183480
842.000000	91.311183
841.000000	91.446504
840.000000	91.561924
839.000000	91.633511
838.000000	91.647576
837.000000	91.603881
836.000000	91.515121
835.000000	91.405410
834.000000	91.306393
833.000000	91.248963
832.000000	91.253792
831.000000	91.326419
830.000000	91.457408
829.000000	91.624686
828.000000	91.796582
827.000000	91.937698
826.000000	92.018633
825.000000	92.025127
824.000000	91.961784
823.000000	91.850323
822.000000	91.724159
821.000000	91.619840
820.000000	91.568121
819.000000	91.587217
818.000000	91.678818
817.000000	91.826980
816.000000	92.000599
815.000000	92.160132
814.000000	92.267139
813.000000	92.292058
812.000000	92.219842
811.000000	92.054588
810.000000	91.821554
809.000000	91.560957
808.000000	91.313822
807.000000	91.110009
806.000000	90.960625
805.000000	90.854325
804.000000	90.757709
803.000000	90.619187
802.000000	90.380380
801.000000	89.987194
800.000000	89.399873
799.000000	88.603140
798.000000	87.609944
797.000000	86.461688
796.000000	85.220871
795.000000	83.961924
794.000000	82.761356
793.000000	81.690662
792.000000	80.812288
791.000000	80.174162
790.000000	79.802569
789.000000	79.694677
788.000000	79.820430
787.000000	80.124294
786.000000	80.535447
785.000000	80.986030
784.000000	81.423792
783.000000	81.817008
782.000000	82.150248
781.000000	82.421046
780.000000	82.635794
779.000000	82.804735
778.000000	82.936709
777.000000	83.034002
776.000000	83.086632
775.000000	83.070887
774.000000	82.962612
773.000000	82.760297
772.000000	82.502562
771.000000	82.263242
770.000000	82.127563
769.000000	82.163529
768.000000	82.403973
767.000000	82.842920
766.000000	83.444557
765.000000	84.159063
764.000000	84.931584
763.000000	85.704825
762.000000	86.421045
761.000000	87.029129
760.000000	87.493512
759.000000	87.802724
758.000000	87.974366
757.000000	88.051352
756.000000	88.090424
755.000000	88.148734
754.000000	88.274317
753.000000	88.497590
752.000000	88.823592
751.000000	89.229060
750.000000	89.667191
749.000000	90.077499
748.000000	90.397754
747.000000	90.580122
746.000000	90.608621
745.000000	90.505385
744.000000	90.321358
743.000000	90.120472
742.000000	89.966839
741.000000	89.913571
740.000000	89.989760
739.000000	90.191396
738.000000	90.482649
737.000000	90.804463
736.000000	91.085384
735.000000	91.257199
734.000000	91.275216
733.000000	91.132202
732.000000	90.858014
731.000000	90.510675
730.000000	90.164240
729.000000	89.891837
728.000000	89.745899
727.000000	89.743580
726.000000	89.864452
725.000000	90.058538
724.000000	90.255424
723.000000	90.373300
722.000000	90.331338
721.000000	90.066514
720.000000	89.552963
719.000000	88.817768
718.000000	87.941926
717.000000	87.044313
716.000000	86.256065
715.000000	85.691469
714.000000	85.423479
713.000000	85.467721
712.000000	85.778282
711.000000	86.261753
710.000000	86.809994
709.000000	87.331280
708.000000	87.764511
707.000000	88.082548
706.000000	88.292905
705.000000	88.433607
704.000000	88.557011
703.000000	88.710768
702.000000	88.929816
701.000000	89.232390
700.000000	89.611090
699.000000	90.031863
698.000000	90.447796
697.000000	90.815175
696.000000	91.097127
695.000000	91.265226
694.000000	91.313243
693.000000	91.264992
692.000000	91.162486
691.000000	91.049532
690.000000	90.966907
689.000000	90.953147
688.000000	91.032036
687.000000	91.198447
686.000000	91.426554
685.000000	91.682763
684.000000	91.924363
683.000000	92.104431
682.000000	92.193771
681.000000	92.191175
680.000000	92.107588
679.000000	91.957895
678.000000	91.774392
677.000000	91.606735
676.000000	91.501455
675.000000	91.484534
674.000000	91.568463
673.000000	91.769748
672.000000	92.102535
671.000000	92.548805
670.000000	93.032403
669.000000	93.355500
668.000000	93.259354
667.000000	92.827107
666.000000	92.390385
665.000000	92.055601
664.000000	91.806531
663.000000	91.646580
662.000000	91.597408
661.000000	91.661293
660.000000	91.815405
659.000000	92.032880
658.000000	92.277683
657.000000	92.492216
656.000000	92.621112
655.000000	92.640654
654.000000	92.549508
653.000000	92.358965
652.000000	92.108260
651.000000	91.865015
650.000000	91.689179
649.000000	91.605920
648.000000	91.622800
647.000000	91.743134
646.000000	91.943582
645.000000	92.166068
644.000000	92.347314
643.000000	92.443391
642.000000	92.426747
641.000000	92.283986
640.000000	92.033695
639.000000	91.733757
638.000000	91.453791
637.000000	91.245158
636.000000	91.141199
635.000000	91.160805
634.000000	91.291728
633.000000	91.484937
632.000000	91.679213
631.000000	91.822048
630.000000	91.868660
629.000000	91.786405
628.000000	91.576610
627.000000	91.281796
626.000000	90.961812
625.000000	90.669830
624.000000	90.450025
623.000000	90.337299
622.000000	90.339567
621.000000	90.428030
620.000000	90.553945
619.000000	90.662730
618.000000	90.693774
617.000000	90.593943
616.000000	90.349843
615.000000	89.995510
614.000000	89.580961
613.000000	89.146752
612.000000	88.730524
611.000000	88.372108
610.000000	88.090554
609.000000	87.866717
608.000000	87.662281
607.000000	87.438460
606.000000	87.147450
605.000000	86.735742
604.000000	86.177045
603.000000	85.490282
602.000000	84.709790
601.000000	83.858794
600.000000	82.967331
599.000000	82.088472
598.000000	81.264356
597.000000	80.493321
596.000000	79.755533
595.000000	79.045128
594.000000	78.352432
593.000000	77.643687
592.000000	76.895702
591.000000	76.129672
590.000000	75.384557
589.000000	74.682318
588.000000	74.041212
587.000000	73.483558
586.000000	72.993732
585.000000	72.503637
584.000000	71.958856
583.000000	71.370094
582.000000	70.777315
581.000000	70.211598
580.000000	69.725268
579.000000	69.414773
578.000000	69.354717
577.000000	69.545090
576.000000	69.942237
575.000000	70.486925
574.000000	71.084563
573.000000	71.614698
572.000000	72.013152
571.000000	72.326018
570.000000	72.662781
569.000000	73.112431
568.000000	73.708843
567.000000	74.429130
566.000000	75.192556
565.000000	75.897899
564.000000	76.489285
563.000000	76.970807
562.000000	77.359863
561.000000	77.661798
560.000000	77.896857
559.000000	78.109423
558.000000	78.330708
557.000000	78.561096
556.000000	78.802951
555.000000	79.081250
554.000000	79.410433
553.000000	79.771560
552.000000	80.139545
551.000000	80.504004
550.000000	80.849624
549.000000	81.147055
548.000000	81.382934
547.000000	81.575597
546.000000	81.747518
545.000000	81.905884
544.000000	82.063067
543.000000	82.247629
542.000000	82.477015
541.000000	82.739600
540.000000	83.017313
539.000000	83.300265
538.000000	83.567109
537.000000	83.779610
536.000000	83.915807
535.000000	83.991276
534.000000	84.033764
533.000000	84.058991
532.000000	84.078936
531.000000	84.115167
530.000000	84.183059
529.000000	84.273467
528.000000	84.362165
527.000000	84.426834
526.000000	84.438820
525.000000	84.362434
524.000000	84.182886
523.000000	83.919081
522.000000	83.606873
521.000000	83.278956
520.000000	82.960771
519.000000	82.654952
518.000000	82.307105
517.000000	81.816585
516.000000	81.110438
515.000000	80.205439
514.000000	79.197285
513.000000	78.219219
512.000000	77.416644
511.000000	76.919245
510.000000	76.785262
509.000000	76.981474
508.000000	77.437340
507.000000	78.082234
506.000000	78.831092
505.000000	79.594762
504.000000	80.330302
503.000000	81.051623
502.000000	81.770418
501.000000	82.462185
500.000000	83.099818
499.000000	83.682521
498.000000	84.207354
497.000000	84.649035
496.000000	84.985276
495.000000	85.220291
494.000000	85.375343
493.000000	85.470763
492.000000	85.539973
491.000000	85.638847
490.000000	85.813100
489.000000	86.071254
488.000000	86.395399
487.000000	86.762235
486.000000	87.135161
485.000000	87.454459
484.000000	87.663653
483.000000	87.742862
482.000000	87.705759
481.000000	87.578313
480.000000	87.401321
479.000000	87.236723
478.000000	87.138797
477.000000	87.127456
476.000000	87.198246
475.000000	87.334235
474.000000	87.484534
473.000000	87.551285
472.000000	87.441593
471.000000	87.141567
470.000000	86.706366
469.000000	86.209461
468.000000	85.735987
467.000000	85.373328
466.000000	85.144812
465.000000	84.980019
464.000000	84.787956
463.000000	84.551517
462.000000	84.345674
461.000000	84.281572
460.000000	84.456285
459.000000	84.903869
458.000000	85.526866
457.000000	86.114824
456.000000	86.517891
455.000000	86.753779
454.000000	86.912622
453.000000	87.059903
452.000000	87.246455
451.000000	87.525555
450.000000	87.897130
449.000000	88.275668
448.000000	88.535429
447.000000	88.573948
446.000000	88.344347
445.000000	87.862705
444.000000	87.222327
443.000000	86.596620
442.000000	86.164208
441.000000	86.008801
440.000000	86.125692
439.000000	86.478664
438.000000	87.002859
437.000000	87.593988
436.000000	88.141954
435.000000	88.572799
434.000000	88.842451
433.000000	88.915994
432.000000	88.783845
431.000000	88.495968
430.000000	88.149429
429.000000	87.830925
428.000000	87.605226
427.000000	87.527803
426.000000	87.608497
425.000000	87.785896
424.000000	87.988084
423.000000	88.192433
422.000000	88.378502
421.000000	88.466017
420.000000	88.350946
419.000000	88.036689
418.000000	87.680195
417.000000	87.393568
416.000000	87.176518
415.000000	87.053772
414.000000	87.083858
413.000000	87.272251
412.000000	87.563962
411.000000	87.897881
410.000000	88.212196
409.000000	88.422554
408.000000	88.488248
407.000000	88.459473
406.000000	88.402089
405.000000	88.293702
404.000000	88.093648
403.000000	87.873324
402.000000	87.710985
401.000000	87.604160
400.000000	87.491408
