PE IR       SUBTECH     SPECTRUM    ASCII       PEDS        4.00        
   -1
23ms272-trans.asc
24/09/24
16:42:15.00
24/09/24
16:42:15.00
Administrator
Sample 1202 By Administrator Date Tuesday, September 24 2024
400.000000
#HDR
-1
-1
#GR
cm-1
%T
1.0
0.0
4000.000000
-1.000000
3601
8
86.969214
29.746732
#DATA
4000.000000	64.090007
3999.000000	64.046340
3998.000000	64.006055
3997.000000	63.969898
3996.000000	63.937401
3995.000000	63.907176
3994.000000	63.877777
3993.000000	63.847838
3992.000000	63.815478
3991.000000	63.777870
3990.000000	63.731965
3989.000000	63.675964
3988.000000	63.610004
3987.000000	63.536187
3986.000000	63.458445
3985.000000	63.382024
3984.000000	63.312416
3983.000000	63.254251
3982.000000	63.210903
3981.000000	63.184620
3980.000000	63.176632
3979.000000	63.186987
3978.000000	63.214641
3977.000000	63.257373
3976.000000	63.312225
3975.000000	63.376316
3974.000000	63.447123
3973.000000	63.523279
3972.000000	63.604254
3971.000000	63.689225
3970.000000	63.775973
3969.000000	63.861216
3968.000000	63.941846
3967.000000	64.015460
3966.000000	64.080748
3965.000000	64.137575
3964.000000	64.186807
3963.000000	64.229348
3962.000000	64.265639
3961.000000	64.296164
3960.000000	64.322322
3959.000000	64.346506
3958.000000	64.370585
3957.000000	64.395776
3956.000000	64.422952
3955.000000	64.452066
3954.000000	64.482712
3953.000000	64.514607
3952.000000	64.548287
3951.000000	64.584712
3950.000000	64.624381
3949.000000	64.666760
3948.000000	64.709595
3947.000000	64.751059
3946.000000	64.791884
3945.000000	64.833767
3944.000000	64.875920
3943.000000	64.914725
3942.000000	64.949167
3941.000000	64.982962
3940.000000	65.019243
3939.000000	65.056850
3938.000000	65.091079
3937.000000	65.118871
3936.000000	65.142590
3935.000000	65.166565
3934.000000	65.193380
3933.000000	65.222097
3932.000000	65.250994
3931.000000	65.278792
3930.000000	65.303055
3929.000000	65.322911
3928.000000	65.340376
3927.000000	65.359297
3926.000000	65.379617
3925.000000	65.395435
3924.000000	65.404966
3923.000000	65.414091
3922.000000	65.426812
3921.000000	65.440933
3920.000000	65.454019
3919.000000	65.469253
3918.000000	65.489914
3917.000000	65.512941
3916.000000	65.533755
3915.000000	65.552217
3914.000000	65.571222
3913.000000	65.592144
3912.000000	65.614147
3911.000000	65.638288
3910.000000	65.664798
3909.000000	65.692101
3908.000000	65.719527
3907.000000	65.745445
3906.000000	65.767708
3905.000000	65.782030
3904.000000	65.789240
3903.000000	65.800385
3902.000000	65.824585
3901.000000	65.858975
3900.000000	65.891085
3899.000000	65.911720
3898.000000	65.925024
3897.000000	65.938992
3896.000000	65.954535
3895.000000	65.971299
3894.000000	65.991053
3893.000000	66.016024
3892.000000	66.040633
3891.000000	66.054641
3890.000000	66.058627
3889.000000	66.063131
3888.000000	66.077642
3887.000000	66.099610
3886.000000	66.114647
3885.000000	66.118120
3884.000000	66.123379
3883.000000	66.139761
3882.000000	66.159652
3881.000000	66.169968
3880.000000	66.167907
3879.000000	66.164412
3878.000000	66.171069
3877.000000	66.189738
3876.000000	66.214497
3875.000000	66.234282
3874.000000	66.242822
3873.000000	66.250278
3872.000000	66.272862
3871.000000	66.305508
3870.000000	66.323584
3869.000000	66.323413
3868.000000	66.327330
3867.000000	66.347572
3866.000000	66.371739
3865.000000	66.382365
3864.000000	66.383519
3863.000000	66.392555
3862.000000	66.409783
3861.000000	66.426816
3860.000000	66.442076
3859.000000	66.458673
3858.000000	66.480311
3857.000000	66.508016
3856.000000	66.541547
3855.000000	66.565016
3854.000000	66.557329
3853.000000	66.536921
3852.000000	66.539122
3851.000000	66.557433
3850.000000	66.564410
3849.000000	66.553712
3848.000000	66.536413
3847.000000	66.527939
3846.000000	66.533270
3845.000000	66.547871
3844.000000	66.566594
3843.000000	66.584813
3842.000000	66.602006
3841.000000	66.625144
3840.000000	66.651586
3839.000000	66.669383
3838.000000	66.677273
3837.000000	66.683919
3836.000000	66.695919
3835.000000	66.710875
3834.000000	66.725466
3833.000000	66.738984
3832.000000	66.748124
3831.000000	66.753379
3830.000000	66.762521
3829.000000	66.780745
3828.000000	66.804898
3827.000000	66.826265
3826.000000	66.838085
3825.000000	66.848412
3824.000000	66.871563
3823.000000	66.908538
3822.000000	66.940897
3821.000000	66.949910
3820.000000	66.947723
3819.000000	66.958780
3818.000000	66.986610
3817.000000	67.013018
3816.000000	67.019406
3815.000000	67.015924
3814.000000	67.029240
3813.000000	67.058987
3812.000000	67.081726
3811.000000	67.089324
3810.000000	67.096674
3809.000000	67.118666
3808.000000	67.149891
3807.000000	67.171881
3806.000000	67.182896
3805.000000	67.201431
3804.000000	67.234540
3803.000000	67.271148
3802.000000	67.285633
3801.000000	67.270429
3800.000000	67.256207
3799.000000	67.263307
3798.000000	67.280536
3797.000000	67.290938
3796.000000	67.292775
3795.000000	67.298252
3794.000000	67.316450
3793.000000	67.340776
3792.000000	67.359342
3791.000000	67.371160
3790.000000	67.382836
3789.000000	67.397659
3788.000000	67.415467
3787.000000	67.436809
3786.000000	67.461810
3785.000000	67.486418
3784.000000	67.505395
3783.000000	67.520992
3782.000000	67.539235
3781.000000	67.559647
3780.000000	67.574746
3779.000000	67.582340
3778.000000	67.590033
3777.000000	67.604759
3776.000000	67.622555
3775.000000	67.634085
3774.000000	67.637296
3773.000000	67.639102
3772.000000	67.644773
3771.000000	67.649048
3770.000000	67.644760
3769.000000	67.637386
3768.000000	67.637871
3767.000000	67.647822
3766.000000	67.659941
3765.000000	67.665306
3764.000000	67.665217
3763.000000	67.670524
3762.000000	67.685817
3761.000000	67.704560
3760.000000	67.719336
3759.000000	67.736352
3758.000000	67.761676
3757.000000	67.787972
3756.000000	67.810350
3755.000000	67.832893
3754.000000	67.860515
3753.000000	67.888665
3752.000000	67.909694
3751.000000	67.929424
3750.000000	67.953596
3749.000000	67.972756
3748.000000	67.980850
3747.000000	67.990183
3746.000000	68.011676
3745.000000	68.025394
3744.000000	68.016152
3743.000000	68.013973
3742.000000	68.034679
3741.000000	68.055248
3740.000000	68.057633
3739.000000	68.053287
3738.000000	68.065772
3737.000000	68.097149
3736.000000	68.131497
3735.000000	68.156258
3734.000000	68.174832
3733.000000	68.191122
3732.000000	68.199000
3731.000000	68.198567
3730.000000	68.198358
3729.000000	68.206739
3728.000000	68.225162
3727.000000	68.244582
3726.000000	68.259362
3725.000000	68.275301
3724.000000	68.296789
3723.000000	68.317696
3722.000000	68.333006
3721.000000	68.349240
3720.000000	68.371517
3719.000000	68.398567
3718.000000	68.423875
3717.000000	68.441213
3716.000000	68.454792
3715.000000	68.471119
3714.000000	68.490722
3713.000000	68.508994
3712.000000	68.522850
3711.000000	68.535597
3710.000000	68.549361
3709.000000	68.562818
3708.000000	68.573370
3707.000000	68.578872
3706.000000	68.582077
3705.000000	68.588675
3704.000000	68.601176
3703.000000	68.615613
3702.000000	68.626788
3701.000000	68.635641
3700.000000	68.646071
3699.000000	68.660301
3698.000000	68.678017
3697.000000	68.694739
3696.000000	68.708392
3695.000000	68.723443
3694.000000	68.743187
3693.000000	68.766454
3692.000000	68.790775
3691.000000	68.815214
3690.000000	68.838133
3689.000000	68.858414
3688.000000	68.877082
3687.000000	68.893477
3686.000000	68.905840
3685.000000	68.913145
3684.000000	68.914657
3683.000000	68.914672
3682.000000	68.922740
3681.000000	68.939984
3680.000000	68.956812
3679.000000	68.965692
3678.000000	68.976455
3677.000000	68.998403
3676.000000	69.014586
3675.000000	69.012576
3674.000000	69.006517
3673.000000	69.007748
3672.000000	69.012406
3671.000000	69.010877
3670.000000	68.996951
3669.000000	68.983804
3668.000000	68.986695
3667.000000	68.996776
3666.000000	68.999078
3665.000000	68.992888
3664.000000	68.985334
3663.000000	68.982920
3662.000000	68.984931
3661.000000	68.984377
3660.000000	68.979843
3659.000000	68.974676
3658.000000	68.971288
3657.000000	68.964714
3656.000000	68.949357
3655.000000	68.930241
3654.000000	68.913163
3653.000000	68.897409
3652.000000	68.880292
3651.000000	68.858073
3650.000000	68.829507
3649.000000	68.801209
3648.000000	68.776781
3647.000000	68.749002
3646.000000	68.711259
3645.000000	68.666717
3644.000000	68.622165
3643.000000	68.582037
3642.000000	68.545440
3641.000000	68.511118
3640.000000	68.480875
3639.000000	68.452818
3638.000000	68.422009
3637.000000	68.387126
3636.000000	68.353276
3635.000000	68.322429
3634.000000	68.288266
3633.000000	68.247686
3632.000000	68.206045
3631.000000	68.168929
3630.000000	68.129652
3629.000000	68.078307
3628.000000	68.026592
3627.000000	67.990661
3626.000000	67.959809
3625.000000	67.916988
3624.000000	67.862508
3623.000000	67.807531
3622.000000	67.760523
3621.000000	67.717688
3620.000000	67.667433
3619.000000	67.606329
3618.000000	67.542896
3617.000000	67.483926
3616.000000	67.429077
3615.000000	67.373304
3614.000000	67.310279
3613.000000	67.239806
3612.000000	67.169480
3611.000000	67.105876
3610.000000	67.048601
3609.000000	66.993687
3608.000000	66.937481
3607.000000	66.879639
3606.000000	66.820921
3605.000000	66.761078
3604.000000	66.700985
3603.000000	66.641072
3602.000000	66.581471
3601.000000	66.521889
3600.000000	66.461793
3599.000000	66.400501
3598.000000	66.336321
3597.000000	66.267133
3596.000000	66.194877
3595.000000	66.121571
3594.000000	66.047085
3593.000000	65.972812
3592.000000	65.899016
3591.000000	65.824146
3590.000000	65.747106
3589.000000	65.667761
3588.000000	65.585775
3587.000000	65.502787
3586.000000	65.423014
3585.000000	65.348451
3584.000000	65.276486
3583.000000	65.203701
3582.000000	65.130146
3581.000000	65.058171
3580.000000	64.989432
3579.000000	64.922966
3578.000000	64.857503
3577.000000	64.794185
3576.000000	64.735293
3575.000000	64.682031
3574.000000	64.633257
3573.000000	64.587882
3572.000000	64.544874
3571.000000	64.502594
3570.000000	64.461352
3569.000000	64.423729
3568.000000	64.390825
3567.000000	64.360990
3566.000000	64.333569
3565.000000	64.309420
3564.000000	64.288736
3563.000000	64.271083
3562.000000	64.256440
3561.000000	64.245137
3560.000000	64.236221
3559.000000	64.227380
3558.000000	64.217083
3557.000000	64.206179
3556.000000	64.196413
3555.000000	64.188481
3554.000000	64.181531
3553.000000	64.174064
3552.000000	64.165127
3551.000000	64.153842
3550.000000	64.139396
3549.000000	64.122487
3548.000000	64.105785
3547.000000	64.092914
3546.000000	64.085838
3545.000000	64.083825
3544.000000	64.084416
3543.000000	64.085014
3542.000000	64.083854
3541.000000	64.080463
3540.000000	64.074740
3539.000000	64.066394
3538.000000	64.056080
3537.000000	64.045630
3536.000000	64.036917
3535.000000	64.029369
3534.000000	64.021024
3533.000000	64.010729
3532.000000	63.998305
3531.000000	63.983558
3530.000000	63.965876
3529.000000	63.945377
3528.000000	63.922913
3527.000000	63.899524
3526.000000	63.876557
3525.000000	63.855314
3524.000000	63.835098
3523.000000	63.812590
3522.000000	63.784445
3521.000000	63.750192
3520.000000	63.711271
3519.000000	63.668005
3518.000000	63.620003
3517.000000	63.568412
3516.000000	63.515397
3515.000000	63.460792
3514.000000	63.402200
3513.000000	63.338348
3512.000000	63.269518
3511.000000	63.195315
3510.000000	63.115077
3509.000000	63.030325
3508.000000	62.944097
3507.000000	62.857659
3506.000000	62.769810
3505.000000	62.679869
3504.000000	62.589394
3503.000000	62.500286
3502.000000	62.412612
3501.000000	62.325428
3500.000000	62.238609
3499.000000	62.153153
3498.000000	62.070577
3497.000000	61.992148
3496.000000	61.918162
3495.000000	61.847716
3494.000000	61.780019
3493.000000	61.715666
3492.000000	61.655325
3491.000000	61.598122
3490.000000	61.543549
3489.000000	61.494052
3488.000000	61.453493
3487.000000	61.423419
3486.000000	61.402322
3485.000000	61.387698
3484.000000	61.377220
3483.000000	61.368911
3482.000000	61.362794
3481.000000	61.362082
3480.000000	61.370334
3479.000000	61.387583
3478.000000	61.411042
3477.000000	61.438835
3476.000000	61.470583
3475.000000	61.505255
3474.000000	61.540936
3473.000000	61.576728
3472.000000	61.613269
3471.000000	61.651333
3470.000000	61.691898
3469.000000	61.736999
3468.000000	61.787787
3467.000000	61.842210
3466.000000	61.896489
3465.000000	61.948360
3464.000000	61.997586
3463.000000	62.044440
3462.000000	62.090025
3461.000000	62.137148
3460.000000	62.188447
3459.000000	62.243950
3458.000000	62.301714
3457.000000	62.360157
3456.000000	62.418366
3455.000000	62.474900
3454.000000	62.528814
3453.000000	62.580812
3452.000000	62.632436
3451.000000	62.685001
3450.000000	62.739645
3449.000000	62.797405
3448.000000	62.857858
3447.000000	62.918839
3446.000000	62.978692
3445.000000	63.037624
3444.000000	63.096026
3443.000000	63.153243
3442.000000	63.209087
3441.000000	63.265259
3440.000000	63.323634
3439.000000	63.384033
3438.000000	63.445167
3437.000000	63.506728
3436.000000	63.569102
3435.000000	63.631433
3434.000000	63.691950
3433.000000	63.749660
3432.000000	63.805224
3431.000000	63.860575
3430.000000	63.917557
3429.000000	63.976810
3428.000000	64.037146
3427.000000	64.096490
3426.000000	64.153814
3425.000000	64.209990
3424.000000	64.266701
3423.000000	64.324866
3422.000000	64.384608
3421.000000	64.445948
3420.000000	64.508754
3419.000000	64.572264
3418.000000	64.635406
3417.000000	64.697447
3416.000000	64.758048
3415.000000	64.817406
3414.000000	64.876755
3413.000000	64.938079
3412.000000	65.002636
3411.000000	65.070111
3410.000000	65.139625
3409.000000	65.210893
3408.000000	65.283571
3407.000000	65.356233
3406.000000	65.427016
3405.000000	65.495312
3404.000000	65.562412
3403.000000	65.630537
3402.000000	65.702052
3401.000000	65.778678
3400.000000	65.859961
3399.000000	65.942607
3398.000000	66.022530
3397.000000	66.098046
3396.000000	66.170383
3395.000000	66.241775
3394.000000	66.314367
3393.000000	66.390322
3392.000000	66.470873
3391.000000	66.554774
3390.000000	66.638893
3389.000000	66.720839
3388.000000	66.800532
3387.000000	66.879401
3386.000000	66.959007
3385.000000	67.040453
3384.000000	67.124354
3383.000000	67.210819
3382.000000	67.299867
3381.000000	67.391591
3380.000000	67.485405
3379.000000	67.579742
3378.000000	67.673215
3377.000000	67.765788
3376.000000	67.857923
3375.000000	67.949228
3374.000000	68.039131
3373.000000	68.128509
3372.000000	68.219436
3371.000000	68.313462
3370.000000	68.410951
3369.000000	68.511688
3368.000000	68.614938
3367.000000	68.719113
3366.000000	68.822613
3365.000000	68.925078
3364.000000	69.027521
3363.000000	69.131531
3362.000000	69.238554
3361.000000	69.349227
3360.000000	69.462514
3359.000000	69.576075
3358.000000	69.688435
3357.000000	69.800403
3356.000000	69.913881
3355.000000	70.029897
3354.000000	70.148627
3353.000000	70.270628
3352.000000	70.396479
3351.000000	70.525208
3350.000000	70.654017
3349.000000	70.779997
3348.000000	70.901866
3347.000000	71.020277
3346.000000	71.137252
3345.000000	71.254960
3344.000000	71.374337
3343.000000	71.494547
3342.000000	71.614171
3341.000000	71.732901
3340.000000	71.851469
3339.000000	71.970045
3338.000000	72.087135
3337.000000	72.200209
3336.000000	72.306960
3335.000000	72.406089
3334.000000	72.497342
3333.000000	72.580513
3332.000000	72.654542
3331.000000	72.717197
3330.000000	72.766024
3329.000000	72.799836
3328.000000	72.818406
3327.000000	72.821344
3326.000000	72.806765
3325.000000	72.770866
3324.000000	72.709419
3323.000000	72.618068
3322.000000	72.493027
3321.000000	72.330733
3320.000000	72.126611
3319.000000	71.875896
3318.000000	71.572938
3317.000000	71.211862
3316.000000	70.786211
3315.000000	70.288083
3314.000000	69.711288
3313.000000	69.052047
3312.000000	68.309724
3311.000000	67.487581
3310.000000	66.592296
3309.000000	65.636259
3308.000000	64.634402
3307.000000	63.600415
3306.000000	62.546725
3305.000000	61.484761
3304.000000	60.426297
3303.000000	59.383105
3302.000000	58.368302
3301.000000	57.397820
3300.000000	56.488837
3299.000000	55.656219
3298.000000	54.912154
3297.000000	54.265380
3296.000000	53.714785
3295.000000	53.245893
3294.000000	52.832128
3293.000000	52.441619
3292.000000	52.043616
3291.000000	51.612093
3290.000000	51.132443
3289.000000	50.604805
3288.000000	50.039808
3287.000000	49.450769
3286.000000	48.848329
3285.000000	48.237549
3284.000000	47.615926
3283.000000	46.973824
3282.000000	46.300490
3281.000000	45.592164
3280.000000	44.854772
3279.000000	44.104029
3278.000000	43.367325
3277.000000	42.683731
3276.000000	42.095148
3275.000000	41.636247
3274.000000	41.329047
3273.000000	41.181957
3272.000000	41.191265
3271.000000	41.338806
3270.000000	41.597457
3269.000000	41.937181
3268.000000	42.325914
3267.000000	42.733688
3266.000000	43.134644
3265.000000	43.507751
3264.000000	43.832748
3263.000000	44.086550
3262.000000	44.244576
3261.000000	44.285554
3260.000000	44.189557
3259.000000	43.935862
3258.000000	43.509092
3257.000000	42.897502
3256.000000	42.094188
3255.000000	41.094283
3254.000000	39.898736
3253.000000	38.528248
3252.000000	37.025225
3251.000000	35.457198
3250.000000	33.916911
3249.000000	32.512825
3248.000000	31.345978
3247.000000	30.486504
3246.000000	29.959543
3245.000000	29.746732
3244.000000	29.800535
3243.000000	30.056583
3242.000000	30.455732
3241.000000	30.949047
3240.000000	31.490974
3239.000000	32.039843
3238.000000	32.559477
3237.000000	33.026745
3236.000000	33.430745
3235.000000	33.769364
3234.000000	34.048712
3233.000000	34.279373
3232.000000	34.469174
3231.000000	34.621185
3230.000000	34.741257
3229.000000	34.841907
3228.000000	34.938254
3227.000000	35.041925
3226.000000	35.161500
3225.000000	35.305073
3224.000000	35.477213
3223.000000	35.675863
3222.000000	35.894702
3221.000000	36.126245
3220.000000	36.360248
3219.000000	36.582483
3218.000000	36.779042
3217.000000	36.940326
3216.000000	37.060148
3215.000000	37.135294
3214.000000	37.168252
3213.000000	37.168909
3212.000000	37.149760
3211.000000	37.121418
3210.000000	37.094326
3209.000000	37.079638
3208.000000	37.085840
3207.000000	37.116058
3206.000000	37.170976
3205.000000	37.251515
3204.000000	37.357160
3203.000000	37.484514
3202.000000	37.630076
3201.000000	37.792345
3200.000000	37.968319
3199.000000	38.152026
3198.000000	38.338148
3197.000000	38.524690
3196.000000	38.710275
3195.000000	38.891204
3194.000000	39.063601
3193.000000	39.225335
3192.000000	39.374066
3191.000000	39.505977
3190.000000	39.619224
3189.000000	39.715711
3188.000000	39.797764
3187.000000	39.866055
3186.000000	39.921727
3185.000000	39.968169
3184.000000	40.007370
3183.000000	40.037551
3182.000000	40.056671
3181.000000	40.065119
3180.000000	40.064303
3179.000000	40.055522
3178.000000	40.042983
3177.000000	40.035123
3176.000000	40.040347
3175.000000	40.063305
3174.000000	40.106922
3173.000000	40.175298
3172.000000	40.272270
3171.000000	40.401863
3170.000000	40.570736
3169.000000	40.787901
3168.000000	41.059943
3167.000000	41.386412
3166.000000	41.763411
3165.000000	42.186095
3164.000000	42.646817
3163.000000	43.135164
3162.000000	43.640799
3161.000000	44.156098
3160.000000	44.672999
3159.000000	45.180987
3158.000000	45.669490
3157.000000	46.129311
3156.000000	46.549861
3155.000000	46.917379
3154.000000	47.217986
3153.000000	47.439851
3152.000000	47.575948
3151.000000	47.626071
3150.000000	47.599852
3149.000000	47.515896
3148.000000	47.391449
3147.000000	47.236078
3146.000000	47.050312
3145.000000	46.827587
3144.000000	46.557292
3143.000000	46.226587
3142.000000	45.827819
3141.000000	45.361800
3140.000000	44.834912
3139.000000	44.257723
3138.000000	43.645290
3137.000000	43.018253
3136.000000	42.398052
3135.000000	41.802685
3134.000000	41.248332
3133.000000	40.750865
3132.000000	40.322490
3131.000000	39.968824
3130.000000	39.691997
3129.000000	39.491661
3128.000000	39.364393
3127.000000	39.303121
3126.000000	39.300630
3125.000000	39.352699
3124.000000	39.453281
3123.000000	39.594227
3122.000000	39.768566
3121.000000	39.971459
3120.000000	40.197396
3119.000000	40.437538
3118.000000	40.683998
3117.000000	40.931950
3116.000000	41.176251
3115.000000	41.409361
3114.000000	41.624280
3113.000000	41.816624
3112.000000	41.982085
3111.000000	42.115772
3110.000000	42.214346
3109.000000	42.277040
3108.000000	42.301782
3107.000000	42.284092
3106.000000	42.222495
3105.000000	42.120226
3104.000000	41.982500
3103.000000	41.814019
3102.000000	41.621456
3101.000000	41.415493
3100.000000	41.206529
3099.000000	41.001797
3098.000000	40.807615
3097.000000	40.631774
3096.000000	40.480775
3095.000000	40.357339
3094.000000	40.262272
3093.000000	40.196061
3092.000000	40.156959
3091.000000	40.139095
3090.000000	40.135396
3089.000000	40.139541
3088.000000	40.144930
3087.000000	40.146007
3086.000000	40.142126
3085.000000	40.138180
3084.000000	40.139155
3083.000000	40.146934
3082.000000	40.163731
3081.000000	40.194329
3080.000000	40.243304
3079.000000	40.312615
3078.000000	40.403580
3077.000000	40.518451
3076.000000	40.657230
3075.000000	40.816823
3074.000000	40.994709
3073.000000	41.190151
3072.000000	41.400963
3071.000000	41.621538
3070.000000	41.847010
3069.000000	42.076220
3068.000000	42.308733
3067.000000	42.542181
3066.000000	42.774005
3065.000000	43.003538
3064.000000	43.230151
3063.000000	43.451738
3062.000000	43.666645
3061.000000	43.875113
3060.000000	44.077533
3059.000000	44.273464
3058.000000	44.463767
3057.000000	44.650997
3056.000000	44.836511
3055.000000	45.019082
3054.000000	45.197520
3053.000000	45.372605
3052.000000	45.545013
3051.000000	45.713747
3050.000000	45.877479
3049.000000	46.035500
3048.000000	46.186949
3047.000000	46.331244
3046.000000	46.470321
3045.000000	46.607872
3044.000000	46.745357
3043.000000	46.881310
3042.000000	47.014946
3041.000000	47.147810
3040.000000	47.280728
3039.000000	47.412128
3038.000000	47.541141
3037.000000	47.669804
3036.000000	47.800817
3035.000000	47.935012
3034.000000	48.072076
3033.000000	48.211546
3032.000000	48.351808
3031.000000	48.490388
3030.000000	48.626547
3029.000000	48.761704
3028.000000	48.896726
3027.000000	49.031094
3026.000000	49.165284
3025.000000	49.301158
3024.000000	49.438825
3023.000000	49.575632
3022.000000	49.709490
3021.000000	49.841063
3020.000000	49.971764
3019.000000	50.101853
3018.000000	50.231608
3017.000000	50.362174
3016.000000	50.493880
3015.000000	50.625516
3014.000000	50.756366
3013.000000	50.887180
3012.000000	51.018313
3011.000000	51.148482
3010.000000	51.276392
3009.000000	51.401357
3008.000000	51.521216
3007.000000	51.631161
3006.000000	51.723493
3005.000000	51.785593
3004.000000	51.793911
3003.000000	51.713547
3002.000000	51.512462
3001.000000	51.185655
3000.000000	50.773426
2999.000000	50.353853
2998.000000	50.010135
2997.000000	49.792917
2996.000000	49.705961
2995.000000	49.722906
2994.000000	49.813905
2993.000000	49.957458
2992.000000	50.134955
2991.000000	50.326497
2990.000000	50.514182
2989.000000	50.685493
2988.000000	50.830874
2987.000000	50.940998
2986.000000	51.006599
2985.000000	51.017434
2984.000000	50.962091
2983.000000	50.835681
2982.000000	50.654039
2981.000000	50.458846
2980.000000	50.304799
2979.000000	50.236267
2978.000000	50.271389
2977.000000	50.400911
2976.000000	50.598914
2975.000000	50.837259
2974.000000	51.094835
2973.000000	51.357784
2972.000000	51.614528
2971.000000	51.855032
2970.000000	52.072550
2969.000000	52.263697
2968.000000	52.424275
2967.000000	52.547458
2966.000000	52.624513
2965.000000	52.640965
2964.000000	52.568842
2963.000000	52.361094
2962.000000	51.964449
2961.000000	51.351070
2960.000000	50.555760
2959.000000	49.686821
2958.000000	48.888652
2957.000000	48.274979
2956.000000	47.880033
2955.000000	47.668312
2954.000000	47.581374
2953.000000	47.575385
2952.000000	47.625007
2951.000000	47.713720
2950.000000	47.831857
2949.000000	47.976781
2948.000000	48.149790
2947.000000	48.350861
2946.000000	48.578110
2945.000000	48.826082
2944.000000	49.082712
2943.000000	49.333454
2942.000000	49.570820
2941.000000	49.799350
2940.000000	50.030404
2939.000000	50.275098
2938.000000	50.541522
2937.000000	50.832544
2936.000000	51.143223
2935.000000	51.462890
2934.000000	51.781790
2933.000000	52.094124
2932.000000	52.395333
2931.000000	52.681096
2930.000000	52.949904
2929.000000	53.203168
2928.000000	53.441383
2927.000000	53.662942
2926.000000	53.867381
2925.000000	54.055753
2924.000000	54.227263
2923.000000	54.378781
2922.000000	54.508896
2921.000000	54.619466
2920.000000	54.712315
2919.000000	54.788038
2918.000000	54.848354
2917.000000	54.896629
2916.000000	54.935240
2915.000000	54.965012
2914.000000	54.987793
2913.000000	55.006332
2912.000000	55.021553
2911.000000	55.032917
2910.000000	55.041763
2909.000000	55.051295
2908.000000	55.062750
2907.000000	55.074768
2906.000000	55.086866
2905.000000	55.100387
2904.000000	55.115083
2903.000000	55.128360
2902.000000	55.138413
2901.000000	55.145239
2900.000000	55.148352
2899.000000	55.145972
2898.000000	55.137711
2897.000000	55.125022
2896.000000	55.108670
2895.000000	55.088723
2894.000000	55.067726
2893.000000	55.050580
2892.000000	55.040219
2891.000000	55.035993
2890.000000	55.036562
2889.000000	55.041271
2888.000000	55.047976
2887.000000	55.052990
2886.000000	55.054584
2885.000000	55.053966
2884.000000	55.051923
2883.000000	55.047384
2882.000000	55.040067
2881.000000	55.031562
2880.000000	55.022451
2879.000000	55.010738
2878.000000	54.994283
2877.000000	54.972929
2876.000000	54.948265
2875.000000	54.924114
2874.000000	54.907787
2873.000000	54.907192
2872.000000	54.925117
2871.000000	54.958777
2870.000000	55.005815
2869.000000	55.068465
2868.000000	55.151306
2867.000000	55.257615
2866.000000	55.388175
2865.000000	55.540022
2864.000000	55.704858
2863.000000	55.871845
2862.000000	56.033466
2861.000000	56.187038
2860.000000	56.331329
2859.000000	56.465083
2858.000000	56.589755
2857.000000	56.710223
2856.000000	56.831098
2855.000000	56.954520
2854.000000	57.081522
2853.000000	57.212036
2852.000000	57.342365
2851.000000	57.465509
2850.000000	57.575637
2849.000000	57.670712
2848.000000	57.751036
2847.000000	57.818312
2846.000000	57.876752
2845.000000	57.932044
2844.000000	57.987767
2843.000000	58.044377
2842.000000	58.101999
2841.000000	58.161893
2840.000000	58.224574
2839.000000	58.289019
2838.000000	58.354525
2837.000000	58.421248
2836.000000	58.488513
2835.000000	58.554864
2834.000000	58.620367
2833.000000	58.686735
2832.000000	58.754638
2831.000000	58.822948
2830.000000	58.891015
2829.000000	58.959459
2828.000000	59.028161
2827.000000	59.095669
2826.000000	59.161158
2825.000000	59.224945
2824.000000	59.286694
2823.000000	59.345167
2822.000000	59.400287
2821.000000	59.453341
2820.000000	59.504659
2819.000000	59.553147
2818.000000	59.598512
2817.000000	59.641861
2816.000000	59.683632
2815.000000	59.722925
2814.000000	59.759438
2813.000000	59.794177
2812.000000	59.827838
2811.000000	59.860393
2810.000000	59.892493
2809.000000	59.925267
2808.000000	59.958548
2807.000000	59.991358
2806.000000	60.024412
2805.000000	60.059965
2804.000000	60.098809
2803.000000	60.139647
2802.000000	60.181776
2801.000000	60.226027
2800.000000	60.272579
2799.000000	60.319957
2798.000000	60.366876
2797.000000	60.413155
2796.000000	60.458370
2795.000000	60.501717
2794.000000	60.543810
2793.000000	60.586728
2792.000000	60.631741
2791.000000	60.678544
2790.000000	60.726767
2789.000000	60.776192
2788.000000	60.825263
2787.000000	60.871615
2786.000000	60.914590
2785.000000	60.955385
2784.000000	60.994544
2783.000000	61.031289
2782.000000	61.065430
2781.000000	61.097714
2780.000000	61.127809
2779.000000	61.154137
2778.000000	61.176310
2777.000000	61.195765
2776.000000	61.213699
2775.000000	61.230390
2774.000000	61.246839
2773.000000	61.264846
2772.000000	61.284609
2771.000000	61.304138
2770.000000	61.321598
2769.000000	61.336432
2768.000000	61.347999
2767.000000	61.355238
2766.000000	61.358473
2765.000000	61.359914
2764.000000	61.361853
2763.000000	61.365955
2762.000000	61.374448
2761.000000	61.389809
2760.000000	61.412632
2759.000000	61.441443
2758.000000	61.474784
2757.000000	61.511776
2756.000000	61.550589
2755.000000	61.588539
2754.000000	61.624337
2753.000000	61.658362
2752.000000	61.690331
2751.000000	61.718671
2750.000000	61.742536
2749.000000	61.762597
2748.000000	61.779515
2747.000000	61.793341
2746.000000	61.804745
2745.000000	61.814967
2744.000000	61.823964
2743.000000	61.830361
2742.000000	61.833622
2741.000000	61.834871
2740.000000	61.835956
2739.000000	61.839675
2738.000000	61.850668
2737.000000	61.873650
2736.000000	61.909909
2735.000000	61.957018
2734.000000	62.012103
2733.000000	62.073117
2732.000000	62.136949
2731.000000	62.198990
2730.000000	62.255445
2729.000000	62.304520
2728.000000	62.345111
2727.000000	62.376194
2726.000000	62.398104
2725.000000	62.412802
2724.000000	62.422237
2723.000000	62.428100
2722.000000	62.433273
2721.000000	62.441458
2720.000000	62.455002
2719.000000	62.474472
2718.000000	62.500177
2717.000000	62.532169
2716.000000	62.568576
2715.000000	62.605998
2714.000000	62.642024
2713.000000	62.675709
2712.000000	62.705602
2711.000000	62.729507
2710.000000	62.746707
2709.000000	62.758490
2708.000000	62.766183
2707.000000	62.770426
2706.000000	62.772481
2705.000000	62.774474
2704.000000	62.777900
2703.000000	62.783485
2702.000000	62.792656
2701.000000	62.807226
2700.000000	62.827336
2699.000000	62.851569
2698.000000	62.879138
2697.000000	62.910028
2696.000000	62.943148
2695.000000	62.976462
2694.000000	63.009277
2693.000000	63.042434
2692.000000	63.075801
2691.000000	63.107576
2690.000000	63.136364
2689.000000	63.161976
2688.000000	63.183945
2687.000000	63.201387
2686.000000	63.214701
2685.000000	63.225565
2684.000000	63.234744
2683.000000	63.241576
2682.000000	63.246174
2681.000000	63.250361
2680.000000	63.256076
2679.000000	63.264589
2678.000000	63.277549
2677.000000	63.296818
2676.000000	63.322778
2675.000000	63.354106
2674.000000	63.389256
2673.000000	63.426645
2672.000000	63.463368
2671.000000	63.495989
2670.000000	63.523240
2669.000000	63.546541
2668.000000	63.567995
2667.000000	63.589526
2666.000000	63.613703
2665.000000	63.642980
2664.000000	63.677369
2663.000000	63.714516
2662.000000	63.752318
2661.000000	63.789884
2660.000000	63.825982
2659.000000	63.858738
2658.000000	63.887408
2657.000000	63.912841
2656.000000	63.935714
2655.000000	63.955808
2654.000000	63.973210
2653.000000	63.988376
2652.000000	64.000966
2651.000000	64.010365
2650.000000	64.017674
2649.000000	64.025709
2648.000000	64.036704
2647.000000	64.051368
2646.000000	64.070008
2645.000000	64.092569
2644.000000	64.117333
2643.000000	64.141539
2642.000000	64.163856
2641.000000	64.185038
2640.000000	64.206272
2639.000000	64.228347
2638.000000	64.252230
2637.000000	64.278395
2636.000000	64.305226
2635.000000	64.329728
2634.000000	64.350121
2633.000000	64.366490
2632.000000	64.379277
2631.000000	64.389127
2630.000000	64.398201
2629.000000	64.409715
2628.000000	64.425842
2627.000000	64.447357
2626.000000	64.474924
2625.000000	64.508691
2624.000000	64.546436
2623.000000	64.584091
2622.000000	64.618425
2621.000000	64.647874
2620.000000	64.671204
2619.000000	64.687513
2618.000000	64.697494
2617.000000	64.702644
2616.000000	64.703145
2615.000000	64.698022
2614.000000	64.687632
2613.000000	64.674170
2612.000000	64.659584
2611.000000	64.645180
2610.000000	64.633153
2609.000000	64.626374
2608.000000	64.626049
2607.000000	64.631086
2606.000000	64.639778
2605.000000	64.650493
2604.000000	64.660936
2603.000000	64.669046
2602.000000	64.675407
2601.000000	64.682947
2600.000000	64.694177
2599.000000	64.710050
2598.000000	64.731051
2597.000000	64.757135
2596.000000	64.786136
2595.000000	64.814326
2594.000000	64.839170
2593.000000	64.860176
2592.000000	64.877257
2591.000000	64.890242
2590.000000	64.900063
2589.000000	64.908448
2588.000000	64.916139
2587.000000	64.922981
2586.000000	64.929850
2585.000000	64.938595
2584.000000	64.949954
2583.000000	64.963439
2582.000000	64.979425
2581.000000	64.999227
2580.000000	65.022717
2579.000000	65.047706
2578.000000	65.071951
2577.000000	65.094200
2576.000000	65.113175
2575.000000	65.127639
2574.000000	65.138131
2573.000000	65.147176
2572.000000	65.157339
2571.000000	65.170264
2570.000000	65.187339
2569.000000	65.209364
2568.000000	65.235142
2567.000000	65.262019
2566.000000	65.288174
2565.000000	65.313263
2564.000000	65.337296
2563.000000	65.360560
2562.000000	65.384700
2561.000000	65.411976
2560.000000	65.443110
2559.000000	65.477142
2558.000000	65.513019
2557.000000	65.549810
2556.000000	65.585796
2555.000000	65.619284
2554.000000	65.650335
2553.000000	65.680014
2552.000000	65.708115
2551.000000	65.733189
2550.000000	65.754468
2549.000000	65.771534
2548.000000	65.782698
2547.000000	65.785856
2546.000000	65.781224
2545.000000	65.771767
2544.000000	65.760862
2543.000000	65.751536
2542.000000	65.747481
2541.000000	65.752175
2540.000000	65.766316
2539.000000	65.787878
2538.000000	65.814599
2537.000000	65.844722
2536.000000	65.875779
2535.000000	65.905004
2534.000000	65.931790
2533.000000	65.957803
2532.000000	65.984363
2531.000000	66.011438
2530.000000	66.039020
2529.000000	66.067364
2528.000000	66.095495
2527.000000	66.121319
2526.000000	66.143428
2525.000000	66.161383
2524.000000	66.174113
2523.000000	66.180002
2522.000000	66.178919
2521.000000	66.172026
2520.000000	66.159813
2519.000000	66.141742
2518.000000	66.118081
2517.000000	66.090557
2516.000000	66.060726
2515.000000	66.029893
2514.000000	66.000550
2513.000000	65.976003
2512.000000	65.958063
2511.000000	65.946642
2510.000000	65.941395
2509.000000	65.941894
2508.000000	65.946257
2507.000000	65.951583
2506.000000	65.956585
2505.000000	65.961949
2504.000000	65.968172
2503.000000	65.974928
2502.000000	65.982459
2501.000000	65.991623
2500.000000	66.002029
2499.000000	66.011904
2498.000000	66.020239
2497.000000	66.027496
2496.000000	66.034345
2495.000000	66.041602
2494.000000	66.051543
2493.000000	66.067337
2492.000000	66.090367
2491.000000	66.119637
2490.000000	66.153629
2489.000000	66.191009
2488.000000	66.229809
2487.000000	66.267842
2486.000000	66.304545
2485.000000	66.340744
2484.000000	66.376386
2483.000000	66.410162
2482.000000	66.441334
2481.000000	66.470273
2480.000000	66.497234
2479.000000	66.522413
2478.000000	66.547107
2477.000000	66.573015
2476.000000	66.600101
2475.000000	66.626744
2474.000000	66.652064
2473.000000	66.676123
2472.000000	66.697907
2471.000000	66.715029
2470.000000	66.725833
2469.000000	66.730609
2468.000000	66.730595
2467.000000	66.727707
2466.000000	66.725227
2465.000000	66.726826
2464.000000	66.734327
2463.000000	66.747390
2462.000000	66.765100
2461.000000	66.786224
2460.000000	66.808403
2459.000000	66.829185
2458.000000	66.848366
2457.000000	66.867755
2456.000000	66.888588
2455.000000	66.910735
2454.000000	66.933953
2453.000000	66.957941
2452.000000	66.981104
2451.000000	67.001349
2450.000000	67.018475
2449.000000	67.034352
2448.000000	67.050806
2447.000000	67.068884
2446.000000	67.089824
2445.000000	67.114525
2444.000000	67.141654
2443.000000	67.167963
2442.000000	67.190765
2441.000000	67.208977
2440.000000	67.222167
2439.000000	67.230633
2438.000000	67.236404
2437.000000	67.242123
2436.000000	67.248685
2435.000000	67.255152
2434.000000	67.260862
2433.000000	67.265811
2432.000000	67.269298
2431.000000	67.270423
2430.000000	67.270110
2429.000000	67.270852
2428.000000	67.274147
2427.000000	67.279715
2426.000000	67.287055
2425.000000	67.295826
2424.000000	67.304655
2423.000000	67.311580
2422.000000	67.316146
2421.000000	67.319584
2420.000000	67.322979
2419.000000	67.326778
2418.000000	67.331878
2417.000000	67.339250
2416.000000	67.348322
2415.000000	67.357398
2414.000000	67.365753
2413.000000	67.373802
2412.000000	67.381576
2411.000000	67.388862
2410.000000	67.396519
2409.000000	67.405457
2408.000000	67.414270
2407.000000	67.419624
2406.000000	67.419120
2405.000000	67.411894
2404.000000	67.396854
2403.000000	67.373094
2402.000000	67.342062
2401.000000	67.307434
2400.000000	67.271936
2399.000000	67.235558
2398.000000	67.197000
2397.000000	67.154102
2396.000000	67.103103
2395.000000	67.039692
2394.000000	66.961657
2393.000000	66.869783
2392.000000	66.766002
2391.000000	66.651127
2390.000000	66.529457
2389.000000	66.401023
2388.000000	66.272610
2387.000000	66.136006
2386.000000	66.015936
2385.000000	66.000944
2384.000000	65.867073
2383.000000	65.670522
2382.000000	65.609030
2381.000000	65.565774
2380.000000	65.556465
2379.000000	65.568546
2378.000000	65.597711
2377.000000	65.632966
2376.000000	65.666433
2375.000000	65.689169
2374.000000	65.698034
2373.000000	65.695869
2372.000000	65.686867
2371.000000	65.672494
2370.000000	65.653868
2369.000000	65.634703
2368.000000	65.616565
2367.000000	65.596541
2366.000000	65.574457
2365.000000	65.554185
2364.000000	65.537899
2363.000000	65.526138
2362.000000	65.522206
2361.000000	65.533957
2360.000000	65.564325
2359.000000	65.601812
2358.000000	65.626030
2357.000000	65.614406
2356.000000	65.553989
2355.000000	65.452412
2354.000000	65.350601
2353.000000	65.311428
2352.000000	65.371787
2351.000000	65.507068
2350.000000	65.640363
2349.000000	65.696974
2348.000000	65.661368
2347.000000	65.576058
2346.000000	65.502039
2345.000000	65.471899
2344.000000	65.483833
2343.000000	65.521020
2342.000000	65.571598
2341.000000	65.632709
2340.000000	65.700379
2339.000000	65.770197
2338.000000	65.838619
2337.000000	65.904684
2336.000000	65.965006
2335.000000	66.018156
2334.000000	66.064589
2333.000000	66.111567
2332.000000	66.160975
2331.000000	66.216779
2330.000000	66.279989
2329.000000	66.348533
2328.000000	66.412144
2327.000000	66.457956
2326.000000	66.483081
2325.000000	66.493367
2324.000000	66.496155
2323.000000	66.493221
2322.000000	66.481579
2321.000000	66.458887
2320.000000	66.421098
2319.000000	66.366785
2318.000000	66.293788
2317.000000	66.204729
2316.000000	66.102065
2315.000000	65.993137
2314.000000	65.884941
2313.000000	65.784744
2312.000000	65.694508
2311.000000	65.616004
2310.000000	65.551488
2309.000000	65.504784
2308.000000	65.476145
2307.000000	65.463720
2306.000000	65.464416
2305.000000	65.475491
2304.000000	65.490948
2303.000000	65.504682
2302.000000	65.511821
2301.000000	65.510990
2300.000000	65.500096
2299.000000	65.477502
2298.000000	65.441713
2297.000000	65.392345
2296.000000	65.328410
2295.000000	65.250857
2294.000000	65.165329
2293.000000	65.081290
2292.000000	65.008314
2291.000000	64.953664
2290.000000	64.922263
2289.000000	64.914327
2288.000000	64.924174
2287.000000	64.942671
2286.000000	64.962573
2285.000000	64.980301
2284.000000	64.995292
2283.000000	65.010837
2282.000000	65.034312
2281.000000	65.072898
2280.000000	65.128384
2279.000000	65.197521
2278.000000	65.276321
2277.000000	65.361645
2276.000000	65.449624
2275.000000	65.536838
2274.000000	65.622573
2273.000000	65.708033
2272.000000	65.792886
2271.000000	65.875113
2270.000000	65.953315
2269.000000	66.026978
2268.000000	66.094904
2267.000000	66.156373
2266.000000	66.213621
2265.000000	66.270770
2264.000000	66.330638
2263.000000	66.394036
2262.000000	66.461860
2261.000000	66.534790
2260.000000	66.611749
2259.000000	66.690869
2258.000000	66.772030
2257.000000	66.856557
2256.000000	66.944597
2255.000000	67.035247
2254.000000	67.128122
2253.000000	67.223034
2252.000000	67.318202
2251.000000	67.411273
2250.000000	67.501565
2249.000000	67.589340
2248.000000	67.674094
2247.000000	67.755144
2246.000000	67.833772
2245.000000	67.912085
2244.000000	67.990126
2243.000000	68.066047
2242.000000	68.138449
2241.000000	68.206473
2240.000000	68.267955
2239.000000	68.320020
2238.000000	68.361653
2237.000000	68.393767
2236.000000	68.417357
2235.000000	68.433229
2234.000000	68.443505
2233.000000	68.451205
2232.000000	68.458240
2231.000000	68.465536
2230.000000	68.474545
2229.000000	68.486871
2228.000000	68.502357
2227.000000	68.519249
2226.000000	68.535937
2225.000000	68.551056
2224.000000	68.562456
2223.000000	68.568143
2222.000000	68.567917
2221.000000	68.562717
2220.000000	68.552927
2219.000000	68.539085
2218.000000	68.523539
2217.000000	68.509321
2216.000000	68.497889
2215.000000	68.489723
2214.000000	68.486558
2213.000000	68.490629
2212.000000	68.501986
2211.000000	68.518371
2210.000000	68.537411
2209.000000	68.557014
2208.000000	68.574329
2207.000000	68.586671
2206.000000	68.593398
2205.000000	68.595259
2204.000000	68.592300
2203.000000	68.584432
2202.000000	68.573786
2201.000000	68.565005
2200.000000	68.563403
2199.000000	68.574318
2198.000000	68.602434
2197.000000	68.648856
2196.000000	68.708595
2195.000000	68.773022
2194.000000	68.834825
2193.000000	68.889730
2192.000000	68.935358
2191.000000	68.971077
2190.000000	68.998700
2189.000000	69.020771
2188.000000	69.038165
2187.000000	69.050801
2186.000000	69.059838
2185.000000	69.067120
2184.000000	69.073038
2183.000000	69.077100
2182.000000	69.079974
2181.000000	69.082841
2180.000000	69.085175
2179.000000	69.085391
2178.000000	69.083549
2177.000000	69.081506
2176.000000	69.080959
2175.000000	69.083243
2174.000000	69.090503
2173.000000	69.104726
2172.000000	69.125589
2171.000000	69.150998
2170.000000	69.179319
2169.000000	69.209618
2168.000000	69.240559
2167.000000	69.271360
2166.000000	69.303348
2165.000000	69.338587
2164.000000	69.377274
2163.000000	69.417970
2162.000000	69.459535
2161.000000	69.500898
2160.000000	69.539881
2159.000000	69.574494
2158.000000	69.604933
2157.000000	69.632551
2156.000000	69.657459
2155.000000	69.678773
2154.000000	69.696241
2153.000000	69.709542
2152.000000	69.716955
2151.000000	69.717020
2150.000000	69.711176
2149.000000	69.702798
2148.000000	69.694193
2147.000000	69.686362
2146.000000	69.680482
2145.000000	69.676903
2144.000000	69.673016
2143.000000	69.664334
2142.000000	69.647751
2141.000000	69.622839
2140.000000	69.591182
2139.000000	69.556687
2138.000000	69.526110
2137.000000	69.506783
2136.000000	69.503404
2135.000000	69.517760
2134.000000	69.549805
2133.000000	69.596575
2132.000000	69.651062
2131.000000	69.704897
2130.000000	69.752304
2129.000000	69.790427
2128.000000	69.817517
2127.000000	69.833554
2126.000000	69.841751
2125.000000	69.846571
2124.000000	69.850286
2123.000000	69.852946
2122.000000	69.854535
2121.000000	69.855021
2120.000000	69.853101
2119.000000	69.847257
2118.000000	69.837744
2117.000000	69.825669
2116.000000	69.810877
2115.000000	69.792769
2114.000000	69.772381
2113.000000	69.751494
2112.000000	69.730349
2111.000000	69.708363
2110.000000	69.686525
2109.000000	69.666927
2108.000000	69.650725
2107.000000	69.638641
2106.000000	69.632581
2105.000000	69.634426
2104.000000	69.643694
2103.000000	69.658381
2102.000000	69.677465
2101.000000	69.700352
2100.000000	69.725281
2099.000000	69.750515
2098.000000	69.776458
2097.000000	69.803950
2096.000000	69.831023
2095.000000	69.853942
2094.000000	69.870386
2093.000000	69.879592
2092.000000	69.880869
2091.000000	69.874988
2090.000000	69.866512
2089.000000	69.862122
2088.000000	69.866809
2087.000000	69.883514
2086.000000	69.914535
2085.000000	69.960211
2084.000000	70.017039
2083.000000	70.079730
2082.000000	70.144851
2081.000000	70.210543
2080.000000	70.274206
2079.000000	70.333243
2078.000000	70.387362
2077.000000	70.437518
2076.000000	70.483404
2075.000000	70.524782
2074.000000	70.563291
2073.000000	70.601048
2072.000000	70.638005
2071.000000	70.672500
2070.000000	70.704503
2069.000000	70.735479
2068.000000	70.765682
2067.000000	70.793933
2066.000000	70.819838
2065.000000	70.844341
2064.000000	70.868175
2063.000000	70.891666
2062.000000	70.915442
2061.000000	70.939485
2060.000000	70.962265
2059.000000	70.982671
2058.000000	71.002001
2057.000000	71.022419
2056.000000	71.044565
2055.000000	71.068473
2054.000000	71.095080
2053.000000	71.124867
2052.000000	71.155996
2051.000000	71.185585
2050.000000	71.212765
2049.000000	71.238570
2048.000000	71.263000
2047.000000	71.284737
2046.000000	71.303883
2045.000000	71.321961
2044.000000	71.339203
2043.000000	71.354490
2042.000000	71.368162
2041.000000	71.382361
2040.000000	71.398510
2039.000000	71.416832
2038.000000	71.437927
2037.000000	71.462373
2036.000000	71.488919
2035.000000	71.515402
2034.000000	71.541177
2033.000000	71.566444
2032.000000	71.590155
2031.000000	71.611208
2030.000000	71.630441
2029.000000	71.649545
2028.000000	71.667682
2027.000000	71.682357
2026.000000	71.692588
2025.000000	71.699131
2024.000000	71.702531
2023.000000	71.702777
2022.000000	71.702418
2021.000000	71.705860
2020.000000	71.714687
2019.000000	71.726532
2018.000000	71.739385
2017.000000	71.754279
2016.000000	71.772967
2015.000000	71.795606
2014.000000	71.821180
2013.000000	71.848034
2012.000000	71.873441
2011.000000	71.895253
2010.000000	71.913980
2009.000000	71.931473
2008.000000	71.947826
2007.000000	71.962475
2006.000000	71.976627
2005.000000	71.992039
2004.000000	72.008782
2003.000000	72.025216
2002.000000	72.041904
2001.000000	72.060146
2000.000000	72.079831
1999.000000	72.100291
1998.000000	72.120333
1997.000000	72.139181
1996.000000	72.155394
1995.000000	72.164776
1994.000000	72.160449
1993.000000	72.136819
1992.000000	72.094738
1991.000000	72.042360
1990.000000	71.989616
1989.000000	71.943028
1988.000000	71.905579
1987.000000	71.879427
1986.000000	71.866768
1985.000000	71.867322
1984.000000	71.877280
1983.000000	71.892111
1982.000000	71.910529
1981.000000	71.932833
1980.000000	71.959086
1979.000000	71.988601
1978.000000	72.019427
1977.000000	72.050274
1976.000000	72.081238
1975.000000	72.113345
1974.000000	72.147100
1973.000000	72.182351
1972.000000	72.218470
1971.000000	72.253402
1970.000000	72.282189
1969.000000	72.297709
1968.000000	72.293329
1967.000000	72.266414
1966.000000	72.220478
1965.000000	72.162606
1964.000000	72.099031
1963.000000	72.034111
1962.000000	71.973260
1961.000000	71.924858
1960.000000	71.897235
1959.000000	71.892936
1958.000000	71.906887
1957.000000	71.929963
1956.000000	71.952962
1955.000000	71.969807
1954.000000	71.978223
1953.000000	71.980555
1952.000000	71.981896
1951.000000	71.987747
1950.000000	72.004536
1949.000000	72.035621
1948.000000	72.079353
1947.000000	72.132368
1946.000000	72.191533
1945.000000	72.252498
1944.000000	72.308490
1943.000000	72.354993
1942.000000	72.395352
1941.000000	72.436794
1940.000000	72.481575
1939.000000	72.524715
1938.000000	72.559330
1937.000000	72.582751
1936.000000	72.597441
1935.000000	72.607442
1934.000000	72.615675
1933.000000	72.625729
1932.000000	72.639297
1931.000000	72.654572
1930.000000	72.669380
1929.000000	72.677496
1928.000000	72.673929
1927.000000	72.658654
1926.000000	72.636703
1925.000000	72.611706
1924.000000	72.580256
1923.000000	72.546144
1922.000000	72.525566
1921.000000	72.529386
1920.000000	72.549449
1919.000000	72.566897
1918.000000	72.572988
1917.000000	72.574153
1916.000000	72.575963
1915.000000	72.577307
1914.000000	72.575847
1913.000000	72.571493
1912.000000	72.563457
1911.000000	72.550106
1910.000000	72.532750
1909.000000	72.512769
1908.000000	72.492959
1907.000000	72.476628
1906.000000	72.469085
1905.000000	72.474561
1904.000000	72.489273
1903.000000	72.510719
1902.000000	72.540931
1901.000000	72.576744
1900.000000	72.610524
1899.000000	72.638273
1898.000000	72.662573
1897.000000	72.685964
1896.000000	72.704913
1895.000000	72.721331
1894.000000	72.748434
1893.000000	72.795972
1892.000000	72.857802
1891.000000	72.919354
1890.000000	72.971809
1889.000000	73.015575
1888.000000	73.052768
1887.000000	73.084457
1886.000000	73.111499
1885.000000	73.132665
1884.000000	73.145705
1883.000000	73.154206
1882.000000	73.166410
1881.000000	73.183965
1880.000000	73.203053
1879.000000	73.222132
1878.000000	73.242636
1877.000000	73.264566
1876.000000	73.280299
1875.000000	73.280404
1874.000000	73.264434
1873.000000	73.237004
1872.000000	73.197866
1871.000000	73.143385
1870.000000	73.075975
1869.000000	73.011143
1868.000000	72.970350
1867.000000	72.967754
1866.000000	73.006818
1865.000000	73.078713
1864.000000	73.165357
1863.000000	73.251801
1862.000000	73.333106
1861.000000	73.405315
1860.000000	73.459237
1859.000000	73.490236
1858.000000	73.505263
1857.000000	73.513158
1856.000000	73.516874
1855.000000	73.519346
1854.000000	73.530487
1853.000000	73.555108
1852.000000	73.592361
1851.000000	73.641918
1850.000000	73.700354
1849.000000	73.762954
1848.000000	73.824335
1847.000000	73.881206
1846.000000	73.927504
1845.000000	73.951133
1844.000000	73.950867
1843.000000	73.944311
1842.000000	73.947051
1841.000000	73.958464
1840.000000	73.973560
1839.000000	73.990289
1838.000000	74.013499
1837.000000	74.047856
1836.000000	74.089102
1835.000000	74.134409
1834.000000	74.186935
1833.000000	74.246824
1832.000000	74.307213
1831.000000	74.351421
1830.000000	74.368909
1829.000000	74.375295
1828.000000	74.390577
1827.000000	74.416876
1826.000000	74.445231
1825.000000	74.476142
1824.000000	74.520972
1823.000000	74.584559
1822.000000	74.661307
1821.000000	74.742656
1820.000000	74.819646
1819.000000	74.881679
1818.000000	74.926226
1817.000000	74.959284
1816.000000	74.982539
1815.000000	74.998148
1814.000000	75.012507
1813.000000	75.032878
1812.000000	75.058421
1811.000000	75.081720
1810.000000	75.109012
1809.000000	75.149728
1808.000000	75.196689
1807.000000	75.239046
1806.000000	75.277855
1805.000000	75.316941
1804.000000	75.346813
1803.000000	75.357571
1802.000000	75.349857
1801.000000	75.334330
1800.000000	75.318712
1799.000000	75.303505
1798.000000	75.296397
1797.000000	75.305673
1796.000000	75.329437
1795.000000	75.364805
1794.000000	75.408729
1793.000000	75.453192
1792.000000	75.487012
1791.000000	75.505570
1790.000000	75.518563
1789.000000	75.535196
1788.000000	75.553091
1787.000000	75.566814
1786.000000	75.580707
1785.000000	75.605575
1784.000000	75.643283
1783.000000	75.693887
1782.000000	75.751033
1781.000000	75.806062
1780.000000	75.858462
1779.000000	75.909507
1778.000000	75.963156
1777.000000	76.016945
1776.000000	76.068096
1775.000000	76.118959
1774.000000	76.165487
1773.000000	76.200229
1772.000000	76.230849
1771.000000	76.263199
1770.000000	76.293273
1769.000000	76.325445
1768.000000	76.365709
1767.000000	76.415441
1766.000000	76.473968
1765.000000	76.540451
1764.000000	76.606070
1763.000000	76.650016
1762.000000	76.657048
1761.000000	76.645076
1760.000000	76.636327
1759.000000	76.629438
1758.000000	76.614087
1757.000000	76.586363
1756.000000	76.567678
1755.000000	76.572732
1754.000000	76.591953
1753.000000	76.615799
1752.000000	76.645613
1751.000000	76.678425
1750.000000	76.701728
1749.000000	76.702340
1748.000000	76.677867
1747.000000	76.640965
1746.000000	76.597198
1745.000000	76.551592
1744.000000	76.515404
1743.000000	76.494825
1742.000000	76.492277
1741.000000	76.510280
1740.000000	76.544185
1739.000000	76.586030
1738.000000	76.631946
1737.000000	76.681486
1736.000000	76.729574
1735.000000	76.750793
1734.000000	76.746482
1733.000000	76.756772
1732.000000	76.785728
1731.000000	76.808502
1730.000000	76.818818
1729.000000	76.826977
1728.000000	76.850225
1727.000000	76.894575
1726.000000	76.946396
1725.000000	76.996148
1724.000000	77.038201
1723.000000	77.067877
1722.000000	77.095120
1721.000000	77.129374
1720.000000	77.163728
1719.000000	77.173933
1718.000000	77.162502
1717.000000	77.173724
1716.000000	77.211699
1715.000000	77.246293
1714.000000	77.277673
1713.000000	77.318565
1712.000000	77.361873
1711.000000	77.399435
1710.000000	77.439603
1709.000000	77.491011
1708.000000	77.549977
1707.000000	77.601595
1706.000000	77.639178
1705.000000	77.672596
1704.000000	77.705810
1703.000000	77.742734
1702.000000	77.794030
1701.000000	77.848773
1700.000000	77.904487
1699.000000	77.962091
1698.000000	78.015377
1697.000000	78.059200
1696.000000	78.083648
1695.000000	78.100954
1694.000000	78.131966
1693.000000	78.166064
1692.000000	78.187703
1691.000000	78.195558
1690.000000	78.198751
1689.000000	78.202872
1688.000000	78.215836
1687.000000	78.245424
1686.000000	78.290173
1685.000000	78.327256
1684.000000	78.356841
1683.000000	78.401040
1682.000000	78.438829
1681.000000	78.443770
1680.000000	78.430858
1679.000000	78.426937
1678.000000	78.437464
1677.000000	78.447062
1676.000000	78.441954
1675.000000	78.433333
1674.000000	78.429889
1673.000000	78.429401
1672.000000	78.433183
1671.000000	78.438004
1670.000000	78.436059
1669.000000	78.426677
1668.000000	78.423781
1667.000000	78.436026
1666.000000	78.453506
1665.000000	78.465960
1664.000000	78.464853
1663.000000	78.452891
1662.000000	78.439066
1661.000000	78.421069
1660.000000	78.406201
1659.000000	78.405111
1658.000000	78.410486
1657.000000	78.410690
1656.000000	78.407521
1655.000000	78.387418
1654.000000	78.274235
1653.000000	78.080760
1652.000000	77.923262
1651.000000	77.814107
1650.000000	77.690947
1649.000000	77.505828
1648.000000	77.199433
1647.000000	76.744274
1646.000000	76.194125
1645.000000	75.628662
1644.000000	75.069038
1643.000000	74.498484
1642.000000	73.912967
1641.000000	73.343755
1640.000000	72.858548
1639.000000	72.503219
1638.000000	72.290187
1637.000000	72.227037
1636.000000	72.350432
1635.000000	72.667271
1634.000000	73.089330
1633.000000	73.542830
1632.000000	74.019750
1631.000000	74.536064
1630.000000	75.094724
1629.000000	75.682282
1628.000000	76.274188
1627.000000	76.839554
1626.000000	77.356366
1625.000000	77.839016
1624.000000	78.323982
1623.000000	78.820259
1622.000000	79.288249
1621.000000	79.689008
1620.000000	80.033758
1619.000000	80.350857
1618.000000	80.643513
1617.000000	80.888832
1616.000000	81.056462
1615.000000	81.101197
1614.000000	80.981582
1613.000000	80.690715
1612.000000	80.249837
1611.000000	79.679320
1610.000000	78.959396
1609.000000	78.049297
1608.000000	76.926240
1607.000000	75.575442
1606.000000	73.944242
1605.000000	71.936806
1604.000000	69.481571
1603.000000	66.557757
1602.000000	63.214462
1601.000000	59.615842
1600.000000	56.055231
1599.000000	52.855119
1598.000000	50.151028
1597.000000	47.802379
1596.000000	45.582973
1595.000000	43.449850
1594.000000	41.566945
1593.000000	40.122883
1592.000000	39.219729
1591.000000	38.880527
1590.000000	39.064810
1589.000000	39.642375
1588.000000	40.423125
1587.000000	41.207430
1586.000000	41.809689
1585.000000	42.132223
1584.000000	42.255769
1583.000000	42.396702
1582.000000	42.723616
1581.000000	43.247466
1580.000000	43.896503
1579.000000	44.624342
1578.000000	45.406488
1577.000000	46.181744
1576.000000	46.854643
1575.000000	47.372141
1574.000000	47.744516
1573.000000	48.009607
1572.000000	48.233339
1571.000000	48.513846
1570.000000	48.935997
1569.000000	49.502381
1568.000000	50.180387
1567.000000	50.977158
1566.000000	51.891060
1565.000000	52.843751
1564.000000	53.727400
1563.000000	54.498448
1562.000000	55.199099
1561.000000	55.912489
1560.000000	56.744485
1559.000000	57.752791
1558.000000	58.760850
1557.000000	59.564366
1556.000000	60.215891
1555.000000	60.844367
1554.000000	61.474955
1553.000000	62.056446
1552.000000	62.555618
1551.000000	62.982952
1550.000000	63.357463
1549.000000	63.681737
1548.000000	63.963590
1547.000000	64.235632
1546.000000	64.524755
1545.000000	64.826720
1544.000000	65.128907
1543.000000	65.435627
1542.000000	65.765851
1541.000000	66.121501
1540.000000	66.476137
1539.000000	66.806895
1538.000000	67.102279
1537.000000	67.362088
1536.000000	67.600043
1535.000000	67.837317
1534.000000	68.074682
1533.000000	68.297862
1532.000000	68.501940
1531.000000	68.697900
1530.000000	68.904196
1529.000000	69.119416
1528.000000	69.323108
1527.000000	69.509714
1526.000000	69.686295
1525.000000	69.852639
1524.000000	70.003306
1523.000000	70.130929
1522.000000	70.219155
1521.000000	70.256361
1520.000000	70.257574
1519.000000	70.239927
1518.000000	70.189720
1517.000000	70.088914
1516.000000	69.964071
1515.000000	69.879144
1514.000000	69.871512
1513.000000	69.941378
1512.000000	70.070557
1511.000000	70.236996
1510.000000	70.425287
1509.000000	70.625075
1508.000000	70.815033
1507.000000	70.980608
1506.000000	71.147111
1505.000000	71.315991
1504.000000	71.469340
1503.000000	71.612439
1502.000000	71.760063
1501.000000	71.916130
1500.000000	72.072695
1499.000000	72.218996
1498.000000	72.352905
1497.000000	72.485160
1496.000000	72.617878
1495.000000	72.749541
1494.000000	72.887378
1493.000000	73.033886
1492.000000	73.180602
1491.000000	73.318582
1490.000000	73.452649
1489.000000	73.594644
1488.000000	73.741961
1487.000000	73.893475
1486.000000	74.062652
1485.000000	74.238865
1484.000000	74.405402
1483.000000	74.562358
1482.000000	74.708284
1481.000000	74.834117
1480.000000	74.935559
1479.000000	75.028538
1478.000000	75.129243
1477.000000	75.237383
1476.000000	75.345732
1475.000000	75.471673
1474.000000	75.640847
1473.000000	75.849526
1472.000000	76.072851
1471.000000	76.286640
1470.000000	76.476801
1469.000000	76.634202
1468.000000	76.752148
1467.000000	76.823718
1466.000000	76.813901
1465.000000	76.645875
1464.000000	76.268617
1463.000000	75.692165
1462.000000	74.950235
1461.000000	74.077636
1460.000000	73.120374
1459.000000	72.112878
1458.000000	71.040853
1457.000000	69.945614
1456.000000	68.990622
1455.000000	68.225442
1454.000000	67.486965
1453.000000	66.614104
1452.000000	65.579604
1451.000000	64.421932
1450.000000	63.103881
1449.000000	61.521288
1448.000000	59.711756
1447.000000	57.986645
1446.000000	56.735983
1445.000000	56.202375
1444.000000	56.458030
1443.000000	57.403648
1442.000000	58.775554
1441.000000	60.255677
1440.000000	61.615432
1439.000000	62.757568
1438.000000	63.677127
1437.000000	64.419816
1436.000000	65.060450
1435.000000	65.665967
1434.000000	66.283622
1433.000000	66.952099
1432.000000	67.676522
1431.000000	68.406741
1430.000000	69.074865
1429.000000	69.652269
1428.000000	70.139385
1427.000000	70.547113
1426.000000	70.893686
1425.000000	71.200008
1424.000000	71.482435
1423.000000	71.737325
1422.000000	71.966296
1421.000000	72.192633
1420.000000	72.435590
1419.000000	72.682072
1418.000000	72.911670
1417.000000	73.131182
1416.000000	73.348624
1415.000000	73.555879
1414.000000	73.744875
1413.000000	73.919475
1412.000000	74.083322
1411.000000	74.226803
1410.000000	74.345776
1409.000000	74.456192
1408.000000	74.565371
1407.000000	74.659473
1406.000000	74.716605
1405.000000	74.717024
1404.000000	74.651987
1403.000000	74.527245
1402.000000	74.371578
1401.000000	74.225483
1400.000000	74.116681
1399.000000	74.047944
1398.000000	74.005653
1397.000000	73.978913
1396.000000	73.963826
1395.000000	73.957211
1394.000000	73.939003
1393.000000	73.875608
1392.000000	73.743762
1391.000000	73.544720
1390.000000	73.309625
1389.000000	73.094091
1388.000000	72.965761
1387.000000	72.985513
1386.000000	73.173874
1385.000000	73.497382
1384.000000	73.902459
1383.000000	74.345637
1382.000000	74.806246
1381.000000	75.282445
1380.000000	75.768597
1379.000000	76.242044
1378.000000	76.673413
1377.000000	77.038011
1376.000000	77.300801
1375.000000	77.396162
1374.000000	77.220584
1373.000000	76.639752
1372.000000	75.488654
1371.000000	73.604959
1370.000000	70.963839
1369.000000	67.867482
1368.000000	64.965600
1367.000000	62.924845
1366.000000	62.030335
1365.000000	62.135003
1364.000000	62.889604
1363.000000	63.958697
1362.000000	65.120038
1361.000000	66.278844
1360.000000	67.414705
1359.000000	68.512336
1358.000000	69.537676
1357.000000	70.453161
1356.000000	71.240493
1355.000000	71.907154
1354.000000	72.477603
1353.000000	72.981078
1352.000000	73.436199
1351.000000	73.851625
1350.000000	74.233080
1349.000000	74.584968
1348.000000	74.909259
1347.000000	75.203992
1346.000000	75.469202
1345.000000	75.710148
1344.000000	75.933397
1343.000000	76.142581
1342.000000	76.341204
1341.000000	76.533133
1340.000000	76.717397
1339.000000	76.888292
1338.000000	77.043155
1337.000000	77.187290
1336.000000	77.328742
1335.000000	77.476017
1334.000000	77.642380
1333.000000	77.840516
1332.000000	78.066947
1331.000000	78.300957
1330.000000	78.522847
1329.000000	78.727136
1328.000000	78.912066
1327.000000	79.069172
1326.000000	79.185036
1325.000000	79.238596
1324.000000	79.191092
1323.000000	78.975276
1322.000000	78.501675
1321.000000	77.665373
1320.000000	76.360093
1319.000000	74.563613
1318.000000	72.460229
1317.000000	70.441398
1316.000000	68.912595
1315.000000	68.050392
1314.000000	67.729694
1313.000000	67.702908
1312.000000	67.840545
1311.000000	68.188586
1310.000000	68.832635
1309.000000	69.752396
1308.000000	70.827141
1307.000000	71.934353
1306.000000	73.005109
1305.000000	74.008291
1304.000000	74.914555
1303.000000	75.694341
1302.000000	76.338789
1301.000000	76.862187
1300.000000	77.279197
1299.000000	77.591742
1298.000000	77.773473
1297.000000	77.726665
1296.000000	77.271725
1295.000000	76.252411
1294.000000	74.732177
1293.000000	73.081074
1292.000000	71.806978
1291.000000	71.236467
1290.000000	71.325963
1289.000000	71.765311
1288.000000	72.221392
1287.000000	72.486189
1286.000000	72.477590
1285.000000	72.208015
1284.000000	71.784945
1283.000000	71.391736
1282.000000	71.205338
1281.000000	71.297346
1280.000000	71.587837
1279.000000	71.858400
1278.000000	71.798598
1277.000000	71.097333
1276.000000	69.602674
1275.000000	67.479541
1274.000000	65.231092
1273.000000	63.517949
1272.000000	62.859257
1271.000000	63.382527
1270.000000	64.803007
1269.000000	66.639881
1268.000000	68.478244
1267.000000	70.102915
1266.000000	71.462825
1265.000000	72.584967
1264.000000	73.520520
1263.000000	74.317022
1262.000000	75.007108
1261.000000	75.612373
1260.000000	76.152163
1259.000000	76.642515
1258.000000	77.094097
1257.000000	77.510908
1256.000000	77.895064
1255.000000	78.250166
1254.000000	78.578864
1253.000000	78.884347
1252.000000	79.172038
1251.000000	79.449478
1250.000000	79.723693
1249.000000	79.998978
1248.000000	80.278154
1247.000000	80.563505
1246.000000	80.856033
1245.000000	81.154999
1244.000000	81.458077
1243.000000	81.761921
1242.000000	82.062454
1241.000000	82.354755
1240.000000	82.633197
1239.000000	82.891962
1238.000000	83.126659
1237.000000	83.333463
1236.000000	83.507135
1235.000000	83.642629
1234.000000	83.736050
1233.000000	83.784928
1232.000000	83.786439
1231.000000	83.736951
1230.000000	83.635018
1229.000000	83.475485
1228.000000	83.244933
1227.000000	82.920137
1226.000000	82.466812
1225.000000	81.844598
1224.000000	81.005182
1223.000000	79.903587
1222.000000	78.513447
1221.000000	76.834588
1220.000000	74.907691
1219.000000	72.810000
1218.000000	70.635366
1217.000000	68.470315
1216.000000	66.381486
1215.000000	64.413625
1214.000000	62.583391
1213.000000	60.883076
1212.000000	59.305234
1211.000000	57.871421
1210.000000	56.627672
1209.000000	55.640982
1208.000000	54.993889
1207.000000	54.749410
1206.000000	54.914025
1205.000000	55.418184
1204.000000	56.154419
1203.000000	57.022083
1202.000000	57.941638
1201.000000	58.872285
1200.000000	59.812195
1199.000000	60.781078
1198.000000	61.794162
1197.000000	62.849429
1196.000000	63.937247
1195.000000	65.044300
1194.000000	66.150715
1193.000000	67.233960
1192.000000	68.279152
1191.000000	69.279710
1190.000000	70.231073
1189.000000	71.128309
1188.000000	71.966930
1187.000000	72.743986
1186.000000	73.453770
1185.000000	74.090841
1184.000000	74.655065
1183.000000	75.148117
1182.000000	75.571543
1181.000000	75.925832
1180.000000	76.217138
1179.000000	76.461447
1178.000000	76.676322
1177.000000	76.873888
1176.000000	77.059085
1175.000000	77.234794
1174.000000	77.406163
1173.000000	77.579770
1172.000000	77.763230
1171.000000	77.964502
1170.000000	78.189286
1169.000000	78.437555
1168.000000	78.702732
1167.000000	78.973214
1166.000000	79.233637
1165.000000	79.467196
1164.000000	79.662467
1163.000000	79.822760
1162.000000	79.969070
1161.000000	80.131121
1160.000000	80.332727
1159.000000	80.581488
1158.000000	80.867157
1157.000000	81.168537
1156.000000	81.465450
1155.000000	81.747999
1154.000000	82.016083
1153.000000	82.269930
1152.000000	82.503411
1151.000000	82.706485
1150.000000	82.870196
1149.000000	82.989222
1148.000000	83.059827
1147.000000	83.081373
1146.000000	83.057240
1145.000000	82.988401
1144.000000	82.871985
1143.000000	82.701501
1142.000000	82.468258
1141.000000	82.160940
1140.000000	81.762152
1139.000000	81.256111
1138.000000	80.624621
1137.000000	79.840178
1136.000000	78.870547
1135.000000	77.679914
1134.000000	76.235744
1133.000000	74.500974
1132.000000	72.442465
1131.000000	70.065654
1130.000000	67.430514
1129.000000	64.655284
1128.000000	61.894587
1127.000000	59.286554
1126.000000	56.877190
1125.000000	54.589498
1124.000000	52.296045
1123.000000	49.957239
1122.000000	47.715080
1121.000000	45.848437
1120.000000	44.633421
1119.000000	44.153893
1118.000000	44.232078
1117.000000	44.590940
1116.000000	45.095265
1115.000000	45.856925
1114.000000	47.066042
1113.000000	48.755939
1112.000000	50.746418
1111.000000	52.758958
1110.000000	54.549742
1109.000000	55.943530
1108.000000	56.780446
1107.000000	56.863126
1106.000000	56.011464
1105.000000	54.206296
1104.000000	51.759030
1103.000000	49.346436
1102.000000	47.771189
1101.000000	47.556367
1100.000000	48.689747
1099.000000	50.706132
1098.000000	53.014097
1097.000000	55.207705
1096.000000	57.132048
1095.000000	58.783708
1094.000000	60.209123
1093.000000	61.464993
1092.000000	62.608628
1091.000000	63.680063
1090.000000	64.695645
1089.000000	65.661693
1088.000000	66.588796
1087.000000	67.483059
1086.000000	68.343842
1085.000000	69.170875
1084.000000	69.965523
1083.000000	70.728216
1082.000000	71.457763
1081.000000	72.158043
1080.000000	72.836753
1079.000000	73.497631
1078.000000	74.142652
1077.000000	74.776236
1076.000000	75.402059
1075.000000	76.016150
1074.000000	76.603422
1073.000000	77.142931
1072.000000	77.596841
1071.000000	77.903478
1070.000000	77.986076
1069.000000	77.754120
1068.000000	77.118188
1067.000000	75.988344
1066.000000	74.294029
1065.000000	72.023802
1064.000000	69.238266
1063.000000	66.086381
1062.000000	62.762083
1061.000000	59.428362
1060.000000	56.153389
1059.000000	52.887455
1058.000000	49.524603
1057.000000	46.040836
1056.000000	42.630016
1055.000000	39.695286
1054.000000	37.705062
1053.000000	36.972556
1052.000000	37.534010
1051.000000	39.157855
1050.000000	41.427932
1049.000000	43.924774
1048.000000	46.345257
1047.000000	48.533309
1046.000000	50.451694
1045.000000	52.127566
1044.000000	53.614348
1043.000000	54.954383
1042.000000	56.162317
1041.000000	57.235109
1040.000000	58.177237
1039.000000	59.000899
1038.000000	59.720572
1037.000000	60.357178
1036.000000	60.938280
1035.000000	61.494142
1034.000000	62.045628
1033.000000	62.604565
1032.000000	63.179074
1031.000000	63.769761
1030.000000	64.366659
1029.000000	64.956635
1028.000000	65.535464
1027.000000	66.110197
1026.000000	66.694546
1025.000000	67.305465
1024.000000	67.960935
1023.000000	68.671199
1022.000000	69.431073
1021.000000	70.220317
1020.000000	71.010068
1019.000000	71.762276
1018.000000	72.422600
1017.000000	72.921580
1016.000000	73.161021
1015.000000	73.022534
1014.000000	72.380114
1013.000000	71.121100
1012.000000	69.188706
1011.000000	66.587645
1010.000000	63.397565
1009.000000	59.795184
1008.000000	56.089753
1007.000000	52.725017
1006.000000	50.184138
1005.000000	48.816254
1004.000000	48.695931
1003.000000	49.607083
1002.000000	51.125617
1001.000000	52.769855
1000.000000	54.104072
999.000000	54.775483
998.000000	54.562838
997.000000	53.469278
996.000000	51.799094
995.000000	50.095187
994.000000	48.905061
993.000000	48.524334
992.000000	48.911362
991.000000	49.806937
990.000000	50.930853
989.000000	52.111968
988.000000	53.299842
987.000000	54.488282
986.000000	55.660142
985.000000	56.782710
984.000000	57.823863
983.000000	58.763785
982.000000	59.596444
981.000000	60.330375
980.000000	60.984125
979.000000	61.580021
978.000000	62.134802
977.000000	62.660257
976.000000	63.162585
975.000000	63.637944
974.000000	64.075817
973.000000	64.464757
972.000000	64.799903
971.000000	65.084769
970.000000	65.330255
969.000000	65.555614
968.000000	65.783674
967.000000	66.032839
966.000000	66.310356
965.000000	66.610696
964.000000	66.919057
963.000000	67.216020
962.000000	67.484916
961.000000	67.718387
960.000000	67.918460
959.000000	68.093190
958.000000	68.253525
957.000000	68.411032
956.000000	68.573953
955.000000	68.743909
954.000000	68.918499
953.000000	69.095554
952.000000	69.274082
951.000000	69.453565
950.000000	69.634687
949.000000	69.819244
948.000000	70.005313
947.000000	70.183482
946.000000	70.341009
945.000000	70.468580
944.000000	70.563113
943.000000	70.627932
942.000000	70.675113
941.000000	70.726011
940.000000	70.803939
939.000000	70.924249
938.000000	71.089887
937.000000	71.292059
936.000000	71.511247
935.000000	71.720322
934.000000	71.893863
933.000000	72.018227
932.000000	72.093802
931.000000	72.131738
930.000000	72.150635
929.000000	72.172433
928.000000	72.214770
927.000000	72.285357
926.000000	72.384250
925.000000	72.508595
924.000000	72.653027
923.000000	72.808826
922.000000	72.967085
921.000000	73.121457
920.000000	73.266079
919.000000	73.393652
918.000000	73.498630
917.000000	73.580526
916.000000	73.642718
915.000000	73.691719
914.000000	73.740191
913.000000	73.807054
912.000000	73.910132
911.000000	74.059078
910.000000	74.254339
909.000000	74.486815
908.000000	74.732920
907.000000	74.949801
906.000000	75.081577
905.000000	75.079613
904.000000	74.936523
903.000000	74.715341
902.000000	74.531486
901.000000	74.478419
900.000000	74.554284
899.000000	74.666428
898.000000	74.715964
897.000000	74.667697
896.000000	74.554254
895.000000	74.436803
894.000000	74.348617
893.000000	74.225237
892.000000	73.859523
891.000000	72.997400
890.000000	71.579473
889.000000	69.912121
888.000000	68.532696
887.000000	67.856267
886.000000	67.923886
885.000000	68.469926
884.000000	69.192175
883.000000	69.915532
882.000000	70.577511
881.000000	71.156304
880.000000	71.644162
879.000000	72.056695
878.000000	72.420534
877.000000	72.751230
876.000000	73.048809
875.000000	73.311103
874.000000	73.544668
873.000000	73.767630
872.000000	74.003770
871.000000	74.269036
870.000000	74.560577
869.000000	74.856281
868.000000	75.125607
867.000000	75.339049
866.000000	75.474563
865.000000	75.525067
864.000000	75.502252
863.000000	75.434314
862.000000	75.356948
861.000000	75.304001
860.000000	75.301553
859.000000	75.363005
858.000000	75.486596
857.000000	75.659522
856.000000	75.866316
855.000000	76.092108
854.000000	76.320156
853.000000	76.529464
852.000000	76.697709
851.000000	76.808127
850.000000	76.855703
849.000000	76.848933
848.000000	76.808621
847.000000	76.765008
846.000000	76.751676
845.000000	76.796290
844.000000	76.911891
843.000000	77.093533
842.000000	77.321028
841.000000	77.564467
840.000000	77.789713
839.000000	77.966277
838.000000	78.076939
837.000000	78.122097
836.000000	78.115768
835.000000	78.080899
834.000000	78.047426
833.000000	78.047654
832.000000	78.105632
831.000000	78.227661
830.000000	78.402343
829.000000	78.608821
828.000000	78.825325
827.000000	79.033304
826.000000	79.218284
825.000000	79.368315
824.000000	79.473337
823.000000	79.529664
822.000000	79.547294
821.000000	79.548971
820.000000	79.560622
819.000000	79.601853
818.000000	79.677729
817.000000	79.772143
816.000000	79.832489
815.000000	79.757467
814.000000	79.395841
813.000000	78.568975
812.000000	77.145577
811.000000	75.146570
810.000000	72.818696
809.000000	70.586419
808.000000	68.883189
807.000000	67.964691
806.000000	67.830608
805.000000	68.287885
804.000000	69.081382
803.000000	69.999026
802.000000	70.901004
801.000000	71.712627
800.000000	72.401167
799.000000	72.953389
798.000000	73.364635
797.000000	73.636023
796.000000	73.776001
795.000000	73.801152
794.000000	73.738027
793.000000	73.620078
792.000000	73.483917
791.000000	73.364424
790.000000	73.290873
789.000000	73.282469
788.000000	73.342338
787.000000	73.456881
786.000000	73.603680
785.000000	73.761948
784.000000	73.915629
783.000000	74.051757
782.000000	74.160734
781.000000	74.240256
780.000000	74.299017
779.000000	74.357786
778.000000	74.447605
777.000000	74.600660
776.000000	74.835354
775.000000	75.146107
774.000000	75.505662
773.000000	75.875850
772.000000	76.217598
771.000000	76.499841
770.000000	76.707985
769.000000	76.847125
768.000000	76.937718
767.000000	77.009421
766.000000	77.096077
765.000000	77.227369
764.000000	77.417628
763.000000	77.660513
762.000000	77.934130
761.000000	78.208951
760.000000	78.452642
759.000000	78.637252
758.000000	78.749846
757.000000	78.796884
756.000000	78.797937
755.000000	78.777509
754.000000	78.761695
753.000000	78.773936
752.000000	78.827493
751.000000	78.922429
750.000000	79.051030
749.000000	79.203212
748.000000	79.365898
747.000000	79.522606
746.000000	79.657455
745.000000	79.757162
744.000000	79.808865
743.000000	79.802641
742.000000	79.740734
741.000000	79.642525
740.000000	79.538750
739.000000	79.462663
738.000000	79.443004
737.000000	79.492180
736.000000	79.590047
735.000000	79.676118
734.000000	79.660032
733.000000	79.443743
732.000000	78.948581
731.000000	78.150277
730.000000	77.110623
729.000000	75.979226
728.000000	74.949099
727.000000	74.189950
726.000000	73.797506
725.000000	73.777482
724.000000	74.059525
723.000000	74.534023
722.000000	75.099639
721.000000	75.687721
720.000000	76.251933
719.000000	76.753211
718.000000	77.166060
717.000000	77.487275
716.000000	77.728255
715.000000	77.903827
714.000000	78.031334
713.000000	78.133304
712.000000	78.232970
711.000000	78.348981
710.000000	78.496211
709.000000	78.683862
708.000000	78.905404
707.000000	79.134616
706.000000	79.337046
705.000000	79.483634
704.000000	79.555906
703.000000	79.550970
702.000000	79.489526
701.000000	79.413003
700.000000	79.365366
699.000000	79.377019
698.000000	79.461601
697.000000	79.615114
696.000000	79.810379
695.000000	80.002694
694.000000	80.151840
693.000000	80.237765
692.000000	80.258389
691.000000	80.224415
690.000000	80.160986
689.000000	80.102598
688.000000	80.073895
687.000000	80.079323
686.000000	80.115523
685.000000	80.182054
684.000000	80.273479
683.000000	80.376167
682.000000	80.480784
681.000000	80.588988
680.000000	80.697114
679.000000	80.790882
678.000000	80.858963
677.000000	80.889061
676.000000	80.880955
675.000000	80.841844
674.000000	80.776918
673.000000	80.724804
672.000000	80.764810
671.000000	80.956569
670.000000	81.260417
669.000000	81.606232
668.000000	81.910988
667.000000	82.034819
666.000000	81.990692
665.000000	81.904641
664.000000	81.815879
663.000000	81.711915
662.000000	81.603834
661.000000	81.540099
660.000000	81.548764
659.000000	81.632602
658.000000	81.783519
657.000000	81.971002
656.000000	82.158326
655.000000	82.321011
654.000000	82.439880
653.000000	82.506799
652.000000	82.529432
651.000000	82.525826
650.000000	82.514723
649.000000	82.511334
648.000000	82.525196
647.000000	82.558734
646.000000	82.611386
645.000000	82.686905
644.000000	82.792079
643.000000	82.927587
642.000000	83.083392
641.000000	83.242940
640.000000	83.386246
639.000000	83.488814
638.000000	83.528810
637.000000	83.500628
636.000000	83.419714
635.000000	83.317577
634.000000	83.235619
633.000000	83.216158
632.000000	83.287468
631.000000	83.449942
630.000000	83.675607
629.000000	83.920599
628.000000	84.137554
627.000000	84.284549
626.000000	84.338977
625.000000	84.309906
624.000000	84.232048
623.000000	84.147822
622.000000	84.092920
621.000000	84.089512
620.000000	84.144871
619.000000	84.255526
618.000000	84.413872
617.000000	84.607675
616.000000	84.813118
615.000000	85.000228
614.000000	85.153425
613.000000	85.280646
612.000000	85.395190
611.000000	85.496379
610.000000	85.577590
609.000000	85.642248
608.000000	85.702030
607.000000	85.768305
606.000000	85.855463
605.000000	85.983295
604.000000	86.160311
603.000000	86.367023
602.000000	86.561123
601.000000	86.692712
600.000000	86.706073
599.000000	86.541321
598.000000	86.153154
597.000000	85.509926
596.000000	84.573062
595.000000	83.278104
594.000000	81.516337
593.000000	79.132800
592.000000	75.983182
591.000000	72.115943
590.000000	67.954138
589.000000	64.257049
588.000000	61.815252
587.000000	61.059982
586.000000	61.822592
585.000000	63.473470
584.000000	65.379676
583.000000	67.202028
582.000000	68.851333
581.000000	70.325038
580.000000	71.628914
579.000000	72.778039
578.000000	73.788026
577.000000	74.666058
576.000000	75.420830
575.000000	76.069314
574.000000	76.620332
573.000000	77.073215
572.000000	77.432894
571.000000	77.713038
570.000000	77.927319
569.000000	78.085132
568.000000	78.206358
567.000000	78.320542
566.000000	78.440213
565.000000	78.543963
564.000000	78.588900
563.000000	78.539857
562.000000	78.387792
561.000000	78.154375
560.000000	77.882141
559.000000	77.609402
558.000000	77.352349
557.000000	77.123105
556.000000	76.970999
555.000000	76.983950
554.000000	77.229552
553.000000	77.698957
552.000000	78.312622
551.000000	78.962012
550.000000	79.546073
549.000000	80.005135
548.000000	80.336547
547.000000	80.575949
546.000000	80.763740
545.000000	80.927800
544.000000	81.085086
543.000000	81.244660
542.000000	81.406639
541.000000	81.563420
540.000000	81.708129
539.000000	81.839287
538.000000	81.959394
537.000000	82.071619
536.000000	82.173646
535.000000	82.253571
534.000000	82.294941
533.000000	82.290367
532.000000	82.246270
531.000000	82.180944
530.000000	82.121903
529.000000	82.098006
528.000000	82.122641
527.000000	82.180402
526.000000	82.219331
525.000000	82.164127
524.000000	81.939365
523.000000	81.475668
522.000000	80.718056
521.000000	79.631408
520.000000	78.209399
519.000000	76.487221
518.000000	74.559368
517.000000	72.597667
516.000000	70.833953
515.000000	69.486022
514.000000	68.666857
513.000000	68.371060
512.000000	68.526618
511.000000	69.043176
510.000000	69.815609
509.000000	70.736355
508.000000	71.734248
507.000000	72.763881
506.000000	73.774861
505.000000	74.725574
504.000000	75.617006
503.000000	76.476790
502.000000	77.310258
501.000000	78.094612
500.000000	78.815649
499.000000	79.480238
498.000000	80.087557
497.000000	80.622863
496.000000	81.075723
495.000000	81.444930
494.000000	81.734700
493.000000	81.960681
492.000000	82.164181
491.000000	82.398274
490.000000	82.690350
489.000000	83.031966
488.000000	83.386697
487.000000	83.692236
486.000000	83.857739
485.000000	83.781750
484.000000	83.396029
483.000000	82.674676
482.000000	81.616628
481.000000	80.238103
480.000000	78.571503
479.000000	76.654905
478.000000	74.501599
477.000000	72.129570
476.000000	69.641957
475.000000	67.253968
474.000000	65.216393
473.000000	63.761021
472.000000	63.091654
471.000000	63.299805
470.000000	64.274960
469.000000	65.749376
468.000000	67.448961
467.000000	69.166944
466.000000	70.763335
465.000000	72.186188
464.000000	73.459955
463.000000	74.632518
462.000000	75.716697
461.000000	76.688594
460.000000	77.527736
459.000000	78.236110
458.000000	78.813033
457.000000	79.242652
456.000000	79.531145
455.000000	79.728481
454.000000	79.911608
453.000000	80.146703
452.000000	80.458560
451.000000	80.833379
450.000000	81.243393
449.000000	81.662894
448.000000	82.055748
447.000000	82.373339
446.000000	82.585908
445.000000	82.700959
444.000000	82.740862
443.000000	82.732536
442.000000	82.718800
441.000000	82.747756
440.000000	82.841543
439.000000	82.992513
438.000000	83.189724
437.000000	83.427294
436.000000	83.682803
435.000000	83.910712
434.000000	84.073829
433.000000	84.160821
432.000000	84.161580
431.000000	84.062149
430.000000	83.882828
429.000000	83.683734
428.000000	83.530374
427.000000	83.475539
426.000000	83.560591
425.000000	83.803238
424.000000	84.173765
423.000000	84.595488
422.000000	84.986684
421.000000	85.294742
420.000000	85.468299
419.000000	85.467556
418.000000	85.370724
417.000000	85.320663
416.000000	85.359791
415.000000	85.461510
414.000000	85.629026
413.000000	85.898796
412.000000	86.266512
411.000000	86.645787
410.000000	86.916107
409.000000	86.969214
408.000000	86.728093
407.000000	86.200953
406.000000	85.565058
405.000000	85.098424
404.000000	84.975611
403.000000	85.173913
402.000000	85.566983
401.000000	86.027774
400.000000	86.475127
