PE IR       SUBTECH     SPECTRUM    ASCII       PEDS        4.00        
   -1
23ms262_trans.asc
24/09/24
16:17:25.00
24/09/24
16:17:25.00
Administrator
Sample 1199 By Administrator Date Tuesday, September 24 2024
400.000000
#HDR
-1
-1
#GR
cm-1
%T
1.0
0.0
4000.000000
-1.000000
3601
8
93.298122
15.683334
#DATA
4000.000000	62.885706
3999.000000	62.853469
3998.000000	62.823281
3997.000000	62.794735
3996.000000	62.766772
3995.000000	62.738690
3994.000000	62.710539
3993.000000	62.682377
3992.000000	62.653509
3991.000000	62.622902
3990.000000	62.590189
3989.000000	62.555809
3988.000000	62.519988
3987.000000	62.482063
3986.000000	62.440947
3985.000000	62.395867
3984.000000	62.346693
3983.000000	62.293891
3982.000000	62.238750
3981.000000	62.183584
3980.000000	62.131638
3979.000000	62.086591
3978.000000	62.052134
3977.000000	62.031439
3976.000000	62.026694
3975.000000	62.038513
3974.000000	62.065703
3973.000000	62.106495
3972.000000	62.159082
3971.000000	62.221467
3970.000000	62.290973
3969.000000	62.364276
3968.000000	62.437900
3967.000000	62.508568
3966.000000	62.573249
3965.000000	62.629154
3964.000000	62.674132
3963.000000	62.707288
3962.000000	62.729817
3961.000000	62.744952
3960.000000	62.756255
3959.000000	62.766351
3958.000000	62.776970
3957.000000	62.790506
3956.000000	62.810146
3955.000000	62.838855
3954.000000	62.878753
3953.000000	62.930534
3952.000000	62.993594
3951.000000	63.066230
3950.000000	63.146645
3949.000000	63.233125
3948.000000	63.324070
3947.000000	63.418921
3946.000000	63.517351
3945.000000	63.616777
3944.000000	63.711839
3943.000000	63.798607
3942.000000	63.879078
3941.000000	63.958464
3940.000000	64.038217
3939.000000	64.114873
3938.000000	64.184038
3937.000000	64.245468
3936.000000	64.302640
3935.000000	64.357515
3934.000000	64.408776
3933.000000	64.454096
3932.000000	64.494051
3931.000000	64.531143
3930.000000	64.566478
3929.000000	64.600710
3928.000000	64.634918
3927.000000	64.668769
3926.000000	64.697749
3925.000000	64.718110
3924.000000	64.734153
3923.000000	64.753603
3922.000000	64.777896
3921.000000	64.802943
3920.000000	64.826763
3919.000000	64.852189
3918.000000	64.881272
3917.000000	64.913610
3916.000000	64.949957
3915.000000	64.992771
3914.000000	65.042137
3913.000000	65.096016
3912.000000	65.152584
3911.000000	65.212592
3910.000000	65.275516
3909.000000	65.340319
3908.000000	65.406289
3907.000000	65.471293
3906.000000	65.529397
3905.000000	65.573134
3904.000000	65.604926
3903.000000	65.638295
3902.000000	65.682861
3901.000000	65.734062
3900.000000	65.779966
3899.000000	65.816225
3898.000000	65.848575
3897.000000	65.882329
3896.000000	65.917192
3895.000000	65.953531
3894.000000	65.992335
3893.000000	66.032036
3892.000000	66.063820
3891.000000	66.083251
3890.000000	66.097809
3889.000000	66.118667
3888.000000	66.147339
3887.000000	66.171276
3886.000000	66.179298
3885.000000	66.182035
3884.000000	66.198116
3883.000000	66.228824
3882.000000	66.256902
3881.000000	66.266489
3880.000000	66.261850
3879.000000	66.261881
3878.000000	66.278283
3877.000000	66.307546
3876.000000	66.335389
3875.000000	66.348562
3874.000000	66.351416
3873.000000	66.364323
3872.000000	66.396200
3871.000000	66.427483
3870.000000	66.437606
3869.000000	66.439630
3868.000000	66.458029
3867.000000	66.493579
3866.000000	66.525350
3865.000000	66.541310
3864.000000	66.553049
3863.000000	66.575058
3862.000000	66.604119
3861.000000	66.632509
3860.000000	66.656297
3859.000000	66.677886
3858.000000	66.704342
3857.000000	66.744958
3856.000000	66.799124
3855.000000	66.839894
3854.000000	66.843264
3853.000000	66.836300
3852.000000	66.849706
3851.000000	66.871024
3850.000000	66.879935
3849.000000	66.876280
3848.000000	66.873126
3847.000000	66.882324
3846.000000	66.904993
3845.000000	66.935456
3844.000000	66.964790
3843.000000	66.987117
3842.000000	67.005032
3841.000000	67.024665
3840.000000	67.041297
3839.000000	67.048349
3838.000000	67.050340
3837.000000	67.057704
3836.000000	67.074248
3835.000000	67.096418
3834.000000	67.120607
3833.000000	67.143635
3832.000000	67.162941
3831.000000	67.182012
3830.000000	67.207449
3829.000000	67.241239
3828.000000	67.275512
3827.000000	67.299014
3826.000000	67.311076
3825.000000	67.327068
3824.000000	67.359099
3823.000000	67.397991
3822.000000	67.418280
3821.000000	67.413628
3820.000000	67.410382
3819.000000	67.430120
3818.000000	67.467054
3817.000000	67.496167
3816.000000	67.506607
3815.000000	67.519119
3814.000000	67.552208
3813.000000	67.593922
3812.000000	67.623641
3811.000000	67.640915
3810.000000	67.663604
3809.000000	67.702429
3808.000000	67.744903
3807.000000	67.774740
3806.000000	67.797848
3805.000000	67.832643
3804.000000	67.883033
3803.000000	67.931618
3802.000000	67.954388
3801.000000	67.959084
3800.000000	67.974169
3799.000000	68.004770
3798.000000	68.035399
3797.000000	68.053902
3796.000000	68.066968
3795.000000	68.090179
3794.000000	68.128102
3793.000000	68.169416
3792.000000	68.203085
3791.000000	68.229419
3790.000000	68.254724
3789.000000	68.282670
3788.000000	68.313555
3787.000000	68.346346
3786.000000	68.378423
3785.000000	68.405669
3784.000000	68.427074
3783.000000	68.447384
3782.000000	68.470122
3781.000000	68.492470
3780.000000	68.509239
3779.000000	68.523308
3778.000000	68.543049
3777.000000	68.570465
3776.000000	68.596212
3775.000000	68.611089
3774.000000	68.617547
3773.000000	68.625331
3772.000000	68.635919
3771.000000	68.640560
3770.000000	68.636643
3769.000000	68.634888
3768.000000	68.643564
3767.000000	68.658091
3766.000000	68.667783
3765.000000	68.668713
3764.000000	68.669180
3763.000000	68.678992
3762.000000	68.695758
3761.000000	68.709676
3760.000000	68.718459
3759.000000	68.731053
3758.000000	68.750519
3757.000000	68.771968
3756.000000	68.794305
3755.000000	68.820512
3754.000000	68.850293
3753.000000	68.878461
3752.000000	68.905804
3751.000000	68.940190
3750.000000	68.979020
3749.000000	69.010873
3748.000000	69.038913
3747.000000	69.078771
3746.000000	69.127463
3745.000000	69.161466
3744.000000	69.187616
3743.000000	69.232980
3742.000000	69.290003
3741.000000	69.334413
3740.000000	69.361212
3739.000000	69.389631
3738.000000	69.436490
3737.000000	69.495449
3736.000000	69.552643
3735.000000	69.605888
3734.000000	69.661008
3733.000000	69.715004
3732.000000	69.759683
3731.000000	69.794010
3730.000000	69.824149
3729.000000	69.855478
3728.000000	69.885677
3727.000000	69.908274
3726.000000	69.926161
3725.000000	69.947696
3724.000000	69.972443
3723.000000	69.992334
3722.000000	70.004498
3721.000000	70.016071
3720.000000	70.035068
3719.000000	70.063405
3718.000000	70.094847
3717.000000	70.124340
3716.000000	70.155277
3715.000000	70.190886
3714.000000	70.229038
3713.000000	70.264717
3712.000000	70.297372
3711.000000	70.331989
3710.000000	70.369567
3709.000000	70.406481
3708.000000	70.435927
3707.000000	70.455214
3706.000000	70.469023
3705.000000	70.484861
3704.000000	70.505035
3703.000000	70.525320
3702.000000	70.542041
3701.000000	70.557160
3700.000000	70.574383
3699.000000	70.593602
3698.000000	70.610647
3697.000000	70.621071
3696.000000	70.628237
3695.000000	70.638123
3694.000000	70.651452
3693.000000	70.665302
3692.000000	70.678755
3691.000000	70.693143
3690.000000	70.708956
3689.000000	70.729492
3688.000000	70.756525
3687.000000	70.784675
3686.000000	70.805409
3685.000000	70.814159
3684.000000	70.812318
3683.000000	70.809243
3682.000000	70.814774
3681.000000	70.825399
3680.000000	70.830804
3679.000000	70.830702
3678.000000	70.836216
3677.000000	70.844009
3676.000000	70.837525
3675.000000	70.823316
3674.000000	70.818848
3673.000000	70.822881
3672.000000	70.820799
3671.000000	70.798792
3670.000000	70.764662
3669.000000	70.744971
3668.000000	70.746134
3667.000000	70.748890
3666.000000	70.736834
3665.000000	70.710224
3664.000000	70.678677
3663.000000	70.649409
3662.000000	70.620747
3661.000000	70.587098
3660.000000	70.549073
3659.000000	70.509749
3658.000000	70.467397
3657.000000	70.414586
3656.000000	70.352285
3655.000000	70.291019
3654.000000	70.234708
3653.000000	70.176444
3652.000000	70.105578
3651.000000	70.016481
3650.000000	69.918420
3649.000000	69.829396
3648.000000	69.753852
3647.000000	69.681718
3646.000000	69.604162
3645.000000	69.520519
3644.000000	69.433375
3643.000000	69.344755
3642.000000	69.255568
3641.000000	69.168263
3640.000000	69.083894
3639.000000	68.998102
3638.000000	68.906223
3637.000000	68.808004
3636.000000	68.704795
3635.000000	68.594150
3634.000000	68.475311
3633.000000	68.355206
3632.000000	68.238966
3631.000000	68.115059
3630.000000	67.959473
3629.000000	67.776002
3628.000000	67.606239
3627.000000	67.469343
3626.000000	67.342516
3625.000000	67.203162
3624.000000	67.051505
3623.000000	66.900731
3622.000000	66.756910
3621.000000	66.610268
3620.000000	66.447979
3619.000000	66.273312
3618.000000	66.102785
3617.000000	65.946772
3616.000000	65.801820
3615.000000	65.655737
3614.000000	65.500930
3613.000000	65.344085
3612.000000	65.197858
3611.000000	65.063719
3610.000000	64.929637
3609.000000	64.785749
3608.000000	64.634508
3607.000000	64.484180
3606.000000	64.336556
3605.000000	64.187549
3604.000000	64.033944
3603.000000	63.873879
3602.000000	63.706883
3601.000000	63.534580
3600.000000	63.362320
3599.000000	63.192649
3598.000000	63.021948
3597.000000	62.844086
3596.000000	62.657642
3595.000000	62.464898
3594.000000	62.272258
3593.000000	62.087602
3592.000000	61.913566
3591.000000	61.744356
3590.000000	61.567712
3589.000000	61.373369
3588.000000	61.163822
3587.000000	60.956425
3586.000000	60.767135
3585.000000	60.597405
3584.000000	60.438619
3583.000000	60.282491
3582.000000	60.127029
3581.000000	59.974456
3580.000000	59.827171
3579.000000	59.683829
3578.000000	59.541992
3577.000000	59.401848
3576.000000	59.266146
3575.000000	59.136762
3574.000000	59.013975
3573.000000	58.898756
3572.000000	58.792142
3571.000000	58.693380
3570.000000	58.599802
3569.000000	58.508540
3568.000000	58.419515
3567.000000	58.337709
3566.000000	58.269397
3565.000000	58.215478
3564.000000	58.171754
3563.000000	58.133972
3562.000000	58.101383
3561.000000	58.076381
3560.000000	58.060331
3559.000000	58.050836
3558.000000	58.043928
3557.000000	58.038129
3556.000000	58.034486
3555.000000	58.033665
3554.000000	58.034897
3553.000000	58.038224
3552.000000	58.045122
3551.000000	58.055288
3550.000000	58.064896
3549.000000	58.069491
3548.000000	58.067720
3547.000000	58.062755
3546.000000	58.060386
3545.000000	58.065419
3544.000000	58.078066
3543.000000	58.093609
3542.000000	58.106060
3541.000000	58.111980
3540.000000	58.110518
3539.000000	58.101654
3538.000000	58.086768
3537.000000	58.069790
3536.000000	58.055180
3535.000000	58.043206
3534.000000	58.029890
3533.000000	58.010677
3532.000000	57.983044
3531.000000	57.945839
3530.000000	57.898458
3529.000000	57.841416
3528.000000	57.776092
3527.000000	57.703688
3526.000000	57.625264
3525.000000	57.542883
3524.000000	57.458911
3523.000000	57.373612
3522.000000	57.284365
3521.000000	57.187516
3520.000000	57.080124
3519.000000	56.960385
3518.000000	56.828535
3517.000000	56.686990
3516.000000	56.538168
3515.000000	56.382295
3514.000000	56.218990
3513.000000	56.048699
3512.000000	55.870792
3511.000000	55.682362
3510.000000	55.481992
3509.000000	55.273435
3508.000000	55.062006
3507.000000	54.847913
3506.000000	54.626410
3505.000000	54.394871
3504.000000	54.157425
3503.000000	53.921815
3502.000000	53.693126
3501.000000	53.471349
3500.000000	53.253453
3499.000000	53.036902
3498.000000	52.822643
3497.000000	52.615135
3496.000000	52.418852
3495.000000	52.234955
3494.000000	52.062474
3493.000000	51.901533
3492.000000	51.752756
3491.000000	51.615097
3490.000000	51.487520
3489.000000	51.372006
3488.000000	51.272869
3487.000000	51.193204
3486.000000	51.133309
3485.000000	51.091348
3484.000000	51.063124
3483.000000	51.043456
3482.000000	51.031307
3481.000000	51.032498
3480.000000	51.054333
3479.000000	51.097847
3478.000000	51.158025
3477.000000	51.229773
3476.000000	51.310136
3475.000000	51.396311
3474.000000	51.484832
3473.000000	51.573193
3472.000000	51.660488
3471.000000	51.747189
3470.000000	51.836719
3469.000000	51.935365
3468.000000	52.047358
3467.000000	52.170693
3466.000000	52.299273
3465.000000	52.427539
3464.000000	52.551443
3463.000000	52.667924
3462.000000	52.777313
3461.000000	52.884780
3460.000000	52.996028
3459.000000	53.112065
3458.000000	53.230074
3457.000000	53.347669
3456.000000	53.464005
3455.000000	53.578239
3454.000000	53.689941
3453.000000	53.799903
3452.000000	53.908995
3451.000000	54.017119
3450.000000	54.124675
3449.000000	54.233782
3448.000000	54.346285
3447.000000	54.461634
3446.000000	54.577918
3445.000000	54.693756
3444.000000	54.808005
3443.000000	54.919321
3442.000000	55.027293
3441.000000	55.132674
3440.000000	55.235404
3439.000000	55.334317
3438.000000	55.430269
3437.000000	55.527239
3436.000000	55.628710
3435.000000	55.734192
3434.000000	55.840576
3433.000000	55.945213
3432.000000	56.047004
3431.000000	56.146400
3430.000000	56.245499
3429.000000	56.346712
3428.000000	56.449765
3427.000000	56.551361
3426.000000	56.648646
3425.000000	56.741686
3424.000000	56.831859
3423.000000	56.919971
3422.000000	57.007397
3421.000000	57.096967
3420.000000	57.190564
3419.000000	57.286820
3418.000000	57.382689
3417.000000	57.476043
3416.000000	57.565917
3415.000000	57.652358
3414.000000	57.737489
3413.000000	57.825040
3412.000000	57.917145
3411.000000	58.012831
3410.000000	58.110598
3409.000000	58.210681
3408.000000	58.313181
3407.000000	58.415729
3406.000000	58.514901
3405.000000	58.609066
3404.000000	58.698982
3403.000000	58.787349
3402.000000	58.879439
3401.000000	58.981628
3400.000000	59.096351
3399.000000	59.219019
3398.000000	59.341548
3397.000000	59.458077
3396.000000	59.566343
3395.000000	59.666412
3394.000000	59.761315
3393.000000	59.857617
3392.000000	59.961763
3391.000000	60.075199
3390.000000	60.194152
3389.000000	60.313385
3388.000000	60.429055
3387.000000	60.539557
3386.000000	60.645932
3385.000000	60.750960
3384.000000	60.856399
3383.000000	60.961628
3382.000000	61.065843
3381.000000	61.170097
3380.000000	61.275844
3379.000000	61.382970
3378.000000	61.490851
3377.000000	61.600046
3376.000000	61.711005
3375.000000	61.822226
3374.000000	61.931457
3373.000000	62.038113
3372.000000	62.143427
3371.000000	62.249599
3370.000000	62.359902
3369.000000	62.478055
3368.000000	62.605552
3367.000000	62.740286
3366.000000	62.878889
3365.000000	63.019057
3364.000000	63.159235
3363.000000	63.298262
3362.000000	63.436887
3361.000000	63.578123
3360.000000	63.724110
3359.000000	63.873679
3358.000000	64.024289
3357.000000	64.174740
3356.000000	64.324639
3355.000000	64.472830
3354.000000	64.618592
3353.000000	64.763785
3352.000000	64.912026
3351.000000	65.065892
3350.000000	65.225332
3349.000000	65.387795
3348.000000	65.549153
3347.000000	65.705816
3346.000000	65.857404
3345.000000	66.006631
3344.000000	66.155733
3343.000000	66.303590
3342.000000	66.447123
3341.000000	66.584228
3340.000000	66.714505
3339.000000	66.838154
3338.000000	66.954705
3337.000000	67.062322
3336.000000	67.157016
3335.000000	67.233666
3334.000000	67.288633
3333.000000	67.319607
3332.000000	67.323762
3331.000000	67.296317
3330.000000	67.232191
3329.000000	67.128767
3328.000000	66.984880
3327.000000	66.800095
3326.000000	66.573971
3325.000000	66.304391
3324.000000	65.987122
3323.000000	65.614596
3322.000000	65.179242
3321.000000	64.674783
3320.000000	64.093006
3319.000000	63.423965
3318.000000	62.655027
3317.000000	61.773222
3316.000000	60.764210
3315.000000	59.610185
3314.000000	58.297104
3313.000000	56.817538
3312.000000	55.172303
3311.000000	53.371829
3310.000000	51.436476
3309.000000	49.401291
3308.000000	47.309517
3307.000000	45.203453
3306.000000	43.122899
3305.000000	41.104364
3304.000000	39.178712
3303.000000	37.369218
3302.000000	35.695136
3301.000000	34.176015
3300.000000	32.831546
3299.000000	31.675400
3298.000000	30.717736
3297.000000	29.966688
3296.000000	29.416286
3295.000000	29.042198
3294.000000	28.803661
3293.000000	28.653870
3292.000000	28.547754
3291.000000	28.442982
3290.000000	28.312672
3289.000000	28.151708
3288.000000	27.972261
3287.000000	27.794381
3286.000000	27.637715
3285.000000	27.517291
3284.000000	27.435875
3283.000000	27.381544
3282.000000	27.335467
3281.000000	27.280620
3280.000000	27.202486
3279.000000	27.087793
3278.000000	26.929344
3277.000000	26.730446
3276.000000	26.501518
3275.000000	26.254568
3274.000000	26.004515
3273.000000	25.772313
3272.000000	25.582083
3271.000000	25.455181
3270.000000	25.409879
3269.000000	25.461042
3268.000000	25.615292
3267.000000	25.870748
3266.000000	26.219249
3265.000000	26.648230
3264.000000	27.135733
3263.000000	27.646659
3262.000000	28.139944
3261.000000	28.575159
3260.000000	28.912122
3259.000000	29.112058
3258.000000	29.147244
3257.000000	29.004317
3256.000000	28.683204
3255.000000	28.190469
3254.000000	27.537288
3253.000000	26.743062
3252.000000	25.824749
3251.000000	24.795709
3250.000000	23.671865
3249.000000	22.477940
3248.000000	21.250128
3247.000000	20.031415
3246.000000	18.873373
3245.000000	17.835906
3244.000000	16.977272
3243.000000	16.338475
3242.000000	15.937786
3241.000000	15.763932
3240.000000	15.769809
3239.000000	15.883899
3238.000000	16.031167
3237.000000	16.156483
3236.000000	16.230128
3235.000000	16.243424
3234.000000	16.206611
3233.000000	16.138789
3232.000000	16.054241
3231.000000	15.957699
3230.000000	15.854713
3229.000000	15.761071
3228.000000	15.697759
3227.000000	15.683334
3226.000000	15.734359
3225.000000	15.866539
3224.000000	16.089744
3223.000000	16.401968
3222.000000	16.793186
3221.000000	17.249403
3220.000000	17.748332
3219.000000	18.258789
3218.000000	18.748523
3217.000000	19.192535
3216.000000	19.573312
3215.000000	19.880483
3214.000000	20.115142
3213.000000	20.291200
3212.000000	20.427751
3211.000000	20.542810
3210.000000	20.655882
3209.000000	20.788149
3208.000000	20.956080
3207.000000	21.167353
3206.000000	21.425628
3205.000000	21.734061
3204.000000	22.092081
3203.000000	22.493228
3202.000000	22.929994
3201.000000	23.397597
3200.000000	23.889058
3199.000000	24.393364
3198.000000	24.900389
3197.000000	25.404024
3196.000000	25.898560
3195.000000	26.376156
3194.000000	26.830892
3193.000000	27.260496
3192.000000	27.661754
3191.000000	28.027621
3190.000000	28.353041
3189.000000	28.638485
3188.000000	28.886270
3187.000000	29.098396
3186.000000	29.278843
3185.000000	29.435308
3184.000000	29.573754
3183.000000	29.695660
3182.000000	29.802855
3181.000000	29.899509
3180.000000	29.988847
3179.000000	30.071252
3178.000000	30.148975
3177.000000	30.229065
3176.000000	30.319020
3175.000000	30.423758
3174.000000	30.548720
3173.000000	30.701304
3172.000000	30.885788
3171.000000	31.102018
3170.000000	31.350062
3169.000000	31.632454
3168.000000	31.949973
3167.000000	32.297928
3166.000000	32.671049
3165.000000	33.066590
3164.000000	33.481464
3163.000000	33.911158
3162.000000	34.352374
3161.000000	34.803200
3160.000000	35.256930
3159.000000	35.699533
3158.000000	36.113669
3157.000000	36.481806
3156.000000	36.782530
3155.000000	36.989644
3154.000000	37.078924
3153.000000	37.033625
3152.000000	36.850464
3151.000000	36.544084
3150.000000	36.150985
3149.000000	35.723566
3148.000000	35.309532
3147.000000	34.936598
3146.000000	34.608768
3145.000000	34.309408
3144.000000	34.006306
3143.000000	33.660086
3142.000000	33.239612
3141.000000	32.731013
3140.000000	32.135034
3139.000000	31.463787
3138.000000	30.740446
3137.000000	29.997359
3136.000000	29.266966
3135.000000	28.576137
3134.000000	27.950008
3133.000000	27.414743
3132.000000	26.990912
3131.000000	26.688271
3130.000000	26.510860
3129.000000	26.458514
3128.000000	26.525167
3127.000000	26.697062
3126.000000	26.958468
3125.000000	27.297919
3124.000000	27.702272
3123.000000	28.156388
3122.000000	28.647674
3121.000000	29.167769
3120.000000	29.708948
3119.000000	30.260488
3118.000000	30.813698
3117.000000	31.363446
3116.000000	31.903051
3115.000000	32.422151
3114.000000	32.911890
3113.000000	33.367689
3112.000000	33.784985
3111.000000	34.158097
3110.000000	34.483537
3109.000000	34.761856
3108.000000	34.991920
3107.000000	35.168604
3106.000000	35.289650
3105.000000	35.358864
3104.000000	35.384008
3103.000000	35.374449
3102.000000	35.344380
3101.000000	35.314107
3100.000000	35.304139
3099.000000	35.331035
3098.000000	35.409226
3097.000000	35.552129
3096.000000	35.766302
3095.000000	36.049664
3094.000000	36.395804
3093.000000	36.797543
3092.000000	37.245716
3091.000000	37.727208
3090.000000	38.229503
3089.000000	38.742241
3088.000000	39.254695
3087.000000	39.756677
3086.000000	40.242994
3085.000000	40.714092
3084.000000	41.169864
3083.000000	41.606824
3082.000000	42.022136
3081.000000	42.416748
3080.000000	42.792300
3079.000000	43.149011
3078.000000	43.488507
3077.000000	43.814300
3076.000000	44.128685
3075.000000	44.431418
3074.000000	44.723182
3073.000000	45.006835
3072.000000	45.283317
3071.000000	45.550646
3070.000000	45.807978
3069.000000	46.057888
3068.000000	46.303269
3067.000000	46.544606
3066.000000	46.782068
3065.000000	47.016727
3064.000000	47.248292
3063.000000	47.474577
3062.000000	47.694197
3061.000000	47.907593
3060.000000	48.114410
3059.000000	48.313005
3058.000000	48.503878
3057.000000	48.690303
3056.000000	48.874576
3055.000000	49.055962
3054.000000	49.233206
3053.000000	49.406464
3052.000000	49.575414
3051.000000	49.738448
3050.000000	49.894682
3049.000000	50.044398
3048.000000	50.187176
3047.000000	50.322040
3046.000000	50.450452
3045.000000	50.576308
3044.000000	50.702075
3043.000000	50.827612
3042.000000	50.952893
3041.000000	51.078882
3040.000000	51.204776
3039.000000	51.327622
3038.000000	51.446204
3037.000000	51.562777
3036.000000	51.680228
3035.000000	51.799800
3034.000000	51.922165
3033.000000	52.047873
3032.000000	52.175655
3031.000000	52.302964
3030.000000	52.429026
3029.000000	52.555091
3028.000000	52.681542
3027.000000	52.807680
3026.000000	52.934598
3025.000000	53.064868
3024.000000	53.198473
3023.000000	53.332049
3022.000000	53.463092
3021.000000	53.592128
3020.000000	53.720004
3019.000000	53.845900
3018.000000	53.969126
3017.000000	54.090264
3016.000000	54.209217
3015.000000	54.324443
3014.000000	54.434868
3013.000000	54.540344
3012.000000	54.639313
3011.000000	54.727550
3010.000000	54.800337
3009.000000	54.853326
3008.000000	54.880953
3007.000000	54.876480
3006.000000	54.833706
3005.000000	54.748729
3004.000000	54.618870
3003.000000	54.442884
3002.000000	54.222863
3001.000000	53.962058
3000.000000	53.659981
2999.000000	53.308651
2998.000000	52.898956
2997.000000	52.436604
2996.000000	51.959267
2995.000000	51.539004
2994.000000	51.256320
2993.000000	51.158221
2992.000000	51.230615
2991.000000	51.412004
2990.000000	51.631903
2989.000000	51.839827
2988.000000	52.010360
2987.000000	52.135829
2986.000000	52.221573
2985.000000	52.280411
2984.000000	52.326422
2983.000000	52.372242
2982.000000	52.430201
2981.000000	52.510151
2980.000000	52.612730
2979.000000	52.727556
2978.000000	52.841426
2977.000000	52.949362
2976.000000	53.060913
2975.000000	53.198848
2974.000000	53.388701
2973.000000	53.641208
2972.000000	53.939995
2971.000000	54.247414
2970.000000	54.521995
2969.000000	54.731588
2968.000000	54.853933
2967.000000	54.874922
2966.000000	54.789002
2965.000000	54.597382
2964.000000	54.304712
2963.000000	53.916629
2962.000000	53.442864
2961.000000	52.895364
2960.000000	52.280646
2959.000000	51.594839
2958.000000	50.829698
2957.000000	49.992754
2956.000000	49.129254
2955.000000	48.331024
2954.000000	47.708851
2953.000000	47.335047
2952.000000	47.197928
2951.000000	47.212992
2950.000000	47.283892
2949.000000	47.355698
2948.000000	47.427823
2947.000000	47.531456
2946.000000	47.698655
2945.000000	47.936323
2944.000000	48.215727
2943.000000	48.489255
2942.000000	48.722344
2941.000000	48.915883
2940.000000	49.103596
2939.000000	49.333941
2938.000000	49.651253
2937.000000	50.079935
2936.000000	50.615694
2935.000000	51.230969
2934.000000	51.890136
2933.000000	52.560471
2932.000000	53.213941
2931.000000	53.829255
2930.000000	54.395774
2929.000000	54.911730
2928.000000	55.377386
2927.000000	55.792364
2926.000000	56.159772
2925.000000	56.486206
2924.000000	56.776364
2923.000000	57.031097
2922.000000	57.251796
2921.000000	57.442420
2920.000000	57.605767
2919.000000	57.742871
2918.000000	57.856482
2917.000000	57.951797
2916.000000	58.032443
2915.000000	58.099070
2914.000000	58.153204
2913.000000	58.198538
2912.000000	58.238076
2911.000000	58.273237
2910.000000	58.306274
2909.000000	58.340304
2908.000000	58.375911
2907.000000	58.411104
2906.000000	58.445072
2905.000000	58.479053
2904.000000	58.513070
2903.000000	58.545939
2902.000000	58.578550
2901.000000	58.613367
2900.000000	58.650229
2899.000000	58.684884
2898.000000	58.712652
2897.000000	58.729469
2896.000000	58.729586
2895.000000	58.706406
2894.000000	58.657056
2893.000000	58.583301
2892.000000	58.486952
2891.000000	58.367866
2890.000000	58.226960
2889.000000	58.067908
2888.000000	57.894915
2887.000000	57.712434
2886.000000	57.528148
2885.000000	57.352566
2884.000000	57.194793
2883.000000	57.060840
2882.000000	56.956531
2881.000000	56.888067
2880.000000	56.857972
2879.000000	56.863969
2878.000000	56.902340
2877.000000	56.969364
2876.000000	57.059132
2875.000000	57.164211
2874.000000	57.279683
2873.000000	57.403496
2872.000000	57.532220
2871.000000	57.660175
2870.000000	57.784469
2869.000000	57.907594
2868.000000	58.034369
2867.000000	58.169019
2866.000000	58.315075
2865.000000	58.473834
2864.000000	58.641287
2863.000000	58.809953
2862.000000	58.974969
2861.000000	59.135967
2860.000000	59.293203
2859.000000	59.445685
2858.000000	59.593764
2857.000000	59.739709
2856.000000	59.884396
2855.000000	60.026530
2854.000000	60.165401
2853.000000	60.300807
2852.000000	60.429604
2851.000000	60.545870
2850.000000	60.645764
2849.000000	60.729604
2848.000000	60.799229
2847.000000	60.856997
2846.000000	60.908089
2845.000000	60.959839
2844.000000	61.017306
2843.000000	61.081723
2842.000000	61.153694
2841.000000	61.235089
2840.000000	61.326911
2839.000000	61.428205
2838.000000	61.537944
2837.000000	61.655358
2836.000000	61.777915
2835.000000	61.901694
2834.000000	62.024354
2833.000000	62.145509
2832.000000	62.264127
2831.000000	62.378178
2830.000000	62.487240
2829.000000	62.592683
2828.000000	62.694712
2827.000000	62.791905
2826.000000	62.883947
2825.000000	62.972157
2824.000000	63.056958
2823.000000	63.137295
2822.000000	63.212996
2821.000000	63.285154
2820.000000	63.353723
2819.000000	63.417354
2818.000000	63.475981
2817.000000	63.531118
2816.000000	63.583322
2815.000000	63.631910
2814.000000	63.677634
2813.000000	63.723161
2812.000000	63.770383
2811.000000	63.819529
2810.000000	63.871043
2809.000000	63.925663
2808.000000	63.982292
2807.000000	64.038378
2806.000000	64.092940
2805.000000	64.147075
2804.000000	64.201252
2803.000000	64.254567
2802.000000	64.306888
2801.000000	64.359171
2800.000000	64.411373
2799.000000	64.462420
2798.000000	64.512396
2797.000000	64.562283
2796.000000	64.611392
2795.000000	64.657600
2794.000000	64.700432
2793.000000	64.741425
2792.000000	64.781262
2791.000000	64.819046
2790.000000	64.854504
2789.000000	64.888352
2788.000000	64.920294
2787.000000	64.949402
2786.000000	64.976892
2785.000000	65.006081
2784.000000	65.039196
2783.000000	65.076541
2782.000000	65.118764
2781.000000	65.166977
2780.000000	65.220211
2779.000000	65.275342
2778.000000	65.329993
2777.000000	65.383360
2776.000000	65.434229
2775.000000	65.480966
2774.000000	65.523939
2773.000000	65.565274
2772.000000	65.605638
2771.000000	65.643659
2770.000000	65.678730
2769.000000	65.711844
2768.000000	65.743407
2767.000000	65.772659
2766.000000	65.799748
2765.000000	65.825942
2764.000000	65.851412
2763.000000	65.875171
2762.000000	65.897367
2761.000000	65.919133
2760.000000	65.939881
2759.000000	65.957255
2758.000000	65.970234
2757.000000	65.979790
2756.000000	65.986228
2755.000000	65.988402
2754.000000	65.985882
2753.000000	65.979539
2752.000000	65.969471
2751.000000	65.954895
2750.000000	65.936713
2749.000000	65.917898
2748.000000	65.901074
2747.000000	65.888208
2746.000000	65.882797
2745.000000	65.889638
2744.000000	65.911635
2743.000000	65.948416
2742.000000	65.998040
2741.000000	66.057466
2740.000000	66.121092
2739.000000	66.182210
2738.000000	66.236930
2737.000000	66.285089
2736.000000	66.327763
2735.000000	66.366307
2734.000000	66.403759
2733.000000	66.443859
2732.000000	66.487542
2731.000000	66.532462
2730.000000	66.576295
2729.000000	66.618091
2728.000000	66.656379
2727.000000	66.688912
2726.000000	66.715233
2725.000000	66.737399
2724.000000	66.757391
2723.000000	66.775843
2722.000000	66.793424
2721.000000	66.810932
2720.000000	66.827663
2719.000000	66.842065
2718.000000	66.854737
2717.000000	66.868925
2716.000000	66.887687
2715.000000	66.912401
2714.000000	66.943849
2713.000000	66.981966
2712.000000	67.024013
2711.000000	67.065528
2710.000000	67.103711
2709.000000	67.138238
2708.000000	67.169025
2707.000000	67.195705
2706.000000	67.219494
2705.000000	67.242995
2704.000000	67.267571
2703.000000	67.292947
2702.000000	67.319378
2701.000000	67.347665
2700.000000	67.376863
2699.000000	67.404527
2698.000000	67.429680
2697.000000	67.453346
2696.000000	67.475927
2695.000000	67.496560
2694.000000	67.515288
2693.000000	67.533328
2692.000000	67.550727
2691.000000	67.566010
2690.000000	67.578701
2689.000000	67.590010
2688.000000	67.600705
2687.000000	67.610583
2686.000000	67.620273
2685.000000	67.631237
2684.000000	67.643554
2683.000000	67.655791
2682.000000	67.667311
2681.000000	67.678510
2680.000000	67.688796
2679.000000	67.696917
2678.000000	67.703703
2677.000000	67.712083
2676.000000	67.724054
2675.000000	67.739761
2674.000000	67.759542
2673.000000	67.784315
2672.000000	67.813436
2671.000000	67.844918
2670.000000	67.878405
2669.000000	67.915611
2668.000000	67.957674
2667.000000	68.004163
2666.000000	68.055070
2665.000000	68.111105
2664.000000	68.171052
2663.000000	68.231312
2662.000000	68.288742
2661.000000	68.342170
2660.000000	68.390939
2659.000000	68.434265
2658.000000	68.472767
2657.000000	68.508753
2656.000000	68.544223
2655.000000	68.579880
2654.000000	68.616092
2653.000000	68.652570
2652.000000	68.687049
2651.000000	68.716243
2650.000000	68.738501
2649.000000	68.754335
2648.000000	68.764553
2647.000000	68.770096
2646.000000	68.773551
2645.000000	68.778309
2644.000000	68.785945
2643.000000	68.796183
2642.000000	68.809299
2641.000000	68.826546
2640.000000	68.848361
2639.000000	68.874396
2638.000000	68.905438
2637.000000	68.942824
2636.000000	68.985673
2635.000000	69.031010
2634.000000	69.076532
2633.000000	69.121300
2632.000000	69.163952
2631.000000	69.202844
2630.000000	69.238630
2629.000000	69.274446
2628.000000	69.313176
2627.000000	69.356059
2626.000000	69.403475
2625.000000	69.454480
2624.000000	69.505385
2623.000000	69.551162
2622.000000	69.588966
2621.000000	69.618998
2620.000000	69.642327
2619.000000	69.660227
2618.000000	69.675236
2617.000000	69.690000
2616.000000	69.704660
2615.000000	69.717075
2614.000000	69.725885
2613.000000	69.731446
2612.000000	69.733933
2611.000000	69.733318
2610.000000	69.731227
2609.000000	69.730467
2608.000000	69.732196
2607.000000	69.735388
2606.000000	69.739097
2605.000000	69.742969
2604.000000	69.745668
2603.000000	69.745465
2602.000000	69.742932
2601.000000	69.740920
2600.000000	69.741541
2599.000000	69.744985
2598.000000	69.751095
2597.000000	69.759514
2596.000000	69.768041
2595.000000	69.773256
2594.000000	69.773475
2593.000000	69.769443
2592.000000	69.762234
2591.000000	69.752747
2590.000000	69.743185
2589.000000	69.736443
2588.000000	69.733406
2587.000000	69.732667
2586.000000	69.732976
2585.000000	69.734003
2584.000000	69.734936
2583.000000	69.734886
2582.000000	69.735144
2581.000000	69.738824
2580.000000	69.748072
2579.000000	69.763532
2578.000000	69.785913
2577.000000	69.815742
2576.000000	69.851286
2575.000000	69.889309
2574.000000	69.928346
2573.000000	69.968880
2572.000000	70.010758
2571.000000	70.052694
2570.000000	70.094331
2569.000000	70.136339
2568.000000	70.178039
2567.000000	70.217433
2566.000000	70.253964
2565.000000	70.289292
2564.000000	70.325366
2563.000000	70.363818
2562.000000	70.407082
2561.000000	70.457394
2560.000000	70.514109
2559.000000	70.574079
2558.000000	70.634630
2557.000000	70.694324
2556.000000	70.751273
2555.000000	70.803400
2554.000000	70.850777
2553.000000	70.895463
2552.000000	70.938940
2551.000000	70.981675
2550.000000	71.024938
2549.000000	71.070258
2548.000000	71.116910
2547.000000	71.162186
2546.000000	71.204323
2545.000000	71.243273
2544.000000	71.278680
2543.000000	71.309870
2542.000000	71.337924
2541.000000	71.365177
2540.000000	71.392359
2539.000000	71.418244
2538.000000	71.442326
2537.000000	71.465470
2536.000000	71.487689
2535.000000	71.508024
2534.000000	71.527008
2533.000000	71.546989
2532.000000	71.569350
2531.000000	71.593326
2530.000000	71.617883
2529.000000	71.642493
2528.000000	71.665750
2527.000000	71.685406
2526.000000	71.700417
2525.000000	71.711473
2524.000000	71.719356
2523.000000	71.724667
2522.000000	71.729076
2521.000000	71.734272
2520.000000	71.739436
2519.000000	71.741440
2518.000000	71.737671
2517.000000	71.727059
2516.000000	71.708317
2515.000000	71.680254
2514.000000	71.644029
2513.000000	71.603018
2512.000000	71.560363
2511.000000	71.518162
2510.000000	71.479050
2509.000000	71.445690
2508.000000	71.418148
2507.000000	71.394045
2506.000000	71.371787
2505.000000	71.351601
2504.000000	71.333486
2503.000000	71.316753
2502.000000	71.301758
2501.000000	71.290002
2500.000000	71.281892
2499.000000	71.276652
2498.000000	71.275012
2497.000000	71.279266
2496.000000	71.290828
2495.000000	71.309671
2494.000000	71.336271
2493.000000	71.371764
2492.000000	71.415035
2491.000000	71.462343
2490.000000	71.510155
2489.000000	71.556596
2488.000000	71.600472
2487.000000	71.641249
2486.000000	71.680842
2485.000000	71.723124
2484.000000	71.770784
2483.000000	71.824286
2482.000000	71.883383
2481.000000	71.947283
2480.000000	72.013073
2479.000000	72.076420
2478.000000	72.134677
2477.000000	72.187665
2476.000000	72.235700
2475.000000	72.278994
2474.000000	72.319249
2473.000000	72.359113
2472.000000	72.399457
2471.000000	72.438764
2470.000000	72.475275
2469.000000	72.508127
2468.000000	72.536100
2467.000000	72.557877
2466.000000	72.573917
2465.000000	72.585934
2464.000000	72.594396
2463.000000	72.597865
2462.000000	72.595192
2461.000000	72.586467
2460.000000	72.571713
2459.000000	72.551390
2458.000000	72.528251
2457.000000	72.506803
2456.000000	72.490193
2455.000000	72.479071
2454.000000	72.473360
2453.000000	72.472759
2452.000000	72.475384
2451.000000	72.478306
2450.000000	72.480552
2449.000000	72.483791
2448.000000	72.490267
2447.000000	72.501810
2446.000000	72.520566
2445.000000	72.548420
2444.000000	72.584531
2443.000000	72.625419
2442.000000	72.667715
2441.000000	72.709330
2440.000000	72.748681
2439.000000	72.785015
2438.000000	72.819940
2437.000000	72.856390
2436.000000	72.895568
2435.000000	72.936551
2434.000000	72.978501
2433.000000	73.021136
2432.000000	73.063122
2431.000000	73.102487
2430.000000	73.138909
2429.000000	73.173552
2428.000000	73.206384
2427.000000	73.235482
2426.000000	73.259314
2425.000000	73.277399
2424.000000	73.288941
2423.000000	73.293094
2422.000000	73.290891
2421.000000	73.285375
2420.000000	73.279329
2419.000000	73.274826
2418.000000	73.274595
2417.000000	73.281226
2416.000000	73.294520
2415.000000	73.311558
2414.000000	73.329689
2413.000000	73.347556
2412.000000	73.363484
2411.000000	73.375377
2410.000000	73.382748
2409.000000	73.386641
2408.000000	73.387333
2407.000000	73.384080
2406.000000	73.377516
2405.000000	73.369936
2404.000000	73.362828
2403.000000	73.356264
2402.000000	73.350666
2401.000000	73.346706
2400.000000	73.342598
2399.000000	73.333402
2398.000000	73.314018
2397.000000	73.280667
2396.000000	73.229931
2395.000000	73.159195
2394.000000	73.068977
2393.000000	72.963727
2392.000000	72.848742
2391.000000	72.728400
2390.000000	72.607026
2389.000000	72.488501
2388.000000	72.375123
2387.000000	72.268064
2386.000000	72.170797
2385.000000	72.090058
2384.000000	72.032160
2383.000000	72.001153
2382.000000	71.999299
2381.000000	72.026943
2380.000000	72.079560
2379.000000	72.146112
2378.000000	72.214957
2377.000000	72.277635
2376.000000	72.327356
2375.000000	72.358545
2374.000000	72.369424
2373.000000	72.366498
2372.000000	72.357703
2371.000000	72.344265
2370.000000	72.323533
2369.000000	72.302091
2368.000000	72.288692
2367.000000	72.280884
2366.000000	72.276469
2365.000000	72.286444
2364.000000	72.309065
2363.000000	72.332066
2362.000000	72.352063
2361.000000	72.366557
2360.000000	72.386109
2359.000000	72.409614
2358.000000	72.423470
2357.000000	72.427871
2356.000000	72.404931
2355.000000	72.344015
2354.000000	72.247275
2353.000000	72.188854
2352.000000	72.253416
2351.000000	72.423676
2350.000000	72.628175
2349.000000	72.798840
2348.000000	72.935924
2347.000000	73.049766
2346.000000	73.111802
2345.000000	73.122498
2344.000000	73.074415
2343.000000	73.009163
2342.000000	72.947050
2341.000000	72.898826
2340.000000	72.867049
2339.000000	72.843397
2338.000000	72.840927
2337.000000	72.865534
2336.000000	72.929156
2335.000000	73.010886
2334.000000	73.099077
2333.000000	73.164859
2332.000000	73.221505
2331.000000	73.247614
2330.000000	73.288272
2329.000000	73.334298
2328.000000	73.399793
2327.000000	73.458259
2326.000000	73.499585
2325.000000	73.526860
2324.000000	73.529558
2323.000000	73.507380
2322.000000	73.455651
2321.000000	73.383871
2320.000000	73.311303
2319.000000	73.240275
2318.000000	73.183989
2317.000000	73.121229
2316.000000	73.053415
2315.000000	72.954424
2314.000000	72.839799
2313.000000	72.700335
2312.000000	72.557351
2311.000000	72.400711
2310.000000	72.245443
2309.000000	72.082939
2308.000000	71.923222
2307.000000	71.758257
2306.000000	71.597647
2305.000000	71.437827
2304.000000	71.286890
2303.000000	71.140206
2302.000000	71.010813
2301.000000	70.900184
2300.000000	70.818968
2299.000000	70.759935
2298.000000	70.725539
2297.000000	70.705738
2296.000000	70.696884
2295.000000	70.687867
2294.000000	70.677035
2293.000000	70.662758
2292.000000	70.645285
2291.000000	70.623036
2290.000000	70.595277
2289.000000	70.562642
2288.000000	70.523255
2287.000000	70.477149
2286.000000	70.425844
2285.000000	70.373636
2284.000000	70.320968
2283.000000	70.268976
2282.000000	70.221129
2281.000000	70.184241
2280.000000	70.162369
2279.000000	70.157056
2278.000000	70.169779
2277.000000	70.200889
2276.000000	70.248737
2275.000000	70.310344
2274.000000	70.387001
2273.000000	70.481346
2272.000000	70.593186
2271.000000	70.717785
2270.000000	70.850450
2269.000000	70.987302
2268.000000	71.124349
2267.000000	71.257655
2266.000000	71.386609
2265.000000	71.511990
2264.000000	71.633185
2263.000000	71.749016
2262.000000	71.859765
2261.000000	71.968037
2260.000000	72.073985
2259.000000	72.177506
2258.000000	72.279832
2257.000000	72.383877
2256.000000	72.491673
2255.000000	72.604378
2254.000000	72.725258
2253.000000	72.856574
2252.000000	72.997864
2251.000000	73.145476
2250.000000	73.297374
2249.000000	73.451657
2248.000000	73.605438
2247.000000	73.755017
2246.000000	73.899068
2245.000000	74.037590
2244.000000	74.169249
2243.000000	74.292364
2242.000000	74.407586
2241.000000	74.517185
2240.000000	74.621519
2239.000000	74.719408
2238.000000	74.810861
2237.000000	74.897113
2236.000000	74.978097
2235.000000	75.052420
2234.000000	75.119349
2233.000000	75.178735
2232.000000	75.229228
2231.000000	75.269366
2230.000000	75.299964
2229.000000	75.323429
2228.000000	75.341324
2227.000000	75.354336
2226.000000	75.364352
2225.000000	75.373614
2224.000000	75.382673
2223.000000	75.391035
2222.000000	75.399379
2221.000000	75.408662
2220.000000	75.417792
2219.000000	75.424745
2218.000000	75.429581
2217.000000	75.434035
2216.000000	75.438771
2215.000000	75.443624
2214.000000	75.450037
2213.000000	75.460534
2212.000000	75.476018
2211.000000	75.495940
2210.000000	75.520620
2209.000000	75.550841
2208.000000	75.585435
2207.000000	75.621742
2206.000000	75.657946
2205.000000	75.692697
2204.000000	75.723090
2203.000000	75.746022
2202.000000	75.761688
2201.000000	75.773893
2200.000000	75.787429
2199.000000	75.807415
2198.000000	75.839825
2197.000000	75.889185
2196.000000	75.955090
2195.000000	76.032887
2194.000000	76.117336
2193.000000	76.203603
2192.000000	76.286079
2191.000000	76.359480
2190.000000	76.421539
2189.000000	76.472567
2188.000000	76.512973
2187.000000	76.543542
2186.000000	76.567421
2185.000000	76.589119
2184.000000	76.611207
2183.000000	76.633856
2182.000000	76.656841
2181.000000	76.679578
2180.000000	76.699631
2179.000000	76.713814
2178.000000	76.721082
2177.000000	76.722557
2176.000000	76.719331
2175.000000	76.712453
2174.000000	76.704474
2173.000000	76.698535
2172.000000	76.695827
2171.000000	76.695878
2170.000000	76.698827
2169.000000	76.705239
2168.000000	76.714262
2167.000000	76.724355
2166.000000	76.735487
2165.000000	76.748388
2164.000000	76.762194
2163.000000	76.775149
2162.000000	76.787188
2161.000000	76.799584
2160.000000	76.812649
2159.000000	76.826087
2158.000000	76.841050
2157.000000	76.859392
2156.000000	76.881370
2155.000000	76.906181
2154.000000	76.933985
2153.000000	76.964874
2152.000000	76.996686
2151.000000	77.026654
2150.000000	77.054941
2149.000000	77.084072
2148.000000	77.115379
2147.000000	77.148632
2146.000000	77.184326
2145.000000	77.223445
2144.000000	77.265077
2143.000000	77.306450
2142.000000	77.345421
2141.000000	77.381056
2140.000000	77.412171
2139.000000	77.437649
2138.000000	77.458057
2137.000000	77.475161
2136.000000	77.490262
2135.000000	77.504642
2134.000000	77.520620
2133.000000	77.539771
2132.000000	77.560559
2131.000000	77.579878
2130.000000	77.596327
2129.000000	77.609772
2128.000000	77.618663
2127.000000	77.620383
2126.000000	77.613822
2125.000000	77.599171
2124.000000	77.575878
2123.000000	77.543392
2122.000000	77.503595
2121.000000	77.460453
2120.000000	77.417496
2119.000000	77.377353
2118.000000	77.342810
2117.000000	77.315429
2116.000000	77.293270
2115.000000	77.272339
2114.000000	77.249964
2113.000000	77.225137
2112.000000	77.196990
2111.000000	77.165857
2110.000000	77.135326
2109.000000	77.110437
2108.000000	77.093998
2107.000000	77.086621
2106.000000	77.089141
2105.000000	77.101873
2104.000000	77.122075
2103.000000	77.145155
2102.000000	77.167956
2101.000000	77.188691
2100.000000	77.204955
2099.000000	77.215004
2098.000000	77.221066
2097.000000	77.228053
2096.000000	77.239918
2095.000000	77.259696
2094.000000	77.291273
2093.000000	77.337247
2092.000000	77.395621
2091.000000	77.461661
2090.000000	77.532528
2089.000000	77.607589
2088.000000	77.685280
2087.000000	77.763211
2086.000000	77.840762
2085.000000	77.918343
2084.000000	77.994969
2083.000000	78.069106
2082.000000	78.141240
2081.000000	78.212863
2080.000000	78.283966
2079.000000	78.353915
2078.000000	78.424174
2077.000000	78.496243
2076.000000	78.568344
2075.000000	78.636985
2074.000000	78.700353
2073.000000	78.758733
2072.000000	78.811464
2071.000000	78.857589
2070.000000	78.899139
2069.000000	78.939889
2068.000000	78.980619
2067.000000	79.019019
2066.000000	79.054756
2065.000000	79.091436
2064.000000	79.132422
2063.000000	79.177347
2062.000000	79.223699
2061.000000	79.269166
2060.000000	79.311899
2059.000000	79.350543
2058.000000	79.385033
2057.000000	79.416179
2056.000000	79.444652
2055.000000	79.471674
2054.000000	79.499753
2053.000000	79.531582
2052.000000	79.567537
2051.000000	79.605887
2050.000000	79.645671
2049.000000	79.687200
2048.000000	79.729204
2047.000000	79.769159
2046.000000	79.806603
2045.000000	79.842861
2044.000000	79.877372
2043.000000	79.907758
2042.000000	79.934140
2041.000000	79.959995
2040.000000	79.987788
2039.000000	80.016806
2038.000000	80.045888
2037.000000	80.075428
2036.000000	80.105813
2035.000000	80.136641
2034.000000	80.168228
2033.000000	80.201549
2032.000000	80.236623
2031.000000	80.272834
2030.000000	80.310776
2029.000000	80.352120
2028.000000	80.396167
2027.000000	80.440306
2026.000000	80.482052
2025.000000	80.520699
2024.000000	80.554790
2023.000000	80.582088
2022.000000	80.603191
2021.000000	80.621021
2020.000000	80.635721
2019.000000	80.643877
2018.000000	80.644819
2017.000000	80.644495
2016.000000	80.650114
2015.000000	80.663491
2014.000000	80.681431
2013.000000	80.699741
2012.000000	80.714903
2011.000000	80.724648
2010.000000	80.728909
2009.000000	80.729564
2008.000000	80.728176
2007.000000	80.726246
2006.000000	80.725675
2005.000000	80.728897
2004.000000	80.736189
2003.000000	80.745470
2002.000000	80.756123
2001.000000	80.768119
2000.000000	80.782610
1999.000000	80.799490
1998.000000	80.818692
1997.000000	80.843336
1996.000000	80.876973
1995.000000	80.915663
1994.000000	80.947896
1993.000000	80.966059
1992.000000	80.975693
1991.000000	80.988522
1990.000000	81.008778
1989.000000	81.032059
1988.000000	81.054294
1987.000000	81.076352
1986.000000	81.099702
1985.000000	81.121994
1984.000000	81.139687
1983.000000	81.152800
1982.000000	81.165452
1981.000000	81.180837
1980.000000	81.202171
1979.000000	81.231059
1978.000000	81.266382
1977.000000	81.305570
1976.000000	81.347240
1975.000000	81.390452
1974.000000	81.432881
1973.000000	81.473140
1972.000000	81.513864
1971.000000	81.558337
1970.000000	81.603872
1969.000000	81.642261
1968.000000	81.668112
1967.000000	81.685448
1966.000000	81.703675
1965.000000	81.728388
1964.000000	81.758209
1963.000000	81.789101
1962.000000	81.818858
1961.000000	81.848588
1960.000000	81.880308
1959.000000	81.912873
1958.000000	81.940538
1957.000000	81.955557
1956.000000	81.953529
1955.000000	81.936402
1954.000000	81.909976
1953.000000	81.881770
1952.000000	81.856814
1951.000000	81.839734
1950.000000	81.833495
1949.000000	81.833827
1948.000000	81.833135
1947.000000	81.829419
1946.000000	81.824781
1945.000000	81.814935
1944.000000	81.788755
1943.000000	81.746407
1942.000000	81.709725
1941.000000	81.702464
1940.000000	81.728470
1939.000000	81.776464
1938.000000	81.835725
1937.000000	81.902832
1936.000000	81.976066
1935.000000	82.050553
1934.000000	82.121361
1933.000000	82.188115
1932.000000	82.248988
1931.000000	82.302349
1930.000000	82.347460
1929.000000	82.380781
1928.000000	82.403798
1927.000000	82.422327
1926.000000	82.445613
1925.000000	82.469971
1924.000000	82.483075
1923.000000	82.490610
1922.000000	82.517064
1921.000000	82.571034
1920.000000	82.628802
1919.000000	82.657260
1918.000000	82.653673
1917.000000	82.640770
1916.000000	82.629594
1915.000000	82.615469
1914.000000	82.598961
1913.000000	82.589662
1912.000000	82.590542
1911.000000	82.595052
1910.000000	82.597478
1909.000000	82.597038
1908.000000	82.594816
1907.000000	82.585096
1906.000000	82.567118
1905.000000	82.541437
1904.000000	82.504099
1903.000000	82.454733
1902.000000	82.398609
1901.000000	82.339781
1900.000000	82.281590
1899.000000	82.227931
1898.000000	82.187326
1897.000000	82.162237
1896.000000	82.144895
1895.000000	82.134749
1894.000000	82.146097
1893.000000	82.185945
1892.000000	82.235853
1891.000000	82.266734
1890.000000	82.270305
1889.000000	82.265497
1888.000000	82.269080
1887.000000	82.281224
1886.000000	82.299059
1885.000000	82.324465
1884.000000	82.359295
1883.000000	82.404240
1882.000000	82.456978
1881.000000	82.509348
1880.000000	82.551902
1879.000000	82.578123
1878.000000	82.589617
1877.000000	82.593594
1876.000000	82.590701
1875.000000	82.580623
1874.000000	82.575773
1873.000000	82.592991
1872.000000	82.633763
1871.000000	82.680834
1870.000000	82.716298
1869.000000	82.743983
1868.000000	82.780270
1867.000000	82.829396
1866.000000	82.887363
1865.000000	82.949447
1864.000000	83.008236
1863.000000	83.058506
1862.000000	83.103719
1861.000000	83.150017
1860.000000	83.198478
1859.000000	83.249452
1858.000000	83.309275
1857.000000	83.383501
1856.000000	83.467899
1855.000000	83.553611
1854.000000	83.638088
1853.000000	83.717859
1852.000000	83.793674
1851.000000	83.860939
1850.000000	83.912233
1849.000000	83.949042
1848.000000	83.983853
1847.000000	84.027852
1846.000000	84.073069
1845.000000	84.101163
1844.000000	84.122148
1843.000000	84.162613
1842.000000	84.218804
1841.000000	84.271478
1840.000000	84.313085
1839.000000	84.344516
1838.000000	84.375174
1837.000000	84.408880
1836.000000	84.441976
1835.000000	84.478714
1834.000000	84.531808
1833.000000	84.606247
1832.000000	84.689275
1831.000000	84.749292
1830.000000	84.783406
1829.000000	84.828773
1828.000000	84.901148
1827.000000	84.976076
1826.000000	85.025030
1825.000000	85.056587
1824.000000	85.101320
1823.000000	85.165001
1822.000000	85.232697
1821.000000	85.298986
1820.000000	85.366612
1819.000000	85.428947
1818.000000	85.482208
1817.000000	85.532159
1816.000000	85.584950
1815.000000	85.640635
1814.000000	85.692565
1813.000000	85.739090
1812.000000	85.775026
1811.000000	85.796378
1810.000000	85.816156
1809.000000	85.847493
1808.000000	85.887563
1807.000000	85.931250
1806.000000	85.985156
1805.000000	86.055078
1804.000000	86.128272
1803.000000	86.187578
1802.000000	86.224564
1801.000000	86.254377
1800.000000	86.287534
1799.000000	86.318359
1798.000000	86.342862
1797.000000	86.366546
1796.000000	86.398748
1795.000000	86.447906
1794.000000	86.504780
1793.000000	86.552050
1792.000000	86.584999
1791.000000	86.610438
1790.000000	86.632279
1789.000000	86.654788
1788.000000	86.678233
1787.000000	86.695958
1786.000000	86.706843
1785.000000	86.722840
1784.000000	86.755773
1783.000000	86.806962
1782.000000	86.852566
1781.000000	86.885378
1780.000000	86.922379
1779.000000	86.978403
1778.000000	87.045746
1777.000000	87.107260
1776.000000	87.169863
1775.000000	87.251039
1774.000000	87.337806
1773.000000	87.404126
1772.000000	87.467259
1771.000000	87.537978
1770.000000	87.592639
1769.000000	87.624923
1768.000000	87.657859
1767.000000	87.721456
1766.000000	87.817691
1765.000000	87.932550
1764.000000	88.047962
1763.000000	88.140759
1762.000000	88.201309
1761.000000	88.257514
1760.000000	88.319577
1759.000000	88.374195
1758.000000	88.399814
1757.000000	88.397759
1756.000000	88.412409
1755.000000	88.460830
1754.000000	88.518024
1753.000000	88.564623
1752.000000	88.606463
1751.000000	88.656201
1750.000000	88.709623
1749.000000	88.736386
1748.000000	88.735965
1747.000000	88.735629
1746.000000	88.733856
1745.000000	88.716809
1744.000000	88.686207
1743.000000	88.660738
1742.000000	88.651173
1741.000000	88.645073
1740.000000	88.624877
1739.000000	88.607233
1738.000000	88.608746
1737.000000	88.632590
1736.000000	88.663185
1735.000000	88.650603
1734.000000	88.629454
1733.000000	88.671589
1732.000000	88.712871
1731.000000	88.691323
1730.000000	88.623865
1729.000000	88.554639
1728.000000	88.516109
1727.000000	88.503920
1726.000000	88.490576
1725.000000	88.466351
1724.000000	88.430068
1723.000000	88.390942
1722.000000	88.368024
1721.000000	88.370804
1720.000000	88.384290
1719.000000	88.365971
1718.000000	88.327707
1717.000000	88.341227
1716.000000	88.384903
1715.000000	88.389136
1714.000000	88.366217
1713.000000	88.361609
1712.000000	88.382226
1711.000000	88.416780
1710.000000	88.473781
1709.000000	88.573655
1708.000000	88.715840
1707.000000	88.860419
1706.000000	88.981612
1705.000000	89.095427
1704.000000	89.210966
1703.000000	89.335990
1702.000000	89.471175
1701.000000	89.575018
1700.000000	89.691864
1699.000000	89.839380
1698.000000	89.945304
1697.000000	90.000619
1696.000000	90.041508
1695.000000	90.130154
1694.000000	90.242847
1693.000000	90.314276
1692.000000	90.346559
1691.000000	90.370633
1690.000000	90.397065
1689.000000	90.414106
1688.000000	90.434651
1687.000000	90.492190
1686.000000	90.590236
1685.000000	90.650093
1684.000000	90.690707
1683.000000	90.778851
1682.000000	90.827224
1681.000000	90.786284
1680.000000	90.714647
1679.000000	90.686269
1678.000000	90.713214
1677.000000	90.749937
1676.000000	90.757836
1675.000000	90.769315
1674.000000	90.800682
1673.000000	90.813106
1672.000000	90.786683
1671.000000	90.732149
1670.000000	90.659647
1669.000000	90.580533
1668.000000	90.504138
1667.000000	90.432871
1666.000000	90.363918
1665.000000	90.287694
1664.000000	90.182033
1663.000000	90.058211
1662.000000	89.937997
1661.000000	89.799725
1660.000000	89.621636
1659.000000	89.412915
1658.000000	89.180296
1657.000000	88.925337
1656.000000	88.668209
1655.000000	88.362935
1654.000000	87.814770
1653.000000	87.078609
1652.000000	86.457297
1651.000000	85.917681
1650.000000	85.305593
1649.000000	84.501518
1648.000000	83.350890
1647.000000	81.796078
1646.000000	80.013440
1645.000000	78.215609
1644.000000	76.450157
1643.000000	74.681820
1642.000000	72.900786
1641.000000	71.187111
1640.000000	69.703928
1639.000000	68.574060
1638.000000	67.826864
1637.000000	67.452349
1636.000000	67.515606
1635.000000	68.045413
1634.000000	68.845478
1633.000000	69.713500
1632.000000	70.621107
1631.000000	71.606086
1630.000000	72.668741
1629.000000	73.769682
1628.000000	74.862783
1627.000000	75.900130
1626.000000	76.843942
1625.000000	77.715124
1624.000000	78.573558
1623.000000	79.444021
1622.000000	80.262210
1621.000000	80.955668
1620.000000	81.553031
1619.000000	82.142725
1618.000000	82.788511
1617.000000	83.505097
1616.000000	84.251004
1615.000000	84.904981
1614.000000	85.382595
1613.000000	85.717179
1612.000000	85.981469
1611.000000	86.194390
1610.000000	86.282175
1609.000000	86.151363
1608.000000	85.747122
1607.000000	85.015430
1606.000000	83.849188
1605.000000	82.130731
1604.000000	79.833181
1603.000000	77.044051
1602.000000	73.933266
1601.000000	70.673600
1600.000000	67.302173
1599.000000	63.635935
1598.000000	59.321525
1597.000000	54.107762
1596.000000	48.177355
1595.000000	42.208697
1594.000000	37.024019
1593.000000	33.122411
1592.000000	30.583989
1591.000000	29.257549
1590.000000	28.875138
1589.000000	29.058915
1588.000000	29.429070
1587.000000	29.725846
1586.000000	29.790736
1585.000000	29.567184
1584.000000	29.160415
1583.000000	28.799572
1582.000000	28.657636
1581.000000	28.744401
1580.000000	29.005976
1579.000000	29.427280
1578.000000	29.980939
1577.000000	30.540573
1576.000000	30.950670
1575.000000	31.181353
1574.000000	31.283629
1573.000000	31.299411
1572.000000	31.324734
1571.000000	31.564785
1570.000000	32.226143
1569.000000	33.303854
1568.000000	34.640225
1567.000000	36.171993
1566.000000	37.893897
1565.000000	39.674729
1564.000000	41.309764
1563.000000	42.710067
1562.000000	43.978255
1561.000000	45.311176
1560.000000	46.957300
1559.000000	49.078923
1558.000000	51.288988
1557.000000	53.037064
1556.000000	54.400438
1555.000000	55.695870
1554.000000	57.020492
1553.000000	58.273965
1552.000000	59.362657
1551.000000	60.323157
1550.000000	61.228388
1549.000000	62.079413
1548.000000	62.847502
1547.000000	63.559284
1546.000000	64.263047
1545.000000	64.955965
1544.000000	65.607330
1543.000000	66.220024
1542.000000	66.838808
1541.000000	67.474224
1540.000000	68.096082
1539.000000	68.681431
1538.000000	69.190016
1537.000000	69.605885
1536.000000	69.974178
1535.000000	70.350463
1534.000000	70.744415
1533.000000	71.139867
1532.000000	71.508237
1531.000000	71.845106
1530.000000	72.183081
1529.000000	72.527214
1528.000000	72.851166
1527.000000	73.148525
1526.000000	73.433484
1525.000000	73.709919
1524.000000	73.973244
1523.000000	74.226470
1522.000000	74.470001
1521.000000	74.707189
1520.000000	74.935369
1519.000000	75.140219
1518.000000	75.314792
1517.000000	75.453640
1516.000000	75.571570
1515.000000	75.700763
1514.000000	75.852000
1513.000000	76.018893
1512.000000	76.182859
1511.000000	76.337962
1510.000000	76.492410
1509.000000	76.646189
1508.000000	76.758984
1507.000000	76.836892
1506.000000	76.984061
1505.000000	77.178243
1504.000000	77.330111
1503.000000	77.449314
1502.000000	77.579508
1501.000000	77.735135
1500.000000	77.905585
1499.000000	78.080081
1498.000000	78.263500
1497.000000	78.471668
1496.000000	78.704912
1495.000000	78.954201
1494.000000	79.214619
1493.000000	79.488708
1492.000000	79.773375
1491.000000	80.058116
1490.000000	80.344149
1489.000000	80.634830
1488.000000	80.909865
1487.000000	81.169470
1486.000000	81.439616
1485.000000	81.710915
1484.000000	81.973024
1483.000000	82.233434
1482.000000	82.498136
1481.000000	82.757565
1480.000000	83.004186
1479.000000	83.252168
1478.000000	83.510869
1477.000000	83.766351
1476.000000	84.006434
1475.000000	84.262753
1474.000000	84.558286
1473.000000	84.871881
1472.000000	85.180038
1471.000000	85.462830
1470.000000	85.687112
1469.000000	85.831526
1468.000000	85.895447
1467.000000	85.870465
1466.000000	85.667266
1465.000000	85.119569
1464.000000	84.127006
1463.000000	82.679658
1462.000000	80.767111
1461.000000	78.375423
1460.000000	75.543574
1459.000000	72.296486
1458.000000	68.586767
1457.000000	64.712977
1456.000000	61.469362
1455.000000	59.178558
1454.000000	57.412105
1453.000000	55.764778
1452.000000	54.217734
1451.000000	52.991962
1450.000000	52.281780
1449.000000	52.163437
1448.000000	52.613140
1447.000000	53.482463
1446.000000	54.572334
1445.000000	55.825048
1444.000000	57.321439
1443.000000	59.080831
1442.000000	60.964044
1441.000000	62.771282
1440.000000	64.383909
1439.000000	65.801118
1438.000000	67.106855
1437.000000	68.397301
1436.000000	69.684243
1435.000000	70.870411
1434.000000	71.912653
1433.000000	72.879568
1432.000000	73.821605
1431.000000	74.706350
1430.000000	75.480529
1429.000000	76.139841
1428.000000	76.701723
1427.000000	77.185954
1426.000000	77.613655
1425.000000	78.007967
1424.000000	78.382379
1423.000000	78.727224
1422.000000	79.047247
1421.000000	79.371064
1420.000000	79.703876
1419.000000	80.016402
1418.000000	80.299866
1417.000000	80.568685
1416.000000	80.832726
1415.000000	81.095588
1414.000000	81.360461
1413.000000	81.631103
1412.000000	81.897195
1411.000000	82.134978
1410.000000	82.337034
1409.000000	82.513710
1408.000000	82.646937
1407.000000	82.685618
1406.000000	82.562087
1405.000000	82.211150
1404.000000	81.607743
1403.000000	80.800920
1402.000000	79.903056
1401.000000	79.022494
1400.000000	78.229125
1399.000000	77.562454
1398.000000	77.035595
1397.000000	76.665686
1396.000000	76.537794
1395.000000	76.789453
1394.000000	77.450454
1393.000000	78.360582
1392.000000	79.301854
1391.000000	80.144749
1390.000000	80.862909
1389.000000	81.491754
1388.000000	82.087390
1387.000000	82.686395
1386.000000	83.270546
1385.000000	83.782130
1384.000000	84.180412
1383.000000	84.463969
1382.000000	84.671986
1381.000000	84.856667
1380.000000	85.046437
1379.000000	85.241072
1378.000000	85.425341
1377.000000	85.567790
1376.000000	85.601824
1375.000000	85.430456
1374.000000	84.958663
1373.000000	84.120773
1372.000000	82.852296
1371.000000	81.057078
1370.000000	78.647644
1369.000000	75.694784
1368.000000	72.569654
1367.000000	69.846038
1366.000000	67.981489
1365.000000	67.099034
1364.000000	67.047806
1363.000000	67.605456
1362.000000	68.633231
1361.000000	70.083905
1360.000000	71.893201
1359.000000	73.902567
1358.000000	75.888215
1357.000000	77.650863
1356.000000	79.091605
1355.000000	80.220598
1354.000000	81.113669
1353.000000	81.858830
1352.000000	82.512288
1351.000000	83.097502
1350.000000	83.620399
1349.000000	84.085607
1348.000000	84.498966
1347.000000	84.863925
1346.000000	85.186342
1345.000000	85.476513
1344.000000	85.745099
1343.000000	85.996482
1342.000000	86.231240
1341.000000	86.448838
1340.000000	86.649082
1339.000000	86.835134
1338.000000	87.013239
1337.000000	87.189711
1336.000000	87.367007
1335.000000	87.544707
1334.000000	87.724336
1333.000000	87.906788
1332.000000	88.085325
1331.000000	88.248806
1330.000000	88.390254
1329.000000	88.508206
1328.000000	88.592765
1327.000000	88.616873
1326.000000	88.528166
1325.000000	88.237007
1324.000000	87.621273
1323.000000	86.551648
1322.000000	84.949355
1321.000000	82.851969
1320.000000	80.446766
1319.000000	78.034538
1318.000000	75.897319
1317.000000	74.167883
1316.000000	72.845479
1315.000000	71.933598
1314.000000	71.508841
1313.000000	71.636799
1312.000000	72.240120
1311.000000	73.082211
1310.000000	73.920346
1309.000000	74.670361
1308.000000	75.433726
1307.000000	76.382908
1306.000000	77.604016
1305.000000	79.031258
1304.000000	80.498686
1303.000000	81.838156
1302.000000	82.950283
1301.000000	83.816194
1300.000000	84.459577
1299.000000	84.910245
1298.000000	85.190292
1297.000000	85.304674
1296.000000	85.239417
1295.000000	84.961306
1294.000000	84.431027
1293.000000	83.615622
1292.000000	82.500855
1291.000000	81.130370
1290.000000	79.612044
1289.000000	78.050033
1288.000000	76.438204
1287.000000	74.622260
1286.000000	72.421648
1285.000000	69.836192
1284.000000	67.152303
1283.000000	64.853583
1282.000000	63.402331
1281.000000	63.033886
1280.000000	63.704841
1279.000000	65.157994
1278.000000	67.022557
1277.000000	68.925572
1276.000000	70.542968
1275.000000	71.625676
1274.000000	72.084550
1273.000000	72.110738
1272.000000	72.176305
1271.000000	72.781771
1270.000000	74.117727
1269.000000	75.961789
1268.000000	77.897005
1267.000000	79.612431
1266.000000	81.020485
1265.000000	82.173886
1264.000000	83.144996
1263.000000	83.980785
1262.000000	84.711314
1261.000000	85.359209
1260.000000	85.937650
1259.000000	86.453357
1258.000000	86.917312
1257.000000	87.339007
1256.000000	87.720017
1255.000000	88.061618
1254.000000	88.371849
1253.000000	88.662089
1252.000000	88.938579
1251.000000	89.205978
1250.000000	89.473335
1249.000000	89.747480
1248.000000	90.025577
1247.000000	90.300023
1246.000000	90.567682
1245.000000	90.827863
1244.000000	91.074581
1243.000000	91.300486
1242.000000	91.506127
1241.000000	91.698063
1240.000000	91.880701
1239.000000	92.056843
1238.000000	92.233558
1237.000000	92.417725
1236.000000	92.606824
1235.000000	92.791815
1234.000000	92.964934
1233.000000	93.118300
1232.000000	93.236392
1231.000000	93.298122
1230.000000	93.288440
1229.000000	93.191947
1228.000000	92.981958
1227.000000	92.615108
1226.000000	92.026569
1225.000000	91.130134
1224.000000	89.809330
1223.000000	87.950304
1222.000000	85.497456
1221.000000	82.488389
1220.000000	79.076408
1219.000000	75.499334
1218.000000	72.004232
1217.000000	68.764712
1216.000000	65.845463
1215.000000	63.226164
1214.000000	60.850782
1213.000000	58.674835
1212.000000	56.696106
1211.000000	54.956851
1210.000000	53.494176
1209.000000	52.321101
1208.000000	51.447776
1207.000000	50.886897
1206.000000	50.642676
1205.000000	50.685466
1204.000000	50.967550
1203.000000	51.444699
1202.000000	52.076780
1201.000000	52.853911
1200.000000	53.808415
1199.000000	54.998046
1198.000000	56.463302
1197.000000	58.194796
1196.000000	60.147410
1195.000000	62.251757
1194.000000	64.422154
1193.000000	66.574801
1192.000000	68.644962
1191.000000	70.589841
1190.000000	72.381182
1189.000000	74.002139
1188.000000	75.445008
1187.000000	76.711304
1186.000000	77.802343
1185.000000	78.721046
1184.000000	79.477360
1183.000000	80.082747
1182.000000	80.551864
1181.000000	80.895905
1180.000000	81.125203
1179.000000	81.256205
1178.000000	81.307222
1177.000000	81.297300
1176.000000	81.244142
1175.000000	81.168188
1174.000000	81.094897
1173.000000	81.049169
1172.000000	81.051768
1171.000000	81.118673
1170.000000	81.259274
1169.000000	81.471904
1168.000000	81.742372
1167.000000	82.043509
1166.000000	82.336263
1165.000000	82.576199
1164.000000	82.729593
1163.000000	82.796982
1162.000000	82.824635
1161.000000	82.890314
1160.000000	83.068620
1159.000000	83.395768
1158.000000	83.857874
1157.000000	84.407024
1156.000000	84.992125
1155.000000	85.579967
1154.000000	86.154180
1153.000000	86.703084
1152.000000	87.210188
1151.000000	87.655290
1150.000000	88.021459
1149.000000	88.302652
1148.000000	88.504357
1147.000000	88.642877
1146.000000	88.740001
1145.000000	88.807092
1144.000000	88.837496
1143.000000	88.803082
1142.000000	88.661174
1141.000000	88.366842
1140.000000	87.874523
1139.000000	87.149135
1138.000000	86.153818
1137.000000	84.837773
1136.000000	83.141721
1135.000000	80.991902
1134.000000	78.315446
1133.000000	75.042902
1132.000000	71.139738
1131.000000	66.669455
1130.000000	61.825176
1129.000000	56.930084
1128.000000	52.401120
1127.000000	48.655070
1126.000000	45.966279
1125.000000	44.400106
1124.000000	43.828274
1123.000000	43.977572
1122.000000	44.471858
1121.000000	44.881698
1120.000000	44.826610
1119.000000	44.035683
1118.000000	42.397668
1117.000000	40.078182
1116.000000	37.622931
1115.000000	35.873000
1114.000000	35.587146
1113.000000	37.048145
1112.000000	39.974689
1111.000000	43.712623
1110.000000	47.529001
1109.000000	50.832314
1108.000000	53.264504
1107.000000	54.679476
1106.000000	55.068354
1105.000000	54.535289
1104.000000	53.383896
1103.000000	52.192755
1102.000000	51.666513
1101.000000	52.292124
1100.000000	54.085206
1099.000000	56.643261
1098.000000	59.436621
1097.000000	62.079206
1096.000000	64.393721
1095.000000	66.347279
1094.000000	67.986963
1093.000000	69.401651
1092.000000	70.684258
1091.000000	71.902297
1090.000000	73.096185
1089.000000	74.292115
1088.000000	75.508265
1087.000000	76.744420
1086.000000	77.984288
1085.000000	79.201467
1084.000000	80.359471
1083.000000	81.423059
1082.000000	82.373757
1081.000000	83.216077
1080.000000	83.961085
1079.000000	84.610299
1078.000000	85.165531
1077.000000	85.628158
1076.000000	85.989846
1075.000000	86.230807
1074.000000	86.321168
1073.000000	86.230434
1072.000000	85.904306
1071.000000	85.260296
1070.000000	84.205063
1069.000000	82.626085
1068.000000	80.408656
1067.000000	77.439942
1066.000000	73.648709
1065.000000	69.070522
1064.000000	63.881178
1063.000000	58.415967
1062.000000	53.087319
1061.000000	48.236862
1060.000000	44.002575
1059.000000	40.278804
1058.000000	36.799805
1057.000000	33.366378
1056.000000	30.084766
1055.000000	27.385352
1054.000000	25.840591
1053.000000	25.852806
1052.000000	27.474590
1051.000000	30.412897
1050.000000	34.134945
1049.000000	38.097699
1048.000000	41.901379
1047.000000	45.338691
1046.000000	48.367611
1045.000000	51.039989
1044.000000	53.436498
1043.000000	55.612853
1042.000000	57.583955
1041.000000	59.340171
1040.000000	60.882653
1039.000000	62.225774
1038.000000	63.394182
1037.000000	64.422632
1036.000000	65.344463
1035.000000	66.189951
1034.000000	66.979604
1033.000000	67.727052
1032.000000	68.441921
1031.000000	69.125528
1030.000000	69.776052
1029.000000	70.393586
1028.000000	70.982883
1027.000000	71.553582
1026.000000	72.118433
1025.000000	72.690942
1024.000000	73.277316
1023.000000	73.870703
1022.000000	74.456045
1021.000000	75.012880
1020.000000	75.517008
1019.000000	75.940853
1018.000000	76.255221
1017.000000	76.429800
1016.000000	76.406375
1015.000000	76.095833
1014.000000	75.386642
1013.000000	74.159282
1012.000000	72.325606
1011.000000	69.860745
1010.000000	66.847064
1009.000000	63.478043
1008.000000	60.025915
1007.000000	56.825574
1006.000000	54.278151
1005.000000	52.791282
1004.000000	52.610074
1003.000000	53.630370
1002.000000	55.365758
1001.000000	57.167649
1000.000000	58.487577
999.000000	58.981842
998.000000	58.497496
997.000000	57.096934
996.000000	55.134936
995.000000	53.209920
994.000000	51.896159
993.000000	51.449380
992.000000	51.752224
991.000000	52.516804
990.000000	53.527914
989.000000	54.735480
988.000000	56.189428
987.000000	57.903889
986.000000	59.797490
985.000000	61.728374
984.000000	63.561169
983.000000	65.211965
982.000000	66.649241
981.000000	67.878601
980.000000	68.924838
979.000000	69.823488
978.000000	70.609092
977.000000	71.312782
976.000000	71.958937
975.000000	72.560386
974.000000	73.122466
973.000000	73.642139
972.000000	74.113786
971.000000	74.535717
970.000000	74.913334
969.000000	75.260243
968.000000	75.591549
967.000000	75.918926
966.000000	76.247238
965.000000	76.571840
964.000000	76.881446
963.000000	77.164233
962.000000	77.415444
961.000000	77.639555
960.000000	77.846174
959.000000	78.047438
958.000000	78.255413
957.000000	78.477089
956.000000	78.709370
955.000000	78.939934
954.000000	79.154819
953.000000	79.343718
952.000000	79.501810
951.000000	79.632272
950.000000	79.747048
949.000000	79.861915
948.000000	79.987479
947.000000	80.125307
946.000000	80.270723
945.000000	80.415084
944.000000	80.547696
943.000000	80.661539
942.000000	80.759822
941.000000	80.854515
940.000000	80.957993
939.000000	81.078051
938.000000	81.217411
937.000000	81.371662
936.000000	81.527354
935.000000	81.667327
934.000000	81.780944
933.000000	81.867973
932.000000	81.934750
931.000000	81.992269
930.000000	82.056270
929.000000	82.141332
928.000000	82.251192
927.000000	82.377561
926.000000	82.508423
925.000000	82.633330
924.000000	82.743045
923.000000	82.832272
922.000000	82.905072
921.000000	82.972591
920.000000	83.043693
919.000000	83.121272
918.000000	83.205875
917.000000	83.295949
916.000000	83.384560
915.000000	83.463262
914.000000	83.531954
913.000000	83.600241
912.000000	83.678738
911.000000	83.774240
910.000000	83.891530
909.000000	84.030377
908.000000	84.178672
907.000000	84.316309
906.000000	84.428986
905.000000	84.513412
904.000000	84.570179
903.000000	84.602178
902.000000	84.620001
901.000000	84.638813
900.000000	84.661408
899.000000	84.665622
898.000000	84.611677
897.000000	84.457084
896.000000	84.181607
895.000000	83.813357
894.000000	83.418157
893.000000	83.032933
892.000000	82.600322
891.000000	82.006524
890.000000	81.214330
889.000000	80.347438
888.000000	79.612760
887.000000	79.146322
886.000000	78.946536
885.000000	78.941271
884.000000	79.077299
883.000000	79.314691
882.000000	79.585560
881.000000	79.812632
880.000000	79.982047
879.000000	80.175490
878.000000	80.502474
877.000000	81.007977
876.000000	81.639971
875.000000	82.295549
874.000000	82.890701
873.000000	83.392328
872.000000	83.806409
871.000000	84.149992
870.000000	84.434094
869.000000	84.656810
868.000000	84.805684
867.000000	84.863427
866.000000	84.817335
865.000000	84.670564
864.000000	84.446863
863.000000	84.193733
862.000000	83.975629
861.000000	83.852296
860.000000	83.852621
859.000000	83.964129
858.000000	84.145505
857.000000	84.352138
856.000000	84.557406
855.000000	84.756470
854.000000	84.958561
853.000000	85.172651
852.000000	85.396618
851.000000	85.617932
850.000000	85.822281
849.000000	85.999899
848.000000	86.146136
847.000000	86.261998
846.000000	86.354563
845.000000	86.433764
844.000000	86.506030
843.000000	86.573487
842.000000	86.638107
841.000000	86.701791
840.000000	86.763611
839.000000	86.821971
838.000000	86.881036
837.000000	86.950394
836.000000	87.036553
835.000000	87.138191
834.000000	87.249141
833.000000	87.360587
832.000000	87.459021
831.000000	87.527653
830.000000	87.555231
829.000000	87.543361
828.000000	87.506974
827.000000	87.471217
826.000000	87.464624
825.000000	87.505782
824.000000	87.592078
823.000000	87.705145
822.000000	87.827800
821.000000	87.950653
820.000000	88.063922
819.000000	88.153448
818.000000	88.208374
817.000000	88.227093
816.000000	88.211419
815.000000	88.161370
814.000000	88.076409
813.000000	87.951900
812.000000	87.769258
811.000000	87.496140
810.000000	87.115178
809.000000	86.663583
808.000000	86.242361
807.000000	85.972227
806.000000	85.923088
805.000000	86.071577
804.000000	86.321965
803.000000	86.568758
802.000000	86.744094
801.000000	86.822529
800.000000	86.801372
799.000000	86.687497
798.000000	86.489349
797.000000	86.206019
796.000000	85.816941
795.000000	85.288797
794.000000	84.595951
793.000000	83.732390
792.000000	82.720877
791.000000	81.620403
790.000000	80.523327
789.000000	79.531401
788.000000	78.725951
787.000000	78.153462
786.000000	77.827458
785.000000	77.733851
784.000000	77.830341
783.000000	78.052723
782.000000	78.326215
781.000000	78.580154
780.000000	78.764530
779.000000	78.866743
778.000000	78.922646
777.000000	79.001506
776.000000	79.171737
775.000000	79.473389
774.000000	79.910403
773.000000	80.457052
772.000000	81.068336
771.000000	81.696906
770.000000	82.311006
769.000000	82.897321
768.000000	83.450518
767.000000	83.966338
766.000000	84.444040
765.000000	84.883883
764.000000	85.279492
763.000000	85.619220
762.000000	85.896913
761.000000	86.114569
760.000000	86.274029
759.000000	86.378053
758.000000	86.441026
757.000000	86.489735
756.000000	86.549154
755.000000	86.631878
754.000000	86.740479
753.000000	86.868780
752.000000	86.998205
751.000000	87.102931
750.000000	87.164732
749.000000	87.179418
748.000000	87.149321
747.000000	87.078366
746.000000	86.975735
745.000000	86.852956
744.000000	86.712059
743.000000	86.542347
742.000000	86.332519
741.000000	86.082535
740.000000	85.805251
739.000000	85.525837
738.000000	85.278356
737.000000	85.088905
736.000000	84.952880
735.000000	84.831372
734.000000	84.671674
733.000000	84.427640
732.000000	84.068922
731.000000	83.593331
730.000000	83.042400
729.000000	82.496944
728.000000	82.046109
727.000000	81.756874
726.000000	81.664025
725.000000	81.769354
724.000000	82.038086
723.000000	82.408586
722.000000	82.823748
721.000000	83.253635
720.000000	83.687459
719.000000	84.114831
718.000000	84.521753
717.000000	84.892985
716.000000	85.209689
715.000000	85.452576
714.000000	85.613560
713.000000	85.699849
712.000000	85.726280
711.000000	85.713542
710.000000	85.694341
709.000000	85.707278
708.000000	85.776534
707.000000	85.901390
706.000000	86.064996
705.000000	86.244033
704.000000	86.409130
703.000000	86.532467
702.000000	86.606712
701.000000	86.646978
700.000000	86.671356
699.000000	86.691531
698.000000	86.719762
697.000000	86.768336
696.000000	86.832994
695.000000	86.891500
694.000000	86.929990
693.000000	86.954523
692.000000	86.973319
691.000000	86.988301
690.000000	87.008056
689.000000	87.049229
688.000000	87.108486
687.000000	87.151561
686.000000	87.149629
685.000000	87.104333
684.000000	87.028758
683.000000	86.933846
682.000000	86.846018
681.000000	86.812164
680.000000	86.859274
679.000000	86.977551
678.000000	87.142048
677.000000	87.336534
676.000000	87.539066
675.000000	87.697933
674.000000	87.800353
673.000000	87.901833
672.000000	88.061422
671.000000	88.284890
670.000000	88.587337
669.000000	88.855646
668.000000	88.773400
667.000000	88.493199
666.000000	88.413799
665.000000	88.449473
664.000000	88.469613
663.000000	88.488832
662.000000	88.547206
661.000000	88.628738
660.000000	88.709437
659.000000	88.790668
658.000000	88.862106
657.000000	88.892016
656.000000	88.874363
655.000000	88.828139
654.000000	88.777545
653.000000	88.737033
652.000000	88.724129
651.000000	88.757703
650.000000	88.833120
649.000000	88.918913
648.000000	88.988455
647.000000	89.032992
646.000000	89.044195
645.000000	89.012100
644.000000	88.942351
643.000000	88.862106
642.000000	88.802400
641.000000	88.778546
640.000000	88.791748
639.000000	88.835004
638.000000	88.889373
637.000000	88.929886
636.000000	88.943738
635.000000	88.936248
634.000000	88.922029
633.000000	88.916927
632.000000	88.935093
631.000000	88.983150
630.000000	89.051973
629.000000	89.118982
628.000000	89.161775
627.000000	89.166894
626.000000	89.132083
625.000000	89.069996
624.000000	89.006878
623.000000	88.972919
622.000000	88.987346
621.000000	89.048809
620.000000	89.136681
619.000000	89.219550
618.000000	89.269618
617.000000	89.275877
616.000000	89.244492
615.000000	89.189467
614.000000	89.127342
613.000000	89.076512
612.000000	89.049628
611.000000	89.042925
610.000000	89.039421
609.000000	89.022656
608.000000	88.985841
607.000000	88.930470
606.000000	88.864874
605.000000	88.805089
604.000000	88.764046
603.000000	88.737439
602.000000	88.702417
601.000000	88.626096
600.000000	88.468976
599.000000	88.191231
598.000000	87.772630
597.000000	87.226355
596.000000	86.591571
595.000000	85.912024
594.000000	85.204000
593.000000	84.416188
592.000000	83.408603
591.000000	82.031255
590.000000	80.305911
589.000000	78.549407
588.000000	77.248744
587.000000	76.737158
586.000000	76.955308
585.000000	77.552098
584.000000	78.234673
583.000000	78.951574
582.000000	79.766289
581.000000	80.676926
580.000000	81.594492
579.000000	82.428979
578.000000	83.132834
577.000000	83.692852
576.000000	84.124348
575.000000	84.465236
574.000000	84.744488
573.000000	84.962497
572.000000	85.107508
571.000000	85.173864
570.000000	85.158713
569.000000	85.050091
568.000000	84.841979
567.000000	84.541609
566.000000	84.138466
565.000000	83.575952
564.000000	82.774080
563.000000	81.704424
562.000000	80.437414
561.000000	79.117406
560.000000	77.890965
559.000000	76.831792
558.000000	75.908258
557.000000	75.052989
556.000000	74.309495
555.000000	73.876781
554.000000	73.969182
553.000000	74.637898
552.000000	75.743385
551.000000	77.045756
550.000000	78.293219
549.000000	79.310153
548.000000	80.052193
547.000000	80.574619
546.000000	80.947759
545.000000	81.209909
544.000000	81.381158
543.000000	81.481009
542.000000	81.519708
541.000000	81.490070
540.000000	81.392691
539.000000	81.251465
538.000000	81.094379
537.000000	80.934208
536.000000	80.775027
535.000000	80.622586
534.000000	80.473399
533.000000	80.313560
532.000000	80.137576
531.000000	79.960590
530.000000	79.799935
529.000000	79.655695
528.000000	79.513948
527.000000	79.352753
526.000000	79.125679
525.000000	78.767941
524.000000	78.240727
523.000000	77.553000
522.000000	76.744071
521.000000	75.863005
520.000000	74.971333
519.000000	74.131810
518.000000	73.364981
517.000000	72.636290
516.000000	71.911243
515.000000	71.201005
514.000000	70.542847
513.000000	69.980843
512.000000	69.580577
511.000000	69.429103
510.000000	69.575346
509.000000	69.993327
508.000000	70.628385
507.000000	71.432641
506.000000	72.347198
505.000000	73.307040
504.000000	74.283818
503.000000	75.282882
502.000000	76.279398
501.000000	77.206619
500.000000	78.021126
499.000000	78.734094
498.000000	79.362482
497.000000	79.899538
496.000000	80.338809
495.000000	80.690284
494.000000	80.966943
493.000000	81.175115
492.000000	81.339163
491.000000	81.508177
490.000000	81.715796
489.000000	81.956831
488.000000	82.197573
487.000000	82.389185
486.000000	82.457665
485.000000	82.304598
484.000000	81.849325
483.000000	81.057700
482.000000	79.944713
481.000000	78.586871
480.000000	77.148831
479.000000	75.850224
478.000000	74.840554
477.000000	74.115477
476.000000	73.579801
475.000000	73.168302
474.000000	72.867598
473.000000	72.695128
472.000000	72.716766
471.000000	73.030654
470.000000	73.677922
469.000000	74.595829
468.000000	75.677879
467.000000	76.820939
466.000000	77.924953
465.000000	78.918899
464.000000	79.788728
463.000000	80.565196
462.000000	81.276500
461.000000	81.925615
460.000000	82.509970
459.000000	83.031978
458.000000	83.472441
457.000000	83.790018
456.000000	83.973755
455.000000	84.061019
454.000000	84.104367
453.000000	84.142161
452.000000	84.201992
451.000000	84.308044
450.000000	84.463401
449.000000	84.650684
448.000000	84.852917
447.000000	85.063096
446.000000	85.268721
445.000000	85.445256
444.000000	85.568634
443.000000	85.634043
442.000000	85.654496
441.000000	85.643773
440.000000	85.612034
439.000000	85.571036
438.000000	85.531125
437.000000	85.491660
436.000000	85.449493
435.000000	85.410889
434.000000	85.378207
433.000000	85.328022
432.000000	85.212699
431.000000	84.988172
430.000000	84.642330
429.000000	84.198121
428.000000	83.717744
427.000000	83.302975
426.000000	83.042102
425.000000	82.945073
424.000000	82.963149
423.000000	83.058165
422.000000	83.221769
421.000000	83.458743
420.000000	83.783877
419.000000	84.209792
418.000000	84.686908
417.000000	85.108963
416.000000	85.429013
415.000000	85.663846
414.000000	85.825029
413.000000	85.917999
412.000000	85.957488
411.000000	85.948730
410.000000	85.878657
409.000000	85.742993
408.000000	85.595109
407.000000	85.532021
406.000000	85.613691
405.000000	85.811329
404.000000	86.083171
403.000000	86.402520
402.000000	86.729754
401.000000	86.943315
400.000000	86.970133
