PE IR       SUBTECH     SPECTRUM    ASCII       PEDS        4.00        
   -1
23MS082-cis.asc
24/10/22
15:44:27.00
24/10/22
15:44:27.00
Administrator
Sample 1333 By Administrator Date Tuesday, October 22 2024
400.000000
#HDR
-1
-1
#GR
cm-1
%T
1.0
0.0
4000.000000
-1.000000
3601
8
85.382895
9.744231
#DATA
4000.000000	59.606701
3999.000000	59.575556
3998.000000	59.548606
3997.000000	59.525584
3996.000000	59.506068
3995.000000	59.490118
3994.000000	59.477357
3993.000000	59.465674
3992.000000	59.451852
3991.000000	59.434131
3990.000000	59.413440
3989.000000	59.391683
3988.000000	59.369714
3987.000000	59.347816
3986.000000	59.327548
3985.000000	59.312001
3984.000000	59.304311
3983.000000	59.306772
3982.000000	59.321118
3981.000000	59.348791
3980.000000	59.390242
3979.000000	59.443817
3978.000000	59.506259
3977.000000	59.574275
3976.000000	59.645743
3975.000000	59.719244
3974.000000	59.793413
3973.000000	59.867018
3972.000000	59.938854
3971.000000	60.007809
3970.000000	60.073517
3969.000000	60.137339
3968.000000	60.201624
3967.000000	60.268241
3966.000000	60.337106
3965.000000	60.405823
3964.000000	60.471156
3963.000000	60.531251
3962.000000	60.587966
3961.000000	60.645527
3960.000000	60.706308
3959.000000	60.769079
3958.000000	60.831328
3957.000000	60.892825
3956.000000	60.954552
3955.000000	61.017103
3954.000000	61.080014
3953.000000	61.141432
3952.000000	61.198281
3951.000000	61.246997
3950.000000	61.286465
3949.000000	61.320018
3948.000000	61.355458
3947.000000	61.401036
3946.000000	61.457098
3945.000000	61.512014
3944.000000	61.552016
3943.000000	61.576499
3942.000000	61.599862
3941.000000	61.635038
3940.000000	61.681895
3939.000000	61.733424
3938.000000	61.785751
3937.000000	61.841081
3936.000000	61.899425
3935.000000	61.953287
3934.000000	61.993598
3933.000000	62.018729
3932.000000	62.037035
3931.000000	62.057173
3930.000000	62.082617
3929.000000	62.115775
3928.000000	62.157123
3927.000000	62.198122
3926.000000	62.223501
3925.000000	62.230887
3924.000000	62.236403
3923.000000	62.252783
3922.000000	62.275432
3921.000000	62.294466
3920.000000	62.308694
3919.000000	62.321242
3918.000000	62.330459
3917.000000	62.336521
3916.000000	62.348744
3915.000000	62.373966
3914.000000	62.407767
3913.000000	62.441767
3912.000000	62.473423
3911.000000	62.506150
3910.000000	62.539956
3909.000000	62.574948
3908.000000	62.611655
3907.000000	62.645225
3906.000000	62.659942
3905.000000	62.644336
3904.000000	62.614959
3903.000000	62.602853
3902.000000	62.619415
3901.000000	62.650733
3900.000000	62.683832
3899.000000	62.722976
3898.000000	62.775674
3897.000000	62.837016
3896.000000	62.900254
3895.000000	62.966422
3894.000000	63.034342
3893.000000	63.091449
3892.000000	63.123469
3891.000000	63.140506
3890.000000	63.167046
3889.000000	63.219127
3888.000000	63.286878
3887.000000	63.338657
3886.000000	63.364399
3885.000000	63.391164
3884.000000	63.435297
3883.000000	63.481768
3882.000000	63.505249
3881.000000	63.500021
3880.000000	63.491755
3879.000000	63.505750
3878.000000	63.543352
3877.000000	63.589687
3876.000000	63.617763
3875.000000	63.610793
3874.000000	63.590751
3873.000000	63.596058
3872.000000	63.626856
3871.000000	63.643567
3870.000000	63.639579
3869.000000	63.655918
3868.000000	63.708519
3867.000000	63.768143
3866.000000	63.803066
3865.000000	63.819097
3864.000000	63.845169
3863.000000	63.884561
3862.000000	63.921862
3861.000000	63.956259
3860.000000	63.987951
3859.000000	64.014127
3858.000000	64.044165
3857.000000	64.103165
3856.000000	64.183753
3855.000000	64.215417
3854.000000	64.190370
3853.000000	64.201848
3852.000000	64.262433
3851.000000	64.305321
3850.000000	64.311982
3849.000000	64.313117
3848.000000	64.335668
3847.000000	64.377261
3846.000000	64.419877
3845.000000	64.450538
3844.000000	64.463619
3843.000000	64.462789
3842.000000	64.462741
3841.000000	64.474986
3840.000000	64.494912
3839.000000	64.523398
3838.000000	64.568715
3837.000000	64.625300
3836.000000	64.674041
3835.000000	64.708870
3834.000000	64.741195
3833.000000	64.777763
3832.000000	64.817178
3831.000000	64.860595
3830.000000	64.911062
3829.000000	64.964830
3828.000000	65.005493
3827.000000	65.020090
3826.000000	65.021942
3825.000000	65.042989
3824.000000	65.094114
3823.000000	65.142125
3822.000000	65.149109
3821.000000	65.138269
3820.000000	65.155414
3819.000000	65.210807
3818.000000	65.284395
3817.000000	65.344945
3816.000000	65.395861
3815.000000	65.460784
3814.000000	65.526227
3813.000000	65.559196
3812.000000	65.558497
3811.000000	65.558181
3810.000000	65.590164
3809.000000	65.643814
3808.000000	65.680160
3807.000000	65.690127
3806.000000	65.700235
3805.000000	65.731723
3804.000000	65.781180
3803.000000	65.821113
3802.000000	65.839630
3801.000000	65.871910
3800.000000	65.926682
3799.000000	65.971547
3798.000000	65.990311
3797.000000	65.996059
3796.000000	66.017090
3795.000000	66.064365
3794.000000	66.122954
3793.000000	66.173773
3792.000000	66.215174
3791.000000	66.255478
3790.000000	66.296605
3789.000000	66.333656
3788.000000	66.364777
3787.000000	66.391333
3786.000000	66.412271
3785.000000	66.425985
3784.000000	66.439309
3783.000000	66.462726
3782.000000	66.495396
3781.000000	66.523744
3780.000000	66.541247
3779.000000	66.562310
3778.000000	66.600889
3777.000000	66.649590
3776.000000	66.687512
3775.000000	66.707841
3774.000000	66.725912
3773.000000	66.755384
3772.000000	66.785776
3771.000000	66.802410
3770.000000	66.817558
3769.000000	66.852128
3768.000000	66.902436
3767.000000	66.949079
3766.000000	66.982066
3765.000000	67.010399
3764.000000	67.050814
3763.000000	67.106234
3762.000000	67.160720
3761.000000	67.199465
3760.000000	67.228928
3759.000000	67.262961
3758.000000	67.295764
3757.000000	67.320097
3756.000000	67.344051
3755.000000	67.376255
3754.000000	67.409403
3753.000000	67.431434
3752.000000	67.455864
3751.000000	67.505863
3750.000000	67.568166
3749.000000	67.615307
3748.000000	67.660691
3747.000000	67.737710
3746.000000	67.818446
3745.000000	67.873313
3744.000000	67.954670
3743.000000	68.066018
3742.000000	68.137882
3741.000000	68.154083
3740.000000	68.164689
3739.000000	68.220947
3738.000000	68.306625
3737.000000	68.360820
3736.000000	68.369788
3735.000000	68.380394
3734.000000	68.427904
3733.000000	68.505175
3732.000000	68.595043
3731.000000	68.681451
3730.000000	68.749718
3729.000000	68.795839
3728.000000	68.819246
3727.000000	68.824563
3726.000000	68.829058
3725.000000	68.841107
3724.000000	68.851725
3723.000000	68.855886
3722.000000	68.861051
3721.000000	68.860437
3720.000000	68.835702
3719.000000	68.784083
3718.000000	68.739944
3717.000000	68.759627
3716.000000	68.868771
3715.000000	69.031452
3714.000000	69.174778
3713.000000	69.265742
3712.000000	69.327986
3711.000000	69.399941
3710.000000	69.484951
3709.000000	69.571567
3708.000000	69.649062
3707.000000	69.710837
3706.000000	69.762411
3705.000000	69.808856
3704.000000	69.849768
3703.000000	69.878040
3702.000000	69.901661
3701.000000	69.933926
3700.000000	69.981441
3699.000000	70.033084
3698.000000	70.075009
3697.000000	70.103690
3696.000000	70.129558
3695.000000	70.157217
3694.000000	70.173772
3693.000000	70.176490
3692.000000	70.171166
3691.000000	70.174676
3690.000000	70.201890
3689.000000	70.272917
3688.000000	70.382049
3687.000000	70.486549
3686.000000	70.552401
3685.000000	70.578672
3684.000000	70.589467
3683.000000	70.608227
3682.000000	70.637666
3681.000000	70.653139
3680.000000	70.645326
3679.000000	70.639867
3678.000000	70.661756
3677.000000	70.682605
3676.000000	70.687585
3675.000000	70.717927
3674.000000	70.777439
3673.000000	70.835935
3672.000000	70.877372
3671.000000	70.900506
3670.000000	70.938032
3669.000000	71.014456
3668.000000	71.099541
3667.000000	71.161929
3666.000000	71.202456
3665.000000	71.236764
3664.000000	71.274685
3663.000000	71.314791
3662.000000	71.345107
3661.000000	71.358844
3660.000000	71.366230
3659.000000	71.380688
3658.000000	71.400182
3657.000000	71.414884
3656.000000	71.432396
3655.000000	71.458800
3654.000000	71.482518
3653.000000	71.489736
3652.000000	71.471680
3651.000000	71.434562
3650.000000	71.416945
3649.000000	71.452104
3648.000000	71.527384
3647.000000	71.611254
3646.000000	71.684784
3645.000000	71.744488
3644.000000	71.793482
3643.000000	71.836281
3642.000000	71.875401
3641.000000	71.915016
3640.000000	71.955615
3639.000000	71.993683
3638.000000	72.029458
3637.000000	72.066799
3636.000000	72.103460
3635.000000	72.123757
3634.000000	72.121112
3633.000000	72.111931
3632.000000	72.114360
3631.000000	72.113512
3630.000000	72.082963
3629.000000	72.062682
3628.000000	72.101908
3627.000000	72.159314
3626.000000	72.172733
3625.000000	72.136550
3624.000000	72.079653
3623.000000	72.024981
3622.000000	71.966925
3621.000000	71.884346
3620.000000	71.773467
3619.000000	71.648445
3618.000000	71.514513
3617.000000	71.370424
3616.000000	71.233462
3615.000000	71.128334
3614.000000	71.064287
3613.000000	71.034787
3612.000000	71.016033
3611.000000	70.982206
3610.000000	70.921267
3609.000000	70.840476
3608.000000	70.754994
3607.000000	70.670112
3606.000000	70.581905
3605.000000	70.483711
3604.000000	70.377093
3603.000000	70.264143
3602.000000	70.147553
3601.000000	70.033638
3600.000000	69.932161
3599.000000	69.841604
3598.000000	69.751169
3597.000000	69.654664
3596.000000	69.552050
3595.000000	69.444167
3594.000000	69.332378
3593.000000	69.221552
3592.000000	69.114333
3591.000000	69.013953
3590.000000	68.917210
3589.000000	68.821336
3588.000000	68.738217
3587.000000	68.685616
3586.000000	68.663754
3585.000000	68.652262
3584.000000	68.635160
3583.000000	68.603419
3582.000000	68.556077
3581.000000	68.496035
3580.000000	68.429068
3579.000000	68.358105
3578.000000	68.283019
3577.000000	68.205238
3576.000000	68.127055
3575.000000	68.049972
3574.000000	67.972321
3573.000000	67.892372
3572.000000	67.807562
3571.000000	67.714883
3570.000000	67.607313
3569.000000	67.475636
3568.000000	67.323241
3567.000000	67.173345
3566.000000	67.045977
3565.000000	66.938785
3564.000000	66.837798
3563.000000	66.730727
3562.000000	66.610652
3561.000000	66.476022
3560.000000	66.329707
3559.000000	66.176253
3558.000000	66.018900
3557.000000	65.859494
3556.000000	65.697521
3555.000000	65.528882
3554.000000	65.348046
3553.000000	65.155573
3552.000000	64.959527
3551.000000	64.765677
3550.000000	64.570026
3549.000000	64.363258
3548.000000	64.139354
3547.000000	63.899620
3546.000000	63.650670
3545.000000	63.400819
3544.000000	63.155702
3543.000000	62.914599
3542.000000	62.671420
3541.000000	62.420324
3540.000000	62.157665
3539.000000	61.879178
3538.000000	61.579702
3537.000000	61.259381
3536.000000	60.925620
3535.000000	60.585218
3534.000000	60.238601
3533.000000	59.882078
3532.000000	59.513026
3531.000000	59.128870
3530.000000	58.725509
3529.000000	58.301331
3528.000000	57.860687
3527.000000	57.408865
3526.000000	56.944796
3525.000000	56.463316
3524.000000	55.963086
3523.000000	55.448301
3522.000000	54.922833
3521.000000	54.386209
3520.000000	53.834294
3519.000000	53.262376
3518.000000	52.668679
3517.000000	52.055971
3516.000000	51.428588
3515.000000	50.788550
3514.000000	50.136557
3513.000000	49.472944
3512.000000	48.795171
3511.000000	48.097046
3510.000000	47.375639
3509.000000	46.638753
3508.000000	45.899895
3507.000000	45.164373
3506.000000	44.424152
3505.000000	43.667408
3504.000000	42.890475
3503.000000	42.099922
3502.000000	41.306905
3501.000000	40.521364
3500.000000	39.746946
3499.000000	38.978314
3498.000000	38.206352
3497.000000	37.427949
3496.000000	36.648463
3495.000000	35.874854
3494.000000	35.111095
3493.000000	34.360266
3492.000000	33.624787
3491.000000	32.903139
3490.000000	32.191218
3489.000000	31.488796
3488.000000	30.801980
3487.000000	30.138262
3486.000000	29.501920
3485.000000	28.893525
3484.000000	28.308469
3483.000000	27.736951
3482.000000	27.171781
3481.000000	26.617042
3480.000000	26.084430
3479.000000	25.579761
3478.000000	25.097818
3477.000000	24.629691
3476.000000	24.169435
3475.000000	23.714507
3474.000000	23.265358
3473.000000	22.826559
3472.000000	22.404182
3471.000000	22.001665
3470.000000	21.622966
3469.000000	21.277625
3468.000000	20.977605
3467.000000	20.729573
3466.000000	20.533925
3465.000000	20.390511
3464.000000	20.298932
3463.000000	20.255547
3462.000000	20.257497
3461.000000	20.308182
3460.000000	20.413521
3459.000000	20.571991
3458.000000	20.773205
3457.000000	21.005923
3456.000000	21.260864
3455.000000	21.527439
3454.000000	21.793897
3453.000000	22.050539
3452.000000	22.289226
3451.000000	22.499485
3450.000000	22.668331
3449.000000	22.784773
3448.000000	22.841859
3447.000000	22.836373
3446.000000	22.771735
3445.000000	22.657690
3444.000000	22.503764
3443.000000	22.314464
3442.000000	22.092781
3441.000000	21.847586
3440.000000	21.591981
3439.000000	21.336751
3438.000000	21.091139
3437.000000	20.867387
3436.000000	20.678671
3435.000000	20.532458
3434.000000	20.429432
3433.000000	20.368084
3432.000000	20.348517
3431.000000	20.372017
3430.000000	20.442541
3429.000000	20.568065
3428.000000	20.754544
3427.000000	21.002123
3426.000000	21.308279
3425.000000	21.673481
3424.000000	22.100455
3423.000000	22.587320
3422.000000	23.129509
3421.000000	23.724641
3420.000000	24.371257
3419.000000	25.065121
3418.000000	25.798379
3417.000000	26.563656
3416.000000	27.353910
3415.000000	28.160195
3414.000000	28.974969
3413.000000	29.794946
3412.000000	30.618064
3411.000000	31.438879
3410.000000	32.250192
3409.000000	33.047987
3408.000000	33.830596
3407.000000	34.593993
3406.000000	35.332368
3405.000000	36.042628
3404.000000	36.724912
3403.000000	37.380909
3402.000000	38.014754
3401.000000	38.633611
3400.000000	39.242862
3399.000000	39.840185
3398.000000	40.418689
3397.000000	40.974664
3396.000000	41.508729
3395.000000	42.022250
3394.000000	42.516665
3393.000000	42.996467
3392.000000	43.468219
3391.000000	43.935481
3390.000000	44.398125
3389.000000	44.855148
3388.000000	45.305560
3387.000000	45.747394
3386.000000	46.179124
3385.000000	46.602530
3384.000000	47.021081
3383.000000	47.436436
3382.000000	47.848951
3381.000000	48.259941
3380.000000	48.670650
3379.000000	49.079828
3378.000000	49.485484
3377.000000	49.888022
3376.000000	50.288661
3375.000000	50.686211
3374.000000	51.078235
3373.000000	51.464552
3372.000000	51.846925
3371.000000	52.226356
3370.000000	52.603533
3369.000000	52.980459
3368.000000	53.358744
3367.000000	53.737175
3366.000000	54.113096
3365.000000	54.485241
3364.000000	54.853251
3363.000000	55.216118
3362.000000	55.573769
3361.000000	55.928667
3360.000000	56.283294
3359.000000	56.636913
3358.000000	56.987181
3357.000000	57.333760
3356.000000	57.677524
3355.000000	58.017596
3354.000000	58.351975
3353.000000	58.680459
3352.000000	59.004535
3351.000000	59.324777
3350.000000	59.640608
3349.000000	59.951885
3348.000000	60.258401
3347.000000	60.558761
3346.000000	60.851585
3345.000000	61.137402
3344.000000	61.417426
3343.000000	61.690962
3342.000000	61.956710
3341.000000	62.215286
3340.000000	62.468275
3339.000000	62.715449
3338.000000	62.954703
3337.000000	63.184789
3336.000000	63.405475
3335.000000	63.615624
3334.000000	63.813274
3333.000000	63.996718
3332.000000	64.164487
3331.000000	64.313912
3330.000000	64.441768
3329.000000	64.546621
3328.000000	64.627834
3327.000000	64.683557
3326.000000	64.710270
3325.000000	64.703908
3324.000000	64.660880
3323.000000	64.576300
3322.000000	64.445460
3321.000000	64.265425
3320.000000	64.033182
3319.000000	63.744879
3318.000000	63.395106
3317.000000	62.979498
3316.000000	62.494187
3315.000000	61.932427
3314.000000	61.287196
3313.000000	60.552042
3312.000000	59.720928
3311.000000	58.787542
3310.000000	57.744789
3309.000000	56.591073
3308.000000	55.327453
3307.000000	53.953539
3306.000000	52.468279
3305.000000	50.869575
3304.000000	49.157551
3303.000000	47.331153
3302.000000	45.390817
3301.000000	43.345017
3300.000000	41.209062
3299.000000	39.005456
3298.000000	36.766070
3297.000000	34.534426
3296.000000	32.359810
3295.000000	30.287305
3294.000000	28.353443
3293.000000	26.588153
3292.000000	25.010765
3291.000000	23.619944
3290.000000	22.397921
3289.000000	21.316356
3288.000000	20.342577
3287.000000	19.444833
3286.000000	18.595750
3285.000000	17.780700
3284.000000	16.993772
3283.000000	16.234058
3282.000000	15.509299
3281.000000	14.835919
3280.000000	14.234741
3279.000000	13.723496
3278.000000	13.318372
3277.000000	13.038321
3276.000000	12.897122
3275.000000	12.897368
3274.000000	13.031229
3273.000000	13.283037
3272.000000	13.629011
3271.000000	14.033049
3270.000000	14.453103
3269.000000	14.849260
3268.000000	15.184156
3267.000000	15.424225
3266.000000	15.547552
3265.000000	15.549683
3264.000000	15.440070
3263.000000	15.236396
3262.000000	14.962044
3261.000000	14.647121
3260.000000	14.320999
3259.000000	14.004738
3258.000000	13.713729
3257.000000	13.458980
3256.000000	13.242498
3255.000000	13.052810
3254.000000	12.870869
3253.000000	12.680308
3252.000000	12.472973
3251.000000	12.252269
3250.000000	12.040203
3249.000000	11.877894
3248.000000	11.808449
3247.000000	11.858639
3246.000000	12.030355
3245.000000	12.303397
3244.000000	12.642977
3243.000000	13.008480
3242.000000	13.367534
3241.000000	13.701541
3240.000000	14.000177
3239.000000	14.256324
3238.000000	14.467634
3237.000000	14.638396
3236.000000	14.775319
3235.000000	14.884571
3234.000000	14.973487
3233.000000	15.050743
3232.000000	15.118436
3231.000000	15.168680
3230.000000	15.192380
3229.000000	15.185813
3228.000000	15.148178
3227.000000	15.076628
3226.000000	14.969138
3225.000000	14.828826
3224.000000	14.659497
3223.000000	14.462412
3222.000000	14.240046
3221.000000	13.999714
3220.000000	13.749932
3219.000000	13.495726
3218.000000	13.241828
3217.000000	12.994825
3216.000000	12.758053
3215.000000	12.528627
3214.000000	12.303291
3213.000000	12.083278
3212.000000	11.869511
3211.000000	11.658012
3210.000000	11.444706
3209.000000	11.231350
3208.000000	11.022330
3207.000000	10.819784
3206.000000	10.626031
3205.000000	10.446008
3204.000000	10.283621
3203.000000	10.138861
3202.000000	10.012361
3201.000000	9.908915
3200.000000	9.831780
3199.000000	9.779143
3198.000000	9.749151
3197.000000	9.744231
3196.000000	9.767100
3195.000000	9.815426
3194.000000	9.886218
3193.000000	9.979604
3192.000000	10.094529
3191.000000	10.226379
3190.000000	10.371250
3189.000000	10.529970
3188.000000	10.703456
3187.000000	10.888107
3186.000000	11.080309
3185.000000	11.279987
3184.000000	11.486900
3183.000000	11.697524
3182.000000	11.909147
3181.000000	12.123067
3180.000000	12.339687
3179.000000	12.555353
3178.000000	12.767514
3177.000000	12.978599
3176.000000	13.191243
3175.000000	13.403737
3174.000000	13.613790
3173.000000	13.822583
3172.000000	14.031790
3171.000000	14.240944
3170.000000	14.451085
3169.000000	14.666744
3168.000000	14.890651
3167.000000	15.120236
3166.000000	15.352212
3165.000000	15.586113
3164.000000	15.820260
3163.000000	16.048820
3162.000000	16.266600
3161.000000	16.472498
3160.000000	16.665552
3159.000000	16.842007
3158.000000	16.999216
3157.000000	17.139153
3156.000000	17.264329
3155.000000	17.374746
3154.000000	17.471941
3153.000000	17.561123
3152.000000	17.646680
3151.000000	17.728366
3150.000000	17.805086
3149.000000	17.878459
3148.000000	17.949111
3147.000000	18.014273
3146.000000	18.071711
3145.000000	18.122452
3144.000000	18.167034
3143.000000	18.202704
3142.000000	18.227753
3141.000000	18.244132
3140.000000	18.252883
3139.000000	18.251536
3138.000000	18.238488
3137.000000	18.216274
3136.000000	18.186918
3135.000000	18.148025
3134.000000	18.096930
3133.000000	18.033597
3132.000000	17.957132
3131.000000	17.863163
3130.000000	17.747675
3129.000000	17.610469
3128.000000	17.451542
3127.000000	17.269736
3126.000000	17.067590
3125.000000	16.853207
3124.000000	16.635051
3123.000000	16.418170
3122.000000	16.208096
3121.000000	16.012808
3120.000000	15.837012
3119.000000	15.678489
3118.000000	15.533420
3117.000000	15.400895
3116.000000	15.279348
3115.000000	15.163872
3114.000000	15.050189
3113.000000	14.937443
3112.000000	14.824070
3111.000000	14.705731
3110.000000	14.580744
3109.000000	14.452962
3108.000000	14.326565
3107.000000	14.202439
3106.000000	14.082186
3105.000000	13.971086
3104.000000	13.873427
3103.000000	13.789674
3102.000000	13.721542
3101.000000	13.674892
3100.000000	13.655445
3099.000000	13.664594
3098.000000	13.702662
3097.000000	13.771770
3096.000000	13.871569
3095.000000	13.998530
3094.000000	14.150767
3093.000000	14.329724
3092.000000	14.534915
3091.000000	14.760624
3090.000000	15.001603
3089.000000	15.255718
3088.000000	15.519350
3087.000000	15.786161
3086.000000	16.052855
3085.000000	16.322211
3084.000000	16.596916
3083.000000	16.875501
3082.000000	17.157297
3081.000000	17.445757
3080.000000	17.744207
3079.000000	18.052586
3078.000000	18.371071
3077.000000	18.702064
3076.000000	19.045102
3075.000000	19.394903
3074.000000	19.747169
3073.000000	20.102043
3072.000000	20.459676
3071.000000	20.816786
3070.000000	21.170799
3069.000000	21.522807
3068.000000	21.873557
3067.000000	22.220503
3066.000000	22.561500
3065.000000	22.897511
3064.000000	23.228999
3063.000000	23.553746
3062.000000	23.870332
3061.000000	24.180256
3060.000000	24.484220
3059.000000	24.780252
3058.000000	25.067965
3057.000000	25.350482
3056.000000	25.630258
3055.000000	25.906560
3054.000000	26.179020
3053.000000	26.449788
3052.000000	26.719645
3051.000000	26.985972
3050.000000	27.246675
3049.000000	27.502550
3048.000000	27.754060
3047.000000	27.999488
3046.000000	28.238606
3045.000000	28.474372
3044.000000	28.708944
3043.000000	28.941860
3042.000000	29.173688
3041.000000	29.407443
3040.000000	29.644033
3039.000000	29.880171
3038.000000	30.113091
3037.000000	30.343774
3036.000000	30.573799
3035.000000	30.802783
3034.000000	31.030925
3033.000000	31.260188
3032.000000	31.490722
3031.000000	31.719942
3030.000000	31.947021
3029.000000	32.174342
3028.000000	32.402642
3027.000000	32.628787
3026.000000	32.850462
3025.000000	33.069208
3024.000000	33.286270
3023.000000	33.499165
3022.000000	33.704526
3021.000000	33.900622
3020.000000	34.085017
3019.000000	34.252393
3018.000000	34.397708
3017.000000	34.518840
3016.000000	34.614839
3015.000000	34.685905
3014.000000	34.737609
3013.000000	34.783221
3012.000000	34.839091
3011.000000	34.919285
3010.000000	35.034325
3009.000000	35.189379
3008.000000	35.379950
3007.000000	35.591098
3006.000000	35.801512
3005.000000	35.985676
3004.000000	36.110390
3003.000000	36.135846
3002.000000	36.028833
3001.000000	35.780141
3000.000000	35.415463
2999.000000	34.992482
2998.000000	34.587312
2997.000000	34.273280
2996.000000	34.102451
2995.000000	34.099540
2994.000000	34.264352
2993.000000	34.573897
2992.000000	34.982282
2991.000000	35.431926
2990.000000	35.872631
2989.000000	36.273436
2988.000000	36.619856
2987.000000	36.906150
2986.000000	37.131386
2985.000000	37.295169
2984.000000	37.394000
2983.000000	37.425288
2982.000000	37.399763
2981.000000	37.345413
2980.000000	37.295377
2979.000000	37.270294
2978.000000	37.271105
2977.000000	37.284724
2976.000000	37.294335
2975.000000	37.291156
2974.000000	37.281624
2973.000000	37.283449
2972.000000	37.312440
2971.000000	37.371883
2970.000000	37.450518
2969.000000	37.523914
2968.000000	37.555012
2967.000000	37.502268
2966.000000	37.336161
2965.000000	37.050678
2964.000000	36.659484
2963.000000	36.182943
2962.000000	35.643457
2961.000000	35.072327
2960.000000	34.522525
2959.000000	34.070438
2958.000000	33.796288
2957.000000	33.745899
2956.000000	33.901921
2955.000000	34.195066
2954.000000	34.544860
2953.000000	34.894198
2952.000000	35.212821
2951.000000	35.487306
2950.000000	35.715457
2949.000000	35.905237
2948.000000	36.069962
2947.000000	36.219250
2946.000000	36.350430
2945.000000	36.438050
2944.000000	36.432706
2943.000000	36.284043
2942.000000	35.985270
2941.000000	35.604779
2940.000000	35.275694
2939.000000	35.144733
2938.000000	35.308578
2937.000000	35.774087
2936.000000	36.461101
2935.000000	37.247922
2934.000000	38.027026
2933.000000	38.735639
2932.000000	39.352030
2931.000000	39.879609
2930.000000	40.335056
2929.000000	40.738096
2928.000000	41.103270
2927.000000	41.437387
2926.000000	41.745030
2925.000000	42.030931
2924.000000	42.296628
2923.000000	42.539682
2922.000000	42.758619
2921.000000	42.954872
2920.000000	43.128227
2919.000000	43.275856
2918.000000	43.397068
2917.000000	43.495488
2916.000000	43.574952
2915.000000	43.636943
2914.000000	43.683783
2913.000000	43.719920
2912.000000	43.748117
2911.000000	43.767569
2910.000000	43.776700
2909.000000	43.774436
2908.000000	43.757028
2907.000000	43.716399
2906.000000	43.643145
2905.000000	43.527436
2904.000000	43.355959
2903.000000	43.114060
2902.000000	42.794276
2901.000000	42.403030
2900.000000	41.961609
2899.000000	41.505000
2898.000000	41.080031
2897.000000	40.737548
2896.000000	40.516765
2895.000000	40.434344
2894.000000	40.485944
2893.000000	40.651678
2892.000000	40.901145
2891.000000	41.199960
2890.000000	41.519294
2889.000000	41.839442
2888.000000	42.146443
2887.000000	42.429448
2886.000000	42.682281
2885.000000	42.904108
2884.000000	43.095107
2883.000000	43.255054
2882.000000	43.386228
2881.000000	43.494155
2880.000000	43.583875
2879.000000	43.658103
2878.000000	43.719985
2877.000000	43.774109
2876.000000	43.823641
2875.000000	43.869543
2874.000000	43.914460
2873.000000	43.963849
2872.000000	44.022125
2871.000000	44.091307
2870.000000	44.174736
2869.000000	44.278797
2868.000000	44.408631
2867.000000	44.564329
2866.000000	44.741893
2865.000000	44.934386
2864.000000	45.131132
2863.000000	45.320353
2862.000000	45.495205
2861.000000	45.655363
2860.000000	45.802703
2859.000000	45.938736
2858.000000	46.067030
2857.000000	46.193774
2856.000000	46.323564
2855.000000	46.457270
2854.000000	46.594549
2853.000000	46.734431
2852.000000	46.871934
2851.000000	46.997880
2850.000000	47.104679
2849.000000	47.190609
2848.000000	47.258290
2847.000000	47.312490
2846.000000	47.360387
2845.000000	47.409996
2844.000000	47.465893
2843.000000	47.528095
2842.000000	47.595732
2841.000000	47.669400
2840.000000	47.749263
2839.000000	47.834067
2838.000000	47.923211
2837.000000	48.017124
2836.000000	48.114936
2835.000000	48.214581
2834.000000	48.315785
2833.000000	48.420170
2832.000000	48.527729
2831.000000	48.636125
2830.000000	48.744210
2829.000000	48.853059
2828.000000	48.962601
2827.000000	49.070323
2826.000000	49.174347
2825.000000	49.274932
2824.000000	49.372058
2823.000000	49.464411
2822.000000	49.552026
2821.000000	49.637111
2820.000000	49.721016
2819.000000	49.802849
2818.000000	49.881864
2817.000000	49.958517
2816.000000	50.032241
2815.000000	50.100943
2814.000000	50.163933
2813.000000	50.222879
2812.000000	50.279003
2811.000000	50.331959
2810.000000	50.382277
2809.000000	50.432166
2808.000000	50.482838
2807.000000	50.533536
2806.000000	50.584086
2805.000000	50.635786
2804.000000	50.688817
2803.000000	50.741527
2802.000000	50.793227
2801.000000	50.845124
2800.000000	50.897686
2799.000000	50.949741
2798.000000	51.001031
2797.000000	51.052841
2796.000000	51.105081
2795.000000	51.155518
2794.000000	51.202997
2793.000000	51.248809
2792.000000	51.293965
2791.000000	51.337841
2790.000000	51.380499
2789.000000	51.423442
2788.000000	51.466725
2787.000000	51.507945
2786.000000	51.545394
2785.000000	51.580020
2784.000000	51.613439
2783.000000	51.646730
2782.000000	51.682093
2781.000000	51.722680
2780.000000	51.769285
2779.000000	51.819505
2778.000000	51.871271
2777.000000	51.924788
2776.000000	51.979979
2775.000000	52.034830
2774.000000	52.087773
2773.000000	52.139288
2772.000000	52.189811
2771.000000	52.238364
2770.000000	52.284470
2769.000000	52.329138
2768.000000	52.372639
2767.000000	52.413359
2766.000000	52.450135
2765.000000	52.483698
2764.000000	52.514789
2763.000000	52.543118
2762.000000	52.569321
2761.000000	52.595820
2760.000000	52.624493
2759.000000	52.655158
2758.000000	52.687194
2757.000000	52.720540
2756.000000	52.754209
2755.000000	52.785971
2754.000000	52.814664
2753.000000	52.841351
2752.000000	52.867693
2751.000000	52.895036
2750.000000	52.925244
2749.000000	52.959711
2748.000000	52.996550
2747.000000	53.030881
2746.000000	53.058923
2745.000000	53.080168
2744.000000	53.095468
2743.000000	53.105681
2742.000000	53.112799
2741.000000	53.119648
2740.000000	53.127337
2739.000000	53.135134
2738.000000	53.143936
2737.000000	53.158261
2736.000000	53.184093
2735.000000	53.226483
2734.000000	53.289129
2733.000000	53.372535
2732.000000	53.471331
2731.000000	53.575750
2730.000000	53.677024
2729.000000	53.770533
2728.000000	53.854111
2727.000000	53.926393
2726.000000	53.987842
2725.000000	54.040700
2724.000000	54.086338
2723.000000	54.124544
2722.000000	54.155870
2721.000000	54.182306
2720.000000	54.205306
2719.000000	54.225127
2718.000000	54.242973
2717.000000	54.261707
2716.000000	54.283422
2715.000000	54.308427
2714.000000	54.337065
2713.000000	54.370197
2712.000000	54.407196
2711.000000	54.445589
2710.000000	54.483395
2709.000000	54.519861
2708.000000	54.553675
2707.000000	54.582851
2706.000000	54.606996
2705.000000	54.627498
2704.000000	54.644850
2703.000000	54.658065
2702.000000	54.667176
2701.000000	54.673558
2700.000000	54.677271
2699.000000	54.676543
2698.000000	54.670815
2697.000000	54.662297
2696.000000	54.653713
2695.000000	54.646753
2694.000000	54.643125
2693.000000	54.644351
2692.000000	54.649530
2691.000000	54.655639
2690.000000	54.660958
2689.000000	54.666273
2688.000000	54.672353
2687.000000	54.678787
2686.000000	54.686053
2685.000000	54.696095
2684.000000	54.709806
2683.000000	54.726324
2682.000000	54.745562
2681.000000	54.769336
2680.000000	54.799027
2679.000000	54.834144
2678.000000	54.873875
2677.000000	54.917449
2676.000000	54.962371
2675.000000	55.004680
2674.000000	55.041848
2673.000000	55.073604
2672.000000	55.099625
2671.000000	55.118982
2670.000000	55.132737
2669.000000	55.144827
2668.000000	55.159345
2667.000000	55.178884
2666.000000	55.205744
2665.000000	55.241905
2664.000000	55.286548
2663.000000	55.335638
2662.000000	55.384752
2661.000000	55.430467
2660.000000	55.468959
2659.000000	55.496114
2658.000000	55.510296
2657.000000	55.513494
2656.000000	55.509153
2655.000000	55.500781
2654.000000	55.493065
2653.000000	55.491503
2652.000000	55.499847
2651.000000	55.519527
2650.000000	55.551588
2649.000000	55.596472
2648.000000	55.651494
2647.000000	55.710927
2646.000000	55.769635
2645.000000	55.825266
2644.000000	55.876736
2643.000000	55.923646
2642.000000	55.967822
2641.000000	56.012828
2640.000000	56.060795
2639.000000	56.111149
2638.000000	56.162463
2637.000000	56.213205
2636.000000	56.260479
2635.000000	56.300718
2634.000000	56.332838
2633.000000	56.358769
2632.000000	56.380481
2631.000000	56.398725
2630.000000	56.414616
2629.000000	56.429999
2628.000000	56.445351
2627.000000	56.459515
2626.000000	56.472274
2625.000000	56.484748
2624.000000	56.496994
2623.000000	56.507622
2622.000000	56.516293
2621.000000	56.524256
2620.000000	56.531471
2619.000000	56.535607
2618.000000	56.534376
2617.000000	56.526511
2616.000000	56.510268
2615.000000	56.483367
2614.000000	56.445786
2613.000000	56.400597
2612.000000	56.351374
2611.000000	56.301230
2610.000000	56.254540
2609.000000	56.216775
2608.000000	56.191393
2607.000000	56.178901
2606.000000	56.179169
2605.000000	56.192637
2604.000000	56.218519
2603.000000	56.254247
2602.000000	56.298028
2601.000000	56.348903
2600.000000	56.404283
2599.000000	56.459848
2598.000000	56.512489
2597.000000	56.561572
2596.000000	56.606736
2595.000000	56.647391
2594.000000	56.685045
2593.000000	56.723304
2592.000000	56.764256
2591.000000	56.806888
2590.000000	56.849416
2589.000000	56.890626
2588.000000	56.928323
2587.000000	56.959224
2586.000000	56.982106
2585.000000	56.999381
2584.000000	57.014865
2583.000000	57.032071
2582.000000	57.055021
2581.000000	57.087912
2580.000000	57.132546
2579.000000	57.187646
2578.000000	57.250923
2577.000000	57.320183
2576.000000	57.392099
2575.000000	57.462800
2574.000000	57.530820
2573.000000	57.597216
2572.000000	57.662508
2571.000000	57.725518
2570.000000	57.785605
2569.000000	57.843510
2568.000000	57.899256
2567.000000	57.951422
2566.000000	57.999484
2565.000000	58.044949
2564.000000	58.089338
2563.000000	58.133247
2562.000000	58.177754
2561.000000	58.224463
2560.000000	58.273216
2559.000000	58.321570
2558.000000	58.367434
2557.000000	58.410479
2556.000000	58.450816
2555.000000	58.488542
2554.000000	58.525193
2553.000000	58.563507
2552.000000	58.604853
2551.000000	58.648473
2550.000000	58.693393
2549.000000	58.738819
2548.000000	58.782432
2547.000000	58.820786
2546.000000	58.852281
2545.000000	58.878054
2544.000000	58.899466
2543.000000	58.917133
2542.000000	58.932788
2541.000000	58.949313
2540.000000	58.967832
2539.000000	58.986269
2538.000000	59.001734
2537.000000	59.012430
2536.000000	59.016595
2535.000000	59.012298
2534.000000	58.999145
2533.000000	58.978838
2532.000000	58.953306
2531.000000	58.923674
2530.000000	58.891856
2529.000000	58.860721
2528.000000	58.831984
2527.000000	58.805470
2526.000000	58.780697
2525.000000	58.757451
2524.000000	58.734234
2523.000000	58.708250
2522.000000	58.677683
2521.000000	58.642061
2520.000000	58.600342
2519.000000	58.550559
2518.000000	58.492016
2517.000000	58.426205
2516.000000	58.354912
2515.000000	58.279910
2514.000000	58.204641
2513.000000	58.134076
2512.000000	58.072230
2511.000000	58.021738
2510.000000	57.985530
2509.000000	57.966344
2508.000000	57.964173
2507.000000	57.975838
2506.000000	57.998427
2505.000000	58.030198
2504.000000	58.068518
2503.000000	58.110046
2502.000000	58.152911
2501.000000	58.196968
2500.000000	58.240919
2499.000000	58.281789
2498.000000	58.317790
2497.000000	58.348944
2496.000000	58.374638
2495.000000	58.393294
2494.000000	58.405247
2493.000000	58.413294
2492.000000	58.419935
2491.000000	58.426236
2490.000000	58.434010
2489.000000	58.446333
2488.000000	58.464748
2487.000000	58.488154
2486.000000	58.515109
2485.000000	58.544854
2484.000000	58.575455
2483.000000	58.603770
2482.000000	58.628356
2481.000000	58.650586
2480.000000	58.672263
2479.000000	58.694188
2478.000000	58.717689
2477.000000	58.744923
2476.000000	58.776743
2475.000000	58.812303
2474.000000	58.851298
2473.000000	58.894753
2472.000000	58.942930
2471.000000	58.994808
2470.000000	59.050144
2469.000000	59.109380
2468.000000	59.171030
2467.000000	59.231290
2466.000000	59.287179
2465.000000	59.338177
2464.000000	59.384414
2463.000000	59.425715
2462.000000	59.463241
2461.000000	59.499842
2460.000000	59.537522
2459.000000	59.576286
2458.000000	59.615567
2457.000000	59.654729
2456.000000	59.691675
2455.000000	59.723154
2454.000000	59.747688
2453.000000	59.766489
2452.000000	59.781324
2451.000000	59.793528
2450.000000	59.805459
2449.000000	59.820686
2448.000000	59.841742
2447.000000	59.869333
2446.000000	59.903952
2445.000000	59.946256
2444.000000	59.995035
2443.000000	60.047011
2442.000000	60.099241
2441.000000	60.150001
2440.000000	60.197257
2439.000000	60.238403
2438.000000	60.272304
2437.000000	60.299710
2436.000000	60.321445
2435.000000	60.337567
2434.000000	60.348729
2433.000000	60.356171
2432.000000	60.359851
2431.000000	60.358855
2430.000000	60.353413
2429.000000	60.344835
2428.000000	60.332995
2427.000000	60.315779
2426.000000	60.291759
2425.000000	60.261015
2424.000000	60.223696
2423.000000	60.180234
2422.000000	60.133601
2421.000000	60.089346
2420.000000	60.052475
2419.000000	60.025931
2418.000000	60.011660
2417.000000	60.010538
2416.000000	60.020154
2415.000000	60.035077
2414.000000	60.049776
2413.000000	60.059604
2412.000000	60.059322
2411.000000	60.043866
2410.000000	60.011613
2409.000000	59.964854
2408.000000	59.906969
2407.000000	59.840646
2406.000000	59.769462
2405.000000	59.697777
2404.000000	59.628238
2403.000000	59.561671
2402.000000	59.499698
2401.000000	59.445308
2400.000000	59.399838
2399.000000	59.361905
2398.000000	59.329215
2397.000000	59.298931
2396.000000	59.266267
2395.000000	59.224466
2394.000000	59.168117
2393.000000	59.095300
2392.000000	59.005444
2391.000000	58.899964
2390.000000	58.782820
2389.000000	58.667889
2388.000000	58.553564
2387.000000	58.466315
2386.000000	58.372023
2385.000000	58.341071
2384.000000	58.209595
2383.000000	57.526125
2382.000000	57.314632
2381.000000	57.013221
2380.000000	56.719229
2379.000000	56.392617
2378.000000	56.066108
2377.000000	55.738576
2376.000000	55.425547
2375.000000	55.129393
2374.000000	54.853819
2373.000000	54.601946
2372.000000	54.373556
2371.000000	54.164949
2370.000000	53.974126
2369.000000	53.804654
2368.000000	53.659585
2367.000000	53.538821
2366.000000	53.445324
2365.000000	53.386463
2364.000000	53.367814
2363.000000	53.387753
2362.000000	53.443603
2361.000000	53.537046
2360.000000	53.667145
2359.000000	53.826765
2358.000000	54.008072
2357.000000	54.208469
2356.000000	54.429282
2355.000000	54.672792
2354.000000	54.945055
2353.000000	55.247359
2352.000000	55.556749
2351.000000	55.818944
2350.000000	55.973584
2349.000000	55.988279
2348.000000	55.876397
2347.000000	55.692721
2346.000000	55.510165
2345.000000	55.386186
2344.000000	55.339110
2343.000000	55.355034
2342.000000	55.411735
2341.000000	55.490825
2340.000000	55.575430
2339.000000	55.650567
2338.000000	55.708281
2337.000000	55.746591
2336.000000	55.763185
2335.000000	55.754652
2334.000000	55.722654
2333.000000	55.676244
2332.000000	55.627696
2331.000000	55.588081
2330.000000	55.565427
2329.000000	55.560738
2328.000000	55.565574
2327.000000	55.568549
2326.000000	55.566320
2325.000000	55.566129
2324.000000	55.578383
2323.000000	55.610538
2322.000000	55.666277
2321.000000	55.745784
2320.000000	55.843594
2319.000000	55.949351
2318.000000	56.051783
2317.000000	56.141171
2316.000000	56.210608
2315.000000	56.258815
2314.000000	56.291955
2313.000000	56.318827
2312.000000	56.346842
2311.000000	56.371034
2310.000000	56.406307
2309.000000	56.426722
2308.000000	56.482917
2307.000000	56.478365
2306.000000	56.617875
2305.000000	57.746196
2304.000000	57.640998
2303.000000	57.649244
2302.000000	57.582403
2301.000000	57.531210
2300.000000	57.439260
2299.000000	57.354634
2298.000000	57.243827
2297.000000	57.140469
2296.000000	57.022927
2295.000000	56.918599
2294.000000	56.819224
2293.000000	56.750577
2292.000000	56.710236
2291.000000	56.707148
2290.000000	56.735860
2289.000000	56.791182
2288.000000	56.862347
2287.000000	56.938612
2286.000000	57.024489
2285.000000	57.128388
2284.000000	57.259841
2283.000000	57.405944
2282.000000	57.554640
2281.000000	57.693840
2280.000000	57.826430
2279.000000	57.949245
2278.000000	58.063042
2277.000000	58.168065
2276.000000	58.264426
2275.000000	58.356266
2274.000000	58.445165
2273.000000	58.538016
2272.000000	58.636399
2271.000000	58.742273
2270.000000	58.856688
2269.000000	58.980131
2268.000000	59.110630
2267.000000	59.246416
2266.000000	59.384450
2265.000000	59.527557
2264.000000	59.672570
2263.000000	59.818522
2262.000000	59.965445
2261.000000	60.111799
2260.000000	60.258404
2259.000000	60.398677
2258.000000	60.532841
2257.000000	60.658470
2256.000000	60.776293
2255.000000	60.885321
2254.000000	60.986499
2253.000000	61.084633
2252.000000	61.180900
2251.000000	61.278349
2250.000000	61.377049
2249.000000	61.479319
2248.000000	61.582427
2247.000000	61.682990
2246.000000	61.776993
2245.000000	61.863487
2244.000000	61.941424
2243.000000	62.010509
2242.000000	62.071873
2241.000000	62.127661
2240.000000	62.178599
2239.000000	62.223039
2238.000000	62.259334
2237.000000	62.285604
2236.000000	62.300227
2235.000000	62.302618
2234.000000	62.296489
2233.000000	62.288388
2232.000000	62.284831
2231.000000	62.290339
2230.000000	62.307828
2229.000000	62.337203
2228.000000	62.373839
2227.000000	62.410958
2226.000000	62.443423
2225.000000	62.468727
2224.000000	62.484770
2223.000000	62.490943
2222.000000	62.489901
2221.000000	62.486821
2220.000000	62.485313
2219.000000	62.486901
2218.000000	62.492976
2217.000000	62.505045
2216.000000	62.522791
2215.000000	62.544598
2214.000000	62.570353
2213.000000	62.601258
2212.000000	62.637368
2211.000000	62.677243
2210.000000	62.720067
2209.000000	62.765239
2208.000000	62.810054
2207.000000	62.850157
2206.000000	62.882397
2205.000000	62.905429
2204.000000	62.917868
2203.000000	62.918834
2202.000000	62.910530
2201.000000	62.898396
2200.000000	62.888277
2199.000000	62.884931
2198.000000	62.892067
2197.000000	62.910722
2196.000000	62.937499
2195.000000	62.966888
2194.000000	62.995927
2193.000000	63.025004
2192.000000	63.055070
2191.000000	63.086794
2190.000000	63.122039
2189.000000	63.163226
2188.000000	63.210613
2187.000000	63.262167
2186.000000	63.315697
2185.000000	63.368996
2184.000000	63.418551
2183.000000	63.460979
2182.000000	63.496066
2181.000000	63.526304
2180.000000	63.553857
2179.000000	63.580010
2178.000000	63.606801
2177.000000	63.636136
2176.000000	63.666997
2175.000000	63.695986
2174.000000	63.720659
2173.000000	63.740432
2172.000000	63.754753
2171.000000	63.763308
2170.000000	63.768181
2169.000000	63.773295
2168.000000	63.781305
2167.000000	63.792813
2166.000000	63.808102
2165.000000	63.827030
2164.000000	63.847402
2163.000000	63.866239
2162.000000	63.882976
2161.000000	63.899480
2160.000000	63.917227
2159.000000	63.936835
2158.000000	63.959987
2157.000000	63.988802
2156.000000	64.022715
2155.000000	64.058009
2154.000000	64.090642
2153.000000	64.117731
2152.000000	64.137054
2151.000000	64.147964
2150.000000	64.153101
2149.000000	64.156943
2148.000000	64.162249
2147.000000	64.169476
2146.000000	64.178678
2145.000000	64.189309
2144.000000	64.198265
2143.000000	64.200920
2142.000000	64.194820
2141.000000	64.181061
2140.000000	64.162507
2139.000000	64.142878
2138.000000	64.127220
2137.000000	64.120322
2136.000000	64.123806
2135.000000	64.136013
2134.000000	64.154179
2133.000000	64.174578
2132.000000	64.191527
2131.000000	64.199446
2130.000000	64.196582
2129.000000	64.185118
2128.000000	64.168159
2127.000000	64.148752
2126.000000	64.131012
2125.000000	64.119076
2124.000000	64.114389
2123.000000	64.116065
2122.000000	64.123673
2121.000000	64.137619
2120.000000	64.157304
2119.000000	64.181348
2118.000000	64.209372
2117.000000	64.241287
2116.000000	64.275042
2115.000000	64.307205
2114.000000	64.335426
2113.000000	64.358138
2112.000000	64.372767
2111.000000	64.377156
2110.000000	64.372724
2109.000000	64.363987
2108.000000	64.355308
2107.000000	64.350071
2106.000000	64.352113
2105.000000	64.364522
2104.000000	64.386498
2103.000000	64.413391
2102.000000	64.439751
2101.000000	64.460641
2100.000000	64.471218
2099.000000	64.468296
2098.000000	64.452714
2097.000000	64.428012
2096.000000	64.397388
2095.000000	64.363928
2094.000000	64.332239
2093.000000	64.306849
2092.000000	64.289650
2091.000000	64.281471
2090.000000	64.285448
2089.000000	64.305642
2088.000000	64.342607
2087.000000	64.392958
2086.000000	64.452979
2085.000000	64.519025
2084.000000	64.584698
2083.000000	64.643133
2082.000000	64.691762
2081.000000	64.731361
2080.000000	64.760324
2079.000000	64.774355
2078.000000	64.772794
2077.000000	64.761087
2076.000000	64.745619
2075.000000	64.728834
2074.000000	64.709680
2073.000000	64.685823
2072.000000	64.654094
2071.000000	64.611715
2070.000000	64.558975
2069.000000	64.498347
2068.000000	64.430888
2067.000000	64.356090
2066.000000	64.276443
2065.000000	64.198638
2064.000000	64.127036
2063.000000	64.060092
2062.000000	63.993506
2061.000000	63.923711
2060.000000	63.848144
2059.000000	63.765698
2058.000000	63.678515
2057.000000	63.591127
2056.000000	63.507230
2055.000000	63.429186
2054.000000	63.360255
2053.000000	63.303698
2052.000000	63.259151
2051.000000	63.222924
2050.000000	63.192296
2049.000000	63.166860
2048.000000	63.145746
2047.000000	63.127594
2046.000000	63.113717
2045.000000	63.106596
2044.000000	63.105123
2043.000000	63.105708
2042.000000	63.108246
2041.000000	63.117157
2040.000000	63.135603
2039.000000	63.163182
2038.000000	63.199909
2037.000000	63.247888
2036.000000	63.308472
2035.000000	63.380919
2034.000000	63.464231
2033.000000	63.556816
2032.000000	63.653916
2031.000000	63.748958
2030.000000	63.837771
2029.000000	63.918844
2028.000000	63.990651
2027.000000	64.052552
2026.000000	64.107970
2025.000000	64.163122
2024.000000	64.222055
2023.000000	64.285949
2022.000000	64.356268
2021.000000	64.433295
2020.000000	64.511594
2019.000000	64.582698
2018.000000	64.644203
2017.000000	64.702416
2016.000000	64.764764
2015.000000	64.833794
2014.000000	64.909184
2013.000000	64.990569
2012.000000	65.076348
2011.000000	65.163678
2010.000000	65.251185
2009.000000	65.338874
2008.000000	65.425391
2007.000000	65.508539
2006.000000	65.588553
2005.000000	65.667856
2004.000000	65.747029
2003.000000	65.824219
2002.000000	65.898243
2001.000000	65.968643
2000.000000	66.033494
1999.000000	66.090143
1998.000000	66.139327
1997.000000	66.186274
1996.000000	66.234438
1995.000000	66.279837
1994.000000	66.315640
1993.000000	66.342236
1992.000000	66.369583
1991.000000	66.407169
1990.000000	66.454822
1989.000000	66.505815
1988.000000	66.555276
1987.000000	66.603279
1986.000000	66.652630
1985.000000	66.706417
1984.000000	66.767245
1983.000000	66.837425
1982.000000	66.918061
1981.000000	67.007801
1980.000000	67.103197
1979.000000	67.198986
1978.000000	67.289469
1977.000000	67.371603
1976.000000	67.446364
1975.000000	67.516240
1974.000000	67.583038
1973.000000	67.649039
1972.000000	67.717385
1971.000000	67.787770
1970.000000	67.852368
1969.000000	67.900055
1968.000000	67.925771
1967.000000	67.934593
1966.000000	67.935409
1965.000000	67.931648
1964.000000	67.920791
1963.000000	67.900148
1962.000000	67.870968
1961.000000	67.838592
1960.000000	67.808728
1959.000000	67.783656
1958.000000	67.762057
1957.000000	67.742651
1956.000000	67.727711
1955.000000	67.722147
1954.000000	67.729802
1953.000000	67.752027
1952.000000	67.788996
1951.000000	67.840499
1950.000000	67.903546
1949.000000	67.970574
1948.000000	68.034168
1947.000000	68.091528
1946.000000	68.140127
1945.000000	68.172052
1944.000000	68.179755
1943.000000	68.170649
1942.000000	68.167946
1941.000000	68.188713
1940.000000	68.229429
1939.000000	68.275860
1938.000000	68.316236
1937.000000	68.344288
1936.000000	68.356620
1935.000000	68.351353
1934.000000	68.329986
1933.000000	68.297700
1932.000000	68.260178
1931.000000	68.223658
1930.000000	68.193601
1929.000000	68.172241
1928.000000	68.160818
1927.000000	68.160650
1926.000000	68.168785
1925.000000	68.173040
1924.000000	68.163245
1923.000000	68.150378
1922.000000	68.157319
1921.000000	68.187161
1920.000000	68.217897
1919.000000	68.229219
1918.000000	68.226387
1917.000000	68.225915
1916.000000	68.226894
1915.000000	68.219390
1914.000000	68.203590
1913.000000	68.185307
1912.000000	68.165259
1911.000000	68.143306
1910.000000	68.126397
1909.000000	68.123138
1908.000000	68.133305
1907.000000	68.149913
1906.000000	68.169472
1905.000000	68.189552
1904.000000	68.205860
1903.000000	68.221135
1902.000000	68.247775
1901.000000	68.296146
1900.000000	68.366507
1899.000000	68.454357
1898.000000	68.555214
1897.000000	68.658608
1896.000000	68.749641
1895.000000	68.825713
1894.000000	68.898391
1893.000000	68.971366
1892.000000	69.030521
1891.000000	69.063237
1890.000000	69.080679
1889.000000	69.108774
1888.000000	69.156352
1887.000000	69.211903
1886.000000	69.265076
1885.000000	69.312358
1884.000000	69.352604
1883.000000	69.389103
1882.000000	69.429382
1881.000000	69.477189
1880.000000	69.529520
1879.000000	69.583051
1878.000000	69.638425
1877.000000	69.693245
1876.000000	69.736183
1875.000000	69.759437
1874.000000	69.769406
1873.000000	69.776175
1872.000000	69.779418
1871.000000	69.772313
1870.000000	69.757317
1869.000000	69.756693
1868.000000	69.793957
1867.000000	69.869399
1866.000000	69.969425
1865.000000	70.076616
1864.000000	70.169910
1863.000000	70.235957
1862.000000	70.279559
1861.000000	70.313565
1860.000000	70.344492
1859.000000	70.376624
1858.000000	70.419850
1857.000000	70.480629
1856.000000	70.551128
1855.000000	70.619479
1854.000000	70.682990
1853.000000	70.743046
1852.000000	70.798062
1851.000000	70.844883
1850.000000	70.885137
1849.000000	70.925338
1848.000000	70.970708
1847.000000	71.021535
1846.000000	71.069251
1845.000000	71.101943
1844.000000	71.129100
1843.000000	71.169178
1842.000000	71.219371
1841.000000	71.272386
1840.000000	71.327147
1839.000000	71.381413
1838.000000	71.434760
1837.000000	71.488636
1836.000000	71.542878
1835.000000	71.597658
1834.000000	71.652877
1833.000000	71.703194
1832.000000	71.735743
1831.000000	71.739085
1830.000000	71.734580
1829.000000	71.763556
1828.000000	71.830814
1827.000000	71.909438
1826.000000	71.981871
1825.000000	72.057468
1824.000000	72.147597
1823.000000	72.239049
1822.000000	72.313139
1821.000000	72.367121
1820.000000	72.404204
1819.000000	72.425219
1818.000000	72.440184
1817.000000	72.469179
1816.000000	72.522388
1815.000000	72.588703
1814.000000	72.649781
1813.000000	72.694614
1812.000000	72.716557
1811.000000	72.715509
1810.000000	72.705137
1809.000000	72.699462
1808.000000	72.698460
1807.000000	72.698959
1806.000000	72.706627
1805.000000	72.722897
1804.000000	72.732263
1803.000000	72.717364
1802.000000	72.683203
1801.000000	72.658185
1800.000000	72.660738
1799.000000	72.684853
1798.000000	72.721538
1797.000000	72.769878
1796.000000	72.828625
1795.000000	72.890975
1794.000000	72.939408
1793.000000	72.954590
1792.000000	72.940315
1791.000000	72.920162
1790.000000	72.912907
1789.000000	72.925943
1788.000000	72.952075
1787.000000	72.978173
1786.000000	73.007468
1785.000000	73.059368
1784.000000	73.138398
1783.000000	73.218905
1782.000000	73.268399
1781.000000	73.281703
1780.000000	73.280025
1779.000000	73.282971
1778.000000	73.293371
1777.000000	73.311227
1776.000000	73.348471
1775.000000	73.417407
1774.000000	73.506550
1773.000000	73.594667
1772.000000	73.685618
1771.000000	73.770364
1770.000000	73.822267
1769.000000	73.850325
1768.000000	73.891172
1767.000000	73.962991
1766.000000	74.048018
1765.000000	74.123779
1764.000000	74.178633
1763.000000	74.200007
1762.000000	74.193636
1761.000000	74.191219
1760.000000	74.200314
1759.000000	74.201619
1758.000000	74.184339
1757.000000	74.172258
1756.000000	74.208425
1755.000000	74.289548
1754.000000	74.374318
1753.000000	74.439482
1752.000000	74.484640
1751.000000	74.515127
1750.000000	74.526373
1749.000000	74.512212
1748.000000	74.495626
1747.000000	74.503952
1746.000000	74.532118
1745.000000	74.567816
1744.000000	74.621161
1743.000000	74.705578
1742.000000	74.810305
1741.000000	74.907787
1740.000000	74.984683
1739.000000	75.046134
1738.000000	75.085604
1737.000000	75.103545
1736.000000	75.106554
1735.000000	75.077102
1734.000000	75.064862
1733.000000	75.122692
1732.000000	75.174380
1731.000000	75.176181
1730.000000	75.166164
1729.000000	75.180039
1728.000000	75.221349
1727.000000	75.272542
1726.000000	75.316102
1725.000000	75.347907
1724.000000	75.374397
1723.000000	75.408037
1722.000000	75.454379
1721.000000	75.505281
1720.000000	75.541428
1719.000000	75.532615
1718.000000	75.494016
1717.000000	75.493747
1716.000000	75.528295
1715.000000	75.561854
1714.000000	75.621589
1713.000000	75.728758
1712.000000	75.848453
1711.000000	75.944144
1710.000000	76.018963
1709.000000	76.083577
1708.000000	76.122505
1707.000000	76.115425
1706.000000	76.088405
1705.000000	76.099577
1704.000000	76.155022
1703.000000	76.239452
1702.000000	76.354585
1701.000000	76.489526
1700.000000	76.669429
1699.000000	76.844928
1698.000000	76.930951
1697.000000	76.962087
1696.000000	77.007863
1695.000000	77.097746
1694.000000	77.175848
1693.000000	77.201539
1692.000000	77.212555
1691.000000	77.239736
1690.000000	77.277233
1689.000000	77.318100
1688.000000	77.378508
1687.000000	77.484245
1686.000000	77.615558
1685.000000	77.685476
1684.000000	77.729652
1683.000000	77.824913
1682.000000	77.890407
1681.000000	77.888022
1680.000000	77.869860
1679.000000	77.872319
1678.000000	77.880001
1677.000000	77.855374
1676.000000	77.798079
1675.000000	77.773786
1674.000000	77.809225
1673.000000	77.851489
1672.000000	77.880893
1671.000000	77.916406
1670.000000	77.962109
1669.000000	78.007306
1668.000000	78.032077
1667.000000	78.023555
1666.000000	77.982270
1665.000000	77.905148
1664.000000	77.789171
1663.000000	77.672143
1662.000000	77.601815
1661.000000	77.560161
1660.000000	77.514632
1659.000000	77.471757
1658.000000	77.428391
1657.000000	77.356549
1656.000000	77.251694
1655.000000	77.085723
1654.000000	76.723542
1653.000000	76.249726
1652.000000	75.846321
1651.000000	75.374023
1650.000000	74.747457
1649.000000	73.939154
1648.000000	72.793418
1647.000000	71.197447
1646.000000	69.248503
1645.000000	67.059057
1644.000000	64.601121
1643.000000	61.795287
1642.000000	58.611177
1641.000000	55.147342
1640.000000	51.679489
1639.000000	48.515822
1638.000000	45.807626
1637.000000	43.582727
1636.000000	42.004458
1635.000000	41.375249
1634.000000	41.703855
1633.000000	42.718351
1632.000000	44.189628
1631.000000	45.983440
1630.000000	47.997596
1629.000000	50.138756
1628.000000	52.310876
1627.000000	54.386501
1626.000000	56.276923
1625.000000	58.018275
1624.000000	59.699633
1623.000000	61.321036
1622.000000	62.776190
1621.000000	64.002815
1620.000000	65.066815
1619.000000	66.071987
1618.000000	67.057746
1617.000000	68.003461
1616.000000	68.851178
1615.000000	69.495284
1614.000000	69.892209
1613.000000	70.110485
1612.000000	70.226162
1611.000000	70.240710
1610.000000	70.095463
1609.000000	69.754750
1608.000000	69.219461
1607.000000	68.462164
1606.000000	67.399337
1605.000000	65.924408
1604.000000	63.942763
1603.000000	61.356255
1602.000000	58.123831
1601.000000	54.411639
1600.000000	50.664694
1599.000000	47.467033
1598.000000	45.234114
1597.000000	44.001614
1596.000000	43.497484
1595.000000	43.386641
1594.000000	43.425688
1593.000000	43.492665
1592.000000	43.561330
1591.000000	43.652731
1590.000000	43.807709
1589.000000	44.051384
1588.000000	44.351116
1587.000000	44.585298
1586.000000	44.594961
1585.000000	44.309087
1584.000000	43.806324
1583.000000	43.218630
1582.000000	42.602906
1581.000000	41.951584
1580.000000	41.264660
1579.000000	40.520950
1578.000000	39.582956
1577.000000	38.237729
1576.000000	36.510072
1575.000000	34.776147
1574.000000	33.324034
1573.000000	32.121065
1572.000000	31.033339
1571.000000	29.990663
1570.000000	29.025047
1569.000000	28.253256
1568.000000	27.786730
1567.000000	27.651086
1566.000000	27.771219
1565.000000	28.035505
1564.000000	28.401967
1563.000000	28.908264
1562.000000	29.593452
1561.000000	30.453192
1560.000000	31.474148
1559.000000	32.687083
1558.000000	33.989676
1557.000000	35.120641
1556.000000	36.046848
1555.000000	36.892618
1554.000000	37.685661
1553.000000	38.368175
1552.000000	38.922991
1551.000000	39.425858
1550.000000	39.970038
1549.000000	40.602997
1548.000000	41.340895
1547.000000	42.208344
1546.000000	43.212248
1545.000000	44.301045
1544.000000	45.408168
1543.000000	46.514315
1542.000000	47.628897
1541.000000	48.725641
1540.000000	49.781074
1539.000000	50.795592
1538.000000	51.704172
1537.000000	52.471094
1536.000000	53.174339
1535.000000	53.903810
1534.000000	54.673133
1533.000000	55.443406
1532.000000	56.180458
1531.000000	56.888638
1530.000000	57.588722
1529.000000	58.270254
1528.000000	58.913344
1527.000000	59.527109
1526.000000	60.120730
1525.000000	60.672085
1524.000000	61.163035
1523.000000	61.598785
1522.000000	61.976166
1521.000000	62.309210
1520.000000	62.629663
1519.000000	62.950705
1518.000000	63.275229
1517.000000	63.604399
1516.000000	63.957848
1515.000000	64.347325
1514.000000	64.746043
1513.000000	65.119622
1512.000000	65.449616
1511.000000	65.740733
1510.000000	66.002987
1509.000000	66.232790
1508.000000	66.403500
1507.000000	66.571788
1506.000000	66.891214
1505.000000	67.299779
1504.000000	67.644919
1503.000000	67.937863
1502.000000	68.229004
1501.000000	68.515954
1500.000000	68.780958
1499.000000	69.023964
1498.000000	69.244637
1497.000000	69.443413
1496.000000	69.644656
1495.000000	69.865973
1494.000000	70.084853
1493.000000	70.275985
1492.000000	70.438526
1491.000000	70.581677
1490.000000	70.720089
1489.000000	70.874319
1488.000000	71.055454
1487.000000	71.262808
1486.000000	71.463926
1485.000000	71.593003
1484.000000	71.610093
1483.000000	71.500624
1482.000000	71.233982
1481.000000	70.785885
1480.000000	70.172296
1479.000000	69.384583
1478.000000	68.319260
1477.000000	66.872623
1476.000000	65.082879
1475.000000	63.063574
1474.000000	60.823497
1473.000000	58.392290
1472.000000	56.086003
1471.000000	54.277785
1470.000000	53.030097
1469.000000	52.217844
1468.000000	51.776073
1467.000000	51.731008
1466.000000	52.125455
1465.000000	52.930427
1464.000000	53.982691
1463.000000	55.019077
1462.000000	55.825750
1461.000000	56.313945
1460.000000	56.461861
1459.000000	56.221691
1458.000000	55.494932
1457.000000	54.386726
1456.000000	53.319628
1455.000000	52.557379
1454.000000	52.018596
1453.000000	51.559032
1452.000000	51.106599
1451.000000	50.620802
1450.000000	50.038331
1449.000000	49.312146
1448.000000	48.522794
1447.000000	47.900576
1446.000000	47.678282
1445.000000	47.971971
1444.000000	48.777010
1443.000000	49.986710
1442.000000	51.436148
1441.000000	52.977034
1440.000000	54.523381
1439.000000	56.049678
1438.000000	57.567767
1437.000000	59.078489
1436.000000	60.517635
1435.000000	61.778819
1434.000000	62.851167
1433.000000	63.824655
1432.000000	64.749265
1431.000000	65.593409
1430.000000	66.322417
1429.000000	66.949156
1428.000000	67.489070
1427.000000	67.939222
1426.000000	68.305136
1425.000000	68.612684
1424.000000	68.896348
1423.000000	69.176785
1422.000000	69.463442
1421.000000	69.755897
1420.000000	70.026740
1419.000000	70.258481
1418.000000	70.487063
1417.000000	70.748431
1416.000000	71.041302
1415.000000	71.344669
1414.000000	71.636655
1413.000000	71.906154
1412.000000	72.144895
1411.000000	72.343143
1410.000000	72.507108
1409.000000	72.659313
1408.000000	72.808077
1407.000000	72.946676
1406.000000	73.079274
1405.000000	73.230360
1404.000000	73.415293
1403.000000	73.604693
1402.000000	73.735288
1401.000000	73.727298
1400.000000	73.502976
1399.000000	73.065447
1398.000000	72.546633
1397.000000	72.113531
1396.000000	71.858871
1395.000000	71.783485
1394.000000	71.817724
1393.000000	71.874395
1392.000000	71.921178
1391.000000	72.000129
1390.000000	72.178950
1389.000000	72.497847
1388.000000	72.955886
1387.000000	73.523922
1386.000000	74.147505
1385.000000	74.754071
1384.000000	75.284688
1383.000000	75.714575
1382.000000	76.057031
1381.000000	76.341260
1380.000000	76.580184
1379.000000	76.763708
1378.000000	76.866453
1377.000000	76.826704
1376.000000	76.490460
1375.000000	75.585504
1374.000000	73.776290
1373.000000	70.801159
1372.000000	66.628339
1371.000000	61.593757
1370.000000	56.478331
1369.000000	52.383202
1368.000000	50.246216
1367.000000	50.254402
1366.000000	51.775902
1365.000000	53.832969
1364.000000	55.553401
1363.000000	56.399734
1362.000000	56.311696
1361.000000	55.735086
1360.000000	55.397436
1359.000000	55.932468
1358.000000	57.571676
1357.000000	60.048224
1356.000000	62.802913
1355.000000	65.332919
1354.000000	67.406300
1353.000000	69.035397
1352.000000	70.321912
1351.000000	71.360382
1350.000000	72.223161
1349.000000	72.960872
1348.000000	73.599430
1347.000000	74.154597
1346.000000	74.648318
1345.000000	75.100935
1344.000000	75.518059
1343.000000	75.892750
1342.000000	76.220585
1341.000000	76.501846
1340.000000	76.739046
1339.000000	76.945651
1338.000000	77.143909
1337.000000	77.348127
1336.000000	77.554241
1335.000000	77.746056
1334.000000	77.900425
1333.000000	77.965313
1332.000000	77.841082
1331.000000	77.401537
1330.000000	76.546828
1329.000000	75.246356
1328.000000	73.515350
1327.000000	71.365304
1326.000000	68.811111
1325.000000	65.980028
1324.000000	63.242780
1323.000000	61.146526
1322.000000	60.084644
1321.000000	59.987652
1320.000000	60.366135
1319.000000	60.690143
1318.000000	60.768140
1317.000000	60.776560
1316.000000	60.979829
1315.000000	61.476122
1314.000000	62.179874
1313.000000	62.996249
1312.000000	63.954066
1311.000000	65.153222
1310.000000	66.609312
1309.000000	68.175755
1308.000000	69.621063
1307.000000	70.764812
1306.000000	71.541036
1305.000000	71.953417
1304.000000	72.010718
1303.000000	71.707604
1302.000000	71.039832
1301.000000	70.038661
1300.000000	68.812269
1299.000000	67.570299
1298.000000	66.553897
1297.000000	65.878529
1296.000000	65.440041
1295.000000	64.993966
1294.000000	64.346396
1293.000000	63.470373
1292.000000	62.453407
1291.000000	61.347926
1290.000000	60.075478
1289.000000	58.495896
1288.000000	56.594344
1287.000000	54.614944
1286.000000	52.982757
1285.000000	52.064315
1284.000000	51.980455
1283.000000	52.609595
1282.000000	53.741032
1281.000000	55.204003
1280.000000	56.856596
1279.000000	58.475804
1278.000000	59.707479
1277.000000	60.183207
1276.000000	59.735753
1275.000000	58.548205
1274.000000	57.123009
1273.000000	56.082513
1272.000000	55.910986
1271.000000	56.768561
1270.000000	58.478722
1269.000000	60.674632
1268.000000	62.983361
1267.000000	65.144534
1266.000000	67.030249
1265.000000	68.616846
1264.000000	69.943732
1263.000000	71.069430
1262.000000	72.041357
1261.000000	72.890537
1260.000000	73.636376
1259.000000	74.287397
1258.000000	74.848686
1257.000000	75.323464
1256.000000	75.716702
1255.000000	76.040927
1254.000000	76.316039
1253.000000	76.566963
1252.000000	76.816415
1251.000000	77.081828
1250.000000	77.374196
1249.000000	77.693712
1248.000000	78.028742
1247.000000	78.360806
1246.000000	78.671955
1245.000000	78.948128
1244.000000	79.179411
1243.000000	79.364077
1242.000000	79.510328
1241.000000	79.630163
1240.000000	79.732418
1239.000000	79.821669
1238.000000	79.901025
1237.000000	79.968514
1236.000000	80.013404
1235.000000	80.022961
1234.000000	79.988988
1233.000000	79.907361
1232.000000	79.773387
1231.000000	79.582618
1230.000000	79.335296
1229.000000	79.027740
1228.000000	78.645798
1227.000000	78.167344
1226.000000	77.565426
1225.000000	76.811600
1224.000000	75.868338
1223.000000	74.694590
1222.000000	73.252917
1221.000000	71.508383
1220.000000	69.446250
1219.000000	67.086962
1218.000000	64.494123
1217.000000	61.769163
1216.000000	59.041832
1215.000000	56.458748
1214.000000	54.161583
1213.000000	52.264856
1212.000000	50.849723
1211.000000	49.966646
1210.000000	49.608736
1209.000000	49.711225
1208.000000	50.172051
1207.000000	50.856285
1206.000000	51.602507
1205.000000	52.236676
1204.000000	52.614211
1203.000000	52.658726
1202.000000	52.376842
1201.000000	51.865143
1200.000000	51.302785
1199.000000	50.912228
1198.000000	50.884293
1197.000000	51.310387
1196.000000	52.175037
1195.000000	53.386664
1194.000000	54.824527
1193.000000	56.383601
1192.000000	57.992231
1191.000000	59.611399
1190.000000	61.215100
1189.000000	62.778263
1188.000000	64.277428
1187.000000	65.690906
1186.000000	66.997574
1185.000000	68.181738
1184.000000	69.239197
1183.000000	70.173687
1182.000000	70.995453
1181.000000	71.716285
1180.000000	72.352466
1179.000000	72.928705
1178.000000	73.466173
1177.000000	73.971882
1176.000000	74.430756
1175.000000	74.813184
1174.000000	75.087644
1173.000000	75.217084
1172.000000	75.162811
1171.000000	74.884792
1170.000000	74.343579
1169.000000	73.504769
1168.000000	72.344183
1167.000000	70.881609
1166.000000	69.211214
1165.000000	67.506481
1164.000000	65.994804
1163.000000	64.903401
1162.000000	64.380663
1161.000000	64.447981
1160.000000	65.013485
1159.000000	65.915822
1158.000000	66.985260
1157.000000	68.078329
1156.000000	69.094255
1155.000000	69.978039
1154.000000	70.706216
1153.000000	71.269956
1152.000000	71.664185
1151.000000	71.885654
1150.000000	71.927251
1149.000000	71.780004
1148.000000	71.420718
1147.000000	70.813069
1146.000000	69.909364
1145.000000	68.635307
1144.000000	66.907864
1143.000000	64.653696
1142.000000	61.849260
1141.000000	58.569897
1140.000000	55.012025
1139.000000	51.468818
1138.000000	48.217871
1137.000000	45.396893
1136.000000	42.967648
1135.000000	40.799147
1134.000000	38.791360
1133.000000	37.003507
1132.000000	35.696239
1131.000000	35.216968
1130.000000	35.812403
1129.000000	37.456642
1128.000000	39.832410
1127.000000	42.423737
1126.000000	44.628445
1125.000000	45.874474
1124.000000	45.761602
1123.000000	44.217966
1122.000000	41.584507
1121.000000	38.506707
1120.000000	35.615805
1119.000000	33.238827
1118.000000	31.381696
1117.000000	30.005757
1116.000000	29.293212
1115.000000	29.609232
1114.000000	31.175859
1113.000000	33.815848
1112.000000	36.993501
1111.000000	40.027088
1110.000000	42.348684
1109.000000	43.710039
1108.000000	44.241263
1107.000000	44.285201
1106.000000	44.116620
1105.000000	43.801606
1104.000000	43.346523
1103.000000	42.907594
1102.000000	42.721459
1101.000000	42.830225
1100.000000	42.976217
1099.000000	42.868626
1098.000000	42.563120
1097.000000	42.534737
1096.000000	43.334239
1095.000000	45.183696
1094.000000	47.855446
1093.000000	50.871787
1092.000000	53.801215
1091.000000	56.400458
1090.000000	58.605619
1089.000000	60.457763
1088.000000	62.031207
1087.000000	63.392175
1086.000000	64.594059
1085.000000	65.679448
1084.000000	66.673262
1083.000000	67.589214
1082.000000	68.433864
1081.000000	69.214283
1080.000000	69.935056
1079.000000	70.588754
1078.000000	71.165027
1077.000000	71.643562
1076.000000	71.986228
1075.000000	72.136515
1074.000000	72.014847
1073.000000	71.532785
1072.000000	70.563657
1071.000000	68.935612
1070.000000	66.447676
1069.000000	62.876855
1068.000000	58.075657
1067.000000	52.111311
1066.000000	45.416346
1065.000000	38.807600
1064.000000	33.253038
1063.000000	29.438121
1062.000000	27.373968
1061.000000	26.367937
1060.000000	25.439392
1059.000000	23.929486
1058.000000	21.831823
1057.000000	19.719471
1056.000000	18.354283
1055.000000	18.234869
1054.000000	19.434307
1053.000000	21.696391
1052.000000	24.659421
1051.000000	27.994421
1050.000000	31.412332
1049.000000	34.700208
1048.000000	37.747653
1047.000000	40.529237
1046.000000	43.051505
1045.000000	45.320721
1044.000000	47.342548
1043.000000	49.127654
1042.000000	50.690891
1041.000000	52.047763
1040.000000	53.228365
1039.000000	54.265809
1038.000000	55.184342
1037.000000	55.999737
1036.000000	56.721883
1035.000000	57.362163
1034.000000	57.925440
1033.000000	58.412246
1032.000000	58.829649
1031.000000	59.190682
1030.000000	59.510975
1029.000000	59.804185
1028.000000	60.083292
1027.000000	60.358779
1026.000000	60.628018
1025.000000	60.875769
1024.000000	61.080778
1023.000000	61.219788
1022.000000	61.269438
1021.000000	61.201778
1020.000000	60.991371
1019.000000	60.609358
1018.000000	60.008626
1017.000000	59.127639
1016.000000	57.896613
1015.000000	56.271621
1014.000000	54.265765
1013.000000	51.974328
1012.000000	49.577320
1011.000000	47.264534
1010.000000	45.125097
1009.000000	43.105694
1008.000000	41.121396
1007.000000	39.231826
1006.000000	37.735426
1005.000000	37.060046
1004.000000	37.520936
1003.000000	39.117980
1002.000000	41.491654
1001.000000	44.091139
1000.000000	46.386698
999.000000	47.996453
998.000000	48.732100
997.000000	48.621526
996.000000	47.925086
995.000000	47.081947
994.000000	46.556784
993.000000	46.664027
992.000000	47.483922
991.000000	48.891107
990.000000	50.644309
989.000000	52.490547
988.000000	54.246600
987.000000	55.820507
986.000000	57.194423
985.000000	58.390576
984.000000	59.440448
983.000000	60.369098
982.000000	61.195255
981.000000	61.933809
980.000000	62.596777
979.000000	63.198938
978.000000	63.753276
977.000000	64.269450
976.000000	64.751705
975.000000	65.198638
974.000000	65.607983
973.000000	65.975767
972.000000	66.299063
971.000000	66.580600
970.000000	66.830769
969.000000	67.065758
968.000000	67.301481
967.000000	67.551060
966.000000	67.823161
965.000000	68.117756
964.000000	68.424254
963.000000	68.724862
962.000000	69.001910
961.000000	69.242651
960.000000	69.440577
959.000000	69.598475
958.000000	69.729951
957.000000	69.855315
956.000000	69.993886
955.000000	70.158790
954.000000	70.355666
953.000000	70.581080
952.000000	70.822618
951.000000	71.064473
950.000000	71.294308
949.000000	71.504735
948.000000	71.691302
947.000000	71.853743
946.000000	71.998413
945.000000	72.134411
944.000000	72.267484
943.000000	72.399515
942.000000	72.532557
941.000000	72.669827
940.000000	72.813256
939.000000	72.964425
938.000000	73.127091
937.000000	73.304417
936.000000	73.493741
935.000000	73.687149
934.000000	73.875981
933.000000	74.050731
932.000000	74.198859
931.000000	74.310476
930.000000	74.387148
929.000000	74.442178
928.000000	74.492894
927.000000	74.556268
926.000000	74.648933
925.000000	74.782132
924.000000	74.953769
923.000000	75.149228
922.000000	75.350437
921.000000	75.540370
920.000000	75.702037
919.000000	75.823049
918.000000	75.904408
917.000000	75.959262
916.000000	76.003036
915.000000	76.049360
914.000000	76.112387
913.000000	76.203736
912.000000	76.322091
911.000000	76.453365
910.000000	76.576829
909.000000	76.662368
908.000000	76.661186
907.000000	76.502801
906.000000	76.113034
905.000000	75.432111
904.000000	74.439065
903.000000	73.199374
902.000000	71.902927
901.000000	70.832124
900.000000	70.247206
899.000000	70.258007
898.000000	70.777404
897.000000	71.595984
896.000000	72.498468
895.000000	73.343600
894.000000	74.066592
893.000000	74.614752
892.000000	74.901881
891.000000	74.850736
890.000000	74.505425
889.000000	74.081798
888.000000	73.858402
887.000000	73.980625
886.000000	74.355742
885.000000	74.735728
884.000000	74.903927
883.000000	74.803425
882.000000	74.527547
881.000000	74.214468
880.000000	73.932006
879.000000	73.641270
878.000000	73.270256
877.000000	72.834697
876.000000	72.490078
875.000000	72.441202
874.000000	72.790139
873.000000	73.464147
872.000000	74.281742
871.000000	75.075121
870.000000	75.759903
869.000000	76.328041
868.000000	76.804230
867.000000	77.214510
866.000000	77.573236
865.000000	77.883067
864.000000	78.139772
863.000000	78.340655
862.000000	78.487851
861.000000	78.586211
860.000000	78.646147
859.000000	78.686643
858.000000	78.733028
857.000000	78.806838
856.000000	78.918682
855.000000	79.069958
854.000000	79.254461
853.000000	79.456031
852.000000	79.649562
851.000000	79.810357
850.000000	79.923788
849.000000	79.986797
848.000000	80.006437
847.000000	80.000427
846.000000	79.993977
845.000000	80.010303
844.000000	80.063667
843.000000	80.160749
842.000000	80.301959
841.000000	80.476941
840.000000	80.663548
839.000000	80.838795
838.000000	80.991004
837.000000	81.118844
836.000000	81.222443
835.000000	81.301507
834.000000	81.359269
833.000000	81.402164
832.000000	81.436725
831.000000	81.471194
830.000000	81.518738
829.000000	81.594047
828.000000	81.707222
827.000000	81.863018
826.000000	82.061358
825.000000	82.291368
824.000000	82.527422
823.000000	82.737794
822.000000	82.897976
821.000000	82.992920
820.000000	83.015123
819.000000	82.969865
818.000000	82.877024
817.000000	82.759368
816.000000	82.621228
815.000000	82.437783
814.000000	82.152633
813.000000	81.682216
812.000000	80.952386
811.000000	79.964646
810.000000	78.844401
809.000000	77.804542
808.000000	77.032124
807.000000	76.586761
806.000000	76.381296
805.000000	76.242580
804.000000	75.996530
803.000000	75.517779
802.000000	74.734750
801.000000	73.604994
800.000000	72.097513
799.000000	70.203171
798.000000	67.949079
797.000000	65.407759
796.000000	62.686915
795.000000	59.915484
794.000000	57.229651
793.000000	54.762948
792.000000	52.640410
791.000000	50.970216
790.000000	49.833285
789.000000	49.267792
788.000000	49.268430
787.000000	49.779246
786.000000	50.699360
785.000000	51.902703
784.000000	53.250626
783.000000	54.604052
782.000000	55.829567
781.000000	56.814249
780.000000	57.480243
779.000000	57.798546
778.000000	57.795151
777.000000	57.540508
776.000000	57.119620
775.000000	56.601904
774.000000	56.041138
773.000000	55.500600
772.000000	55.078277
771.000000	54.899043
770.000000	55.077834
769.000000	55.673441
768.000000	56.663857
767.000000	57.954509
766.000000	59.416067
765.000000	60.930677
764.000000	62.414162
763.000000	63.819641
762.000000	65.131131
761.000000	66.353098
760.000000	67.495895
759.000000	68.566746
758.000000	69.571925
757.000000	70.518581
756.000000	71.410873
755.000000	72.246832
754.000000	73.023846
753.000000	73.740623
752.000000	74.392276
751.000000	74.969637
750.000000	75.465974
749.000000	75.884177
748.000000	76.235115
747.000000	76.536311
746.000000	76.815854
745.000000	77.108351
744.000000	77.439644
743.000000	77.814762
742.000000	78.218900
741.000000	78.623192
740.000000	78.987331
739.000000	79.266264
738.000000	79.424526
737.000000	79.445942
736.000000	79.332708
735.000000	79.102064
734.000000	78.784581
733.000000	78.417417
732.000000	78.032616
731.000000	77.656689
730.000000	77.316055
729.000000	77.033637
728.000000	76.825891
727.000000	76.685960
726.000000	76.572217
725.000000	76.431985
724.000000	76.227199
723.000000	75.923555
722.000000	75.451330
721.000000	74.703935
720.000000	73.607518
719.000000	72.191559
718.000000	70.574986
717.000000	68.906674
716.000000	67.341844
715.000000	66.048778
714.000000	65.189902
713.000000	64.866009
712.000000	65.072716
711.000000	65.711925
710.000000	66.650071
709.000000	67.758184
708.000000	68.925532
707.000000	70.070989
706.000000	71.149178
705.000000	72.156266
704.000000	73.111584
703.000000	74.031840
702.000000	74.938023
701.000000	75.847925
700.000000	76.751606
699.000000	77.614423
698.000000	78.386616
697.000000	79.030800
696.000000	79.526187
695.000000	79.860859
694.000000	80.065070
693.000000	80.204965
692.000000	80.349045
691.000000	80.549652
690.000000	80.830177
689.000000	81.201632
688.000000	81.649676
687.000000	82.118666
686.000000	82.546756
685.000000	82.887744
684.000000	83.111080
683.000000	83.209930
682.000000	83.213047
681.000000	83.175854
680.000000	83.150538
679.000000	83.150308
678.000000	83.202326
677.000000	83.316543
676.000000	83.462564
675.000000	83.658359
674.000000	83.865453
673.000000	83.926139
672.000000	83.609181
671.000000	82.781453
670.000000	81.685837
669.000000	80.482272
668.000000	79.121844
667.000000	78.952338
666.000000	80.650651
665.000000	82.619224
664.000000	83.805014
663.000000	84.164240
662.000000	84.182275
661.000000	84.242457
660.000000	84.439804
659.000000	84.703297
658.000000	84.989990
657.000000	85.248628
656.000000	85.382895
655.000000	85.373707
654.000000	85.227062
653.000000	84.976259
652.000000	84.689687
651.000000	84.450794
650.000000	84.311913
649.000000	84.268561
648.000000	84.312389
647.000000	84.448306
646.000000	84.647960
645.000000	84.838247
644.000000	84.936781
643.000000	84.899667
642.000000	84.733645
641.000000	84.466544
640.000000	84.141931
639.000000	83.824329
638.000000	83.565207
637.000000	83.378966
636.000000	83.259742
635.000000	83.194270
634.000000	83.161898
633.000000	83.131203
632.000000	83.075147
631.000000	82.988508
630.000000	82.877113
629.000000	82.734949
628.000000	82.551543
627.000000	82.319165
626.000000	82.027461
625.000000	81.674796
624.000000	81.270569
623.000000	80.839802
622.000000	80.424058
621.000000	80.073680
620.000000	79.822416
619.000000	79.649977
618.000000	79.473829
617.000000	79.204134
616.000000	78.809060
615.000000	78.299711
614.000000	77.666987
613.000000	76.876402
612.000000	75.925309
611.000000	74.872260
610.000000	73.790208
609.000000	72.711974
608.000000	71.643066
607.000000	70.579700
606.000000	69.482865
605.000000	68.277064
604.000000	66.896808
603.000000	65.330882
602.000000	63.597851
601.000000	61.711813
600.000000	59.706478
599.000000	57.658051
598.000000	55.633217
597.000000	53.636730
596.000000	51.652111
595.000000	49.687444
594.000000	47.727951
593.000000	45.689413
592.000000	43.499448
591.000000	41.214456
590.000000	39.020709
589.000000	37.154823
588.000000	35.825382
587.000000	35.109026
586.000000	34.830419
585.000000	34.619980
584.000000	34.189758
583.000000	33.506193
582.000000	32.689196
581.000000	31.862763
580.000000	31.158291
579.000000	30.749729
578.000000	30.756861
577.000000	31.170817
576.000000	31.918656
575.000000	32.911475
574.000000	33.993759
573.000000	34.950826
572.000000	35.661119
571.000000	36.199726
570.000000	36.754185
569.000000	37.480386
568.000000	38.454753
567.000000	39.673587
566.000000	41.028531
565.000000	42.349634
564.000000	43.532101
563.000000	44.582649
562.000000	45.533443
561.000000	46.380305
560.000000	47.130603
559.000000	47.835940
558.000000	48.532979
557.000000	49.205173
556.000000	49.836034
555.000000	50.453192
554.000000	51.080169
553.000000	51.699535
552.000000	52.301687
551.000000	52.921376
550.000000	53.588253
549.000000	54.282683
548.000000	54.974864
547.000000	55.662669
546.000000	56.338314
545.000000	56.960976
544.000000	57.497915
543.000000	57.959704
542.000000	58.372455
541.000000	58.749111
540.000000	59.113830
539.000000	59.514376
538.000000	59.977946
537.000000	60.481061
536.000000	60.984677
535.000000	61.469865
534.000000	61.917570
533.000000	62.293640
532.000000	62.577114
531.000000	62.781304
530.000000	62.925829
529.000000	63.003439
528.000000	62.989166
527.000000	62.869347
526.000000	62.629069
525.000000	62.237844
524.000000	61.676698
523.000000	60.965651
522.000000	60.159879
521.000000	59.315608
520.000000	58.460964
519.000000	57.558883
518.000000	56.468298
517.000000	54.999808
516.000000	53.064305
515.000000	50.773774
514.000000	48.389436
513.000000	46.211804
512.000000	44.520954
511.000000	43.543056
510.000000	43.372353
509.000000	43.943636
508.000000	45.129532
507.000000	46.785471
506.000000	48.713768
505.000000	50.694453
504.000000	52.589807
503.000000	54.369302
502.000000	56.015673
501.000000	57.489398
500.000000	58.790714
499.000000	59.982504
498.000000	61.116957
497.000000	62.192320
496.000000	63.189524
495.000000	64.107127
494.000000	64.951859
493.000000	65.721076
492.000000	66.426216
491.000000	67.101879
490.000000	67.764587
489.000000	68.396265
488.000000	68.970001
487.000000	69.473983
486.000000	69.896525
485.000000	70.215474
484.000000	70.429378
483.000000	70.569567
482.000000	70.662525
481.000000	70.695839
480.000000	70.627520
479.000000	70.402875
478.000000	69.941929
477.000000	69.176503
476.000000	68.133479
475.000000	66.945040
474.000000	65.756886
473.000000	64.658971
472.000000	63.716886
471.000000	63.005796
470.000000	62.573836
469.000000	62.434462
468.000000	62.609810
467.000000	63.075665
466.000000	63.621421
465.000000	63.875015
464.000000	63.533881
463.000000	62.594060
462.000000	61.402594
461.000000	60.481707
460.000000	60.299543
459.000000	61.121597
458.000000	62.864244
457.000000	65.047740
456.000000	67.113769
455.000000	68.807559
454.000000	70.135806
453.000000	71.148999
452.000000	71.888517
451.000000	72.426471
450.000000	72.800551
449.000000	72.946179
448.000000	72.743973
447.000000	72.117565
446.000000	71.093986
445.000000	69.816440
444.000000	68.561538
443.000000	67.694235
442.000000	67.471479
441.000000	67.871707
440.000000	68.690107
439.000000	69.712146
438.000000	70.747466
437.000000	71.620875
436.000000	72.226176
435.000000	72.574759
434.000000	72.737111
433.000000	72.769536
432.000000	72.733079
431.000000	72.728957
430.000000	72.838360
429.000000	73.041755
428.000000	73.255513
427.000000	73.404956
426.000000	73.421393
425.000000	73.226995
424.000000	72.817694
423.000000	72.340285
422.000000	71.966714
421.000000	71.732148
420.000000	71.589454
419.000000	71.572112
418.000000	71.742199
417.000000	71.992381
416.000000	72.163090
415.000000	72.223873
414.000000	72.205001
413.000000	72.116567
412.000000	71.995023
411.000000	71.941804
410.000000	72.026949
409.000000	72.173878
408.000000	72.260473
407.000000	72.286988
406.000000	72.336258
405.000000	72.423862
404.000000	72.523004
403.000000	72.681190
402.000000	72.978576
401.000000	73.418126
400.000000	73.918666
