PE IR       SUBTECH     SPECTRUM    ASCII       PEDS        4.00        
   -1
23ms029-cis.asc
24/10/21
16:12:26.00
24/10/21
16:12:26.00
Administrator
Sample 1322 By Administrator Date Monday, October 21 2024
400.000000
#HDR
-1
-1
#GR
cm-1
%T
1.0
0.0
4000.000000
-1.000000
3601
8
89.815230
12.089039
#DATA
4000.000000	70.388865
3999.000000	70.377702
3998.000000	70.368882
3997.000000	70.362589
3996.000000	70.358349
3995.000000	70.355337
3994.000000	70.353675
3993.000000	70.354534
3992.000000	70.358344
3991.000000	70.363635
3990.000000	70.368418
3989.000000	70.372571
3988.000000	70.378251
3987.000000	70.387865
3986.000000	70.402407
3985.000000	70.421639
3984.000000	70.444919
3983.000000	70.471504
3982.000000	70.500344
3981.000000	70.530395
3980.000000	70.561179
3979.000000	70.592942
3978.000000	70.626237
3977.000000	70.661202
3976.000000	70.697333
3975.000000	70.733731
3974.000000	70.769433
3973.000000	70.803853
3972.000000	70.836810
3971.000000	70.868190
3970.000000	70.897715
3969.000000	70.925163
3968.000000	70.951355
3967.000000	70.978207
3966.000000	71.008066
3965.000000	71.042782
3964.000000	71.082772
3963.000000	71.126690
3962.000000	71.172273
3961.000000	71.217926
3960.000000	71.263657
3959.000000	71.310065
3958.000000	71.356814
3957.000000	71.402671
3956.000000	71.447187
3955.000000	71.490684
3954.000000	71.533493
3953.000000	71.575869
3952.000000	71.618221
3951.000000	71.661234
3950.000000	71.704489
3949.000000	71.745764
3948.000000	71.782646
3947.000000	71.815703
3946.000000	71.849181
3945.000000	71.886498
3944.000000	71.925252
3943.000000	71.959016
3942.000000	71.985783
3941.000000	72.011861
3940.000000	72.044147
3939.000000	72.081400
3938.000000	72.116455
3937.000000	72.145708
3936.000000	72.174259
3935.000000	72.208945
3934.000000	72.250022
3933.000000	72.291263
3932.000000	72.326671
3931.000000	72.355544
3930.000000	72.379440
3929.000000	72.399793
3928.000000	72.418329
3927.000000	72.437007
3926.000000	72.455537
3925.000000	72.469682
3924.000000	72.478132
3923.000000	72.487453
3922.000000	72.503690
3921.000000	72.524055
3920.000000	72.542387
3919.000000	72.558268
3918.000000	72.575466
3917.000000	72.593037
3916.000000	72.606671
3915.000000	72.616581
3914.000000	72.627583
3913.000000	72.640723
3912.000000	72.652456
3911.000000	72.661011
3910.000000	72.670660
3909.000000	72.686309
3908.000000	72.711088
3907.000000	72.743833
3906.000000	72.779631
3905.000000	72.811319
3904.000000	72.835169
3903.000000	72.859786
3902.000000	72.899214
3901.000000	72.953669
3900.000000	73.004344
3899.000000	73.033163
3898.000000	73.043454
3897.000000	73.053650
3896.000000	73.074986
3895.000000	73.106202
3894.000000	73.144243
3893.000000	73.187099
3892.000000	73.228575
3891.000000	73.258685
3890.000000	73.283424
3889.000000	73.323035
3888.000000	73.384442
3887.000000	73.446447
3886.000000	73.479329
3885.000000	73.482327
3884.000000	73.492298
3883.000000	73.538678
3882.000000	73.604323
3881.000000	73.646707
3880.000000	73.645796
3879.000000	73.624130
3878.000000	73.619432
3877.000000	73.641847
3876.000000	73.668904
3875.000000	73.674665
3874.000000	73.659431
3873.000000	73.653851
3872.000000	73.685717
3871.000000	73.742339
3870.000000	73.780893
3869.000000	73.787356
3868.000000	73.799856
3867.000000	73.847787
3866.000000	73.907570
3865.000000	73.937303
3864.000000	73.933456
3863.000000	73.930183
3862.000000	73.948151
3861.000000	73.973356
3860.000000	73.991592
3859.000000	74.006646
3858.000000	74.032691
3857.000000	74.076763
3856.000000	74.136888
3855.000000	74.201870
3854.000000	74.246467
3853.000000	74.254433
3852.000000	74.257710
3851.000000	74.291292
3850.000000	74.337447
3849.000000	74.360317
3848.000000	74.352254
3847.000000	74.335221
3846.000000	74.331902
3845.000000	74.345170
3844.000000	74.366339
3843.000000	74.390434
3842.000000	74.422155
3841.000000	74.468158
3840.000000	74.524683
3839.000000	74.574082
3838.000000	74.606254
3837.000000	74.628928
3836.000000	74.656853
3835.000000	74.693532
3834.000000	74.728636
3833.000000	74.750273
3832.000000	74.754890
3831.000000	74.750948
3830.000000	74.755527
3829.000000	74.778257
3828.000000	74.810913
3827.000000	74.835885
3826.000000	74.846907
3825.000000	74.860963
3824.000000	74.902035
3823.000000	74.968105
3822.000000	75.026092
3821.000000	75.046346
3820.000000	75.049777
3819.000000	75.086500
3818.000000	75.161800
3817.000000	75.226341
3816.000000	75.235122
3815.000000	75.204186
3814.000000	75.190743
3813.000000	75.216076
3812.000000	75.247774
3811.000000	75.257942
3810.000000	75.259214
3809.000000	75.279292
3808.000000	75.318643
3807.000000	75.350415
3806.000000	75.368037
3805.000000	75.403647
3804.000000	75.475523
3803.000000	75.553242
3802.000000	75.588451
3801.000000	75.571760
3800.000000	75.555989
3799.000000	75.588706
3798.000000	75.648749
3797.000000	75.684088
3796.000000	75.676734
3795.000000	75.656499
3794.000000	75.657690
3793.000000	75.681800
3792.000000	75.706530
3791.000000	75.719745
3790.000000	75.728761
3789.000000	75.744183
3788.000000	75.768116
3787.000000	75.797134
3786.000000	75.826547
3785.000000	75.851557
3784.000000	75.870685
3783.000000	75.890209
3782.000000	75.917955
3781.000000	75.950576
3780.000000	75.975468
3779.000000	75.986776
3778.000000	75.995834
3777.000000	76.016240
3776.000000	76.045637
3775.000000	76.069707
3774.000000	76.084234
3773.000000	76.102177
3772.000000	76.136062
3771.000000	76.178927
3770.000000	76.213751
3769.000000	76.241452
3768.000000	76.281537
3767.000000	76.338848
3766.000000	76.392300
3765.000000	76.421214
3764.000000	76.433013
3763.000000	76.453743
3762.000000	76.493357
3761.000000	76.536336
3760.000000	76.567764
3759.000000	76.593193
3758.000000	76.626993
3757.000000	76.668356
3756.000000	76.710140
3755.000000	76.752303
3754.000000	76.796739
3753.000000	76.841905
3752.000000	76.888013
3751.000000	76.940902
3750.000000	76.998610
3749.000000	77.050866
3748.000000	77.102523
3747.000000	77.169430
3746.000000	77.249383
3745.000000	77.306101
3744.000000	77.302617
3743.000000	77.277228
3742.000000	77.294745
3741.000000	77.342367
3740.000000	77.367143
3739.000000	77.356804
3738.000000	77.350519
3737.000000	77.381036
3736.000000	77.438145
3735.000000	77.496918
3734.000000	77.550122
3733.000000	77.595332
3732.000000	77.616571
3731.000000	77.611836
3730.000000	77.605587
3729.000000	77.617704
3728.000000	77.642123
3727.000000	77.659990
3726.000000	77.667125
3725.000000	77.680397
3724.000000	77.710605
3723.000000	77.745975
3722.000000	77.769817
3721.000000	77.783732
3720.000000	77.800113
3719.000000	77.822302
3718.000000	77.844495
3717.000000	77.862227
3716.000000	77.883122
3715.000000	77.918950
3714.000000	77.970664
3713.000000	78.028320
3712.000000	78.083781
3711.000000	78.138838
3710.000000	78.197194
3709.000000	78.251896
3708.000000	78.291146
3707.000000	78.311606
3706.000000	78.321708
3705.000000	78.334217
3704.000000	78.356330
3703.000000	78.386417
3702.000000	78.417954
3701.000000	78.447300
3700.000000	78.478177
3699.000000	78.515061
3698.000000	78.553492
3697.000000	78.581821
3696.000000	78.596419
3695.000000	78.610381
3694.000000	78.637439
3693.000000	78.675632
3692.000000	78.715896
3691.000000	78.758295
3690.000000	78.808849
3689.000000	78.861655
3688.000000	78.903060
3687.000000	78.933280
3686.000000	78.961619
3685.000000	78.984276
3684.000000	78.988625
3683.000000	78.975762
3682.000000	78.964747
3681.000000	78.969560
3680.000000	78.984856
3679.000000	79.005293
3678.000000	79.042352
3677.000000	79.107152
3676.000000	79.174344
3675.000000	79.207050
3674.000000	79.221795
3673.000000	79.260368
3672.000000	79.318160
3671.000000	79.356044
3670.000000	79.352980
3669.000000	79.331335
3668.000000	79.327768
3667.000000	79.343373
3666.000000	79.351171
3665.000000	79.338371
3664.000000	79.315920
3663.000000	79.299951
3662.000000	79.295825
3661.000000	79.297868
3660.000000	79.303277
3659.000000	79.317895
3658.000000	79.344997
3657.000000	79.374813
3656.000000	79.389382
3655.000000	79.390671
3654.000000	79.399823
3653.000000	79.425852
3652.000000	79.455407
3651.000000	79.475239
3650.000000	79.493049
3649.000000	79.527397
3648.000000	79.576879
3647.000000	79.615380
3646.000000	79.624607
3645.000000	79.610501
3644.000000	79.587892
3643.000000	79.564521
3642.000000	79.542561
3641.000000	79.524955
3640.000000	79.515589
3639.000000	79.511958
3638.000000	79.506960
3637.000000	79.500315
3636.000000	79.497715
3635.000000	79.497480
3634.000000	79.486827
3633.000000	79.462514
3632.000000	79.441931
3631.000000	79.445460
3630.000000	79.471251
3629.000000	79.488582
3628.000000	79.474597
3627.000000	79.445379
3626.000000	79.412671
3625.000000	79.358341
3624.000000	79.269772
3623.000000	79.162476
3622.000000	79.065098
3621.000000	78.991942
3620.000000	78.933799
3619.000000	78.873014
3618.000000	78.802491
3617.000000	78.725655
3616.000000	78.644114
3615.000000	78.554158
3614.000000	78.451021
3613.000000	78.335922
3612.000000	78.219043
3611.000000	78.111329
3610.000000	78.012652
3609.000000	77.912385
3608.000000	77.800626
3607.000000	77.677128
3606.000000	77.546937
3605.000000	77.410949
3604.000000	77.268640
3603.000000	77.125054
3602.000000	76.989040
3601.000000	76.865980
3600.000000	76.754752
3599.000000	76.652661
3598.000000	76.557674
3597.000000	76.467443
3596.000000	76.378623
3595.000000	76.287489
3594.000000	76.187373
3593.000000	76.074196
3592.000000	75.950866
3591.000000	75.827540
3590.000000	75.719039
3589.000000	75.638864
3588.000000	75.588765
3587.000000	75.554795
3586.000000	75.518318
3585.000000	75.467104
3584.000000	75.395413
3583.000000	75.303899
3582.000000	75.200141
3581.000000	75.094521
3580.000000	74.993160
3579.000000	74.896212
3578.000000	74.800511
3577.000000	74.703706
3576.000000	74.605053
3575.000000	74.504028
3574.000000	74.398575
3573.000000	74.285387
3572.000000	74.163252
3571.000000	74.034999
3570.000000	73.908259
3569.000000	73.792413
3568.000000	73.691172
3567.000000	73.596648
3566.000000	73.494540
3565.000000	73.374960
3564.000000	73.235008
3563.000000	73.077163
3562.000000	72.907963
3561.000000	72.735361
3560.000000	72.564002
3559.000000	72.392984
3558.000000	72.218710
3557.000000	72.038769
3556.000000	71.853821
3555.000000	71.666035
3554.000000	71.476721
3553.000000	71.284524
3552.000000	71.086711
3551.000000	70.881613
3550.000000	70.669230
3549.000000	70.450360
3548.000000	70.226159
3547.000000	69.998538
3546.000000	69.768510
3545.000000	69.534269
3544.000000	69.291870
3543.000000	69.037668
3542.000000	68.770054
3541.000000	68.489423
3540.000000	68.197495
3539.000000	67.895763
3538.000000	67.584861
3537.000000	67.264750
3536.000000	66.934883
3535.000000	66.594114
3534.000000	66.240395
3533.000000	65.872164
3532.000000	65.488772
3531.000000	65.090174
3530.000000	64.675625
3529.000000	64.244159
3528.000000	63.795391
3527.000000	63.329598
3526.000000	62.846828
3525.000000	62.346717
3524.000000	61.829046
3523.000000	61.293688
3522.000000	60.740673
3521.000000	60.169962
3520.000000	59.580926
3519.000000	58.971754
3518.000000	58.340685
3517.000000	57.688585
3516.000000	57.018579
3515.000000	56.333044
3514.000000	55.632520
3513.000000	54.917390
3512.000000	54.187672
3511.000000	53.441346
3510.000000	52.676300
3509.000000	51.895245
3508.000000	51.103936
3507.000000	50.303213
3506.000000	49.486419
3505.000000	48.647581
3504.000000	47.790119
3503.000000	46.924782
3502.000000	46.060663
3501.000000	45.199901
3500.000000	44.338589
3499.000000	43.470477
3498.000000	42.592261
3497.000000	41.707352
3496.000000	40.823480
3495.000000	39.945914
3494.000000	39.075678
3493.000000	38.214228
3492.000000	37.364873
3491.000000	36.528807
3490.000000	35.704786
3489.000000	34.894831
3488.000000	34.106443
3487.000000	33.346866
3486.000000	32.617977
3485.000000	31.917331
3484.000000	31.239627
3483.000000	30.577966
3482.000000	29.929134
3481.000000	29.298817
3480.000000	28.696772
3479.000000	28.124898
3478.000000	27.574812
3477.000000	27.037112
3476.000000	26.507806
3475.000000	25.986283
3474.000000	25.472483
3473.000000	24.968348
3472.000000	24.478366
3471.000000	24.008031
3470.000000	23.566717
3469.000000	23.170248
3468.000000	22.834916
3467.000000	22.567856
3466.000000	22.366604
3465.000000	22.227702
3464.000000	22.149768
3463.000000	22.130986
3462.000000	22.171568
3461.000000	22.276909
3460.000000	22.452540
3459.000000	22.694297
3458.000000	22.988365
3457.000000	23.320736
3456.000000	23.679706
3455.000000	24.051599
3454.000000	24.420810
3453.000000	24.773604
3452.000000	25.097491
3451.000000	25.378127
3450.000000	25.601125
3449.000000	25.757758
3448.000000	25.844547
3447.000000	25.858281
3446.000000	25.798069
3445.000000	25.668463
3444.000000	25.477217
3443.000000	25.232161
3442.000000	24.942525
3441.000000	24.623076
3440.000000	24.290790
3439.000000	23.959399
3438.000000	23.642400
3437.000000	23.357558
3436.000000	23.122116
3435.000000	22.944077
3434.000000	22.822145
3433.000000	22.753020
3432.000000	22.736836
3431.000000	22.776619
3430.000000	22.878885
3429.000000	23.053891
3428.000000	23.308179
3427.000000	23.640990
3426.000000	24.048294
3425.000000	24.529049
3424.000000	25.085339
3423.000000	25.715848
3422.000000	26.417385
3421.000000	27.187119
3420.000000	28.019050
3419.000000	28.901919
3418.000000	29.821788
3417.000000	30.768058
3416.000000	31.732696
3415.000000	32.707089
3414.000000	33.684519
3413.000000	34.661263
3412.000000	35.632318
3411.000000	36.588795
3410.000000	37.522900
3409.000000	38.432649
3408.000000	39.318058
3407.000000	40.174667
3406.000000	40.995421
3405.000000	41.776572
3404.000000	42.518055
3403.000000	43.222172
3402.000000	43.895199
3401.000000	44.547688
3400.000000	45.187980
3399.000000	45.814683
3398.000000	46.419571
3397.000000	46.996619
3396.000000	47.544972
3395.000000	48.066661
3394.000000	48.565359
3393.000000	49.047651
3392.000000	49.520931
3391.000000	49.988157
3390.000000	50.447751
3389.000000	50.897217
3388.000000	51.335581
3387.000000	51.763286
3386.000000	52.181802
3385.000000	52.593431
3384.000000	52.999000
3383.000000	53.397095
3382.000000	53.787006
3381.000000	54.171127
3380.000000	54.552886
3379.000000	54.933570
3378.000000	55.313079
3377.000000	55.692093
3376.000000	56.070674
3375.000000	56.445951
3374.000000	56.813650
3373.000000	57.171631
3372.000000	57.520749
3371.000000	57.863374
3370.000000	58.203286
3369.000000	58.545130
3368.000000	58.891339
3367.000000	59.239859
3366.000000	59.586239
3365.000000	59.927158
3364.000000	60.260641
3363.000000	60.585014
3362.000000	60.900273
3361.000000	61.209326
3360.000000	61.515743
3359.000000	61.820610
3358.000000	62.122887
3357.000000	62.421845
3356.000000	62.716799
3355.000000	63.005822
3354.000000	63.286880
3353.000000	63.560083
3352.000000	63.827563
3351.000000	64.091153
3350.000000	64.351366
3349.000000	64.607783
3348.000000	64.859040
3347.000000	65.103379
3346.000000	65.340211
3345.000000	65.570822
3344.000000	65.796431
3343.000000	66.016074
3342.000000	66.227703
3341.000000	66.430447
3340.000000	66.625053
3339.000000	66.812923
3338.000000	66.995304
3337.000000	67.172858
3336.000000	67.344349
3335.000000	67.506570
3334.000000	67.656657
3333.000000	67.793286
3332.000000	67.915581
3331.000000	68.021502
3330.000000	68.108627
3329.000000	68.176039
3328.000000	68.223463
3327.000000	68.250279
3326.000000	68.255383
3325.000000	68.237116
3324.000000	68.192716
3323.000000	68.117297
3322.000000	68.005885
3321.000000	67.855349
3320.000000	67.662934
3319.000000	67.425858
3318.000000	67.140660
3317.000000	66.804546
3316.000000	66.413741
3315.000000	65.960865
3314.000000	65.437357
3313.000000	64.834763
3312.000000	64.144693
3311.000000	63.358561
3310.000000	62.466897
3309.000000	61.464342
3308.000000	60.347382
3307.000000	59.112017
3306.000000	57.755209
3305.000000	56.272622
3304.000000	54.660492
3303.000000	52.911965
3302.000000	51.021155
3301.000000	48.990327
3300.000000	46.829110
3299.000000	44.556417
3298.000000	42.204128
3297.000000	39.819603
3296.000000	37.459894
3295.000000	35.180051
3294.000000	33.028837
3293.000000	31.049535
3292.000000	29.273654
3291.000000	27.708234
3290.000000	26.338986
3289.000000	25.136919
3288.000000	24.065870
3287.000000	23.088785
3286.000000	22.172793
3285.000000	21.299707
3284.000000	20.462398
3283.000000	19.660879
3282.000000	18.905683
3281.000000	18.217877
3280.000000	17.624377
3279.000000	17.148887
3278.000000	16.811928
3277.000000	16.634575
3276.000000	16.629670
3275.000000	16.795329
3274.000000	17.115773
3273.000000	17.564243
3272.000000	18.103839
3271.000000	18.684156
3270.000000	19.248574
3269.000000	19.743567
3268.000000	20.121679
3267.000000	20.344726
3266.000000	20.393335
3265.000000	20.271324
3264.000000	19.999750
3263.000000	19.611129
3262.000000	19.146297
3261.000000	18.655157
3260.000000	18.187218
3259.000000	17.782093
3258.000000	17.471044
3257.000000	17.280333
3256.000000	17.225811
3255.000000	17.307852
3254.000000	17.515604
3253.000000	17.830818
3252.000000	18.229688
3251.000000	18.680736
3250.000000	19.151561
3249.000000	19.616692
3248.000000	20.054774
3247.000000	20.446004
3246.000000	20.774672
3245.000000	21.032678
3244.000000	21.217114
3243.000000	21.329138
3242.000000	21.375770
3241.000000	21.370941
3240.000000	21.329495
3239.000000	21.260576
3238.000000	21.171815
3237.000000	21.072010
3236.000000	20.968753
3235.000000	20.867021
3234.000000	20.771801
3233.000000	20.688311
3232.000000	20.614027
3231.000000	20.535567
3230.000000	20.437991
3229.000000	20.313026
3228.000000	20.156569
3227.000000	19.963343
3226.000000	19.729539
3225.000000	19.457153
3224.000000	19.149902
3223.000000	18.810020
3222.000000	18.442128
3221.000000	18.057020
3220.000000	17.667459
3219.000000	17.281972
3218.000000	16.906478
3217.000000	16.546583
3216.000000	16.204163
3215.000000	15.875597
3214.000000	15.557386
3213.000000	15.249456
3212.000000	14.950101
3211.000000	14.653128
3210.000000	14.354237
3209.000000	14.056481
3208.000000	13.765115
3207.000000	13.482274
3206.000000	13.210996
3205.000000	12.958529
3204.000000	12.731848
3203.000000	12.533496
3202.000000	12.365968
3201.000000	12.235709
3200.000000	12.147025
3199.000000	12.098635
3198.000000	12.089039
3197.000000	12.120707
3196.000000	12.195762
3195.000000	12.310380
3194.000000	12.460559
3193.000000	12.646378
3192.000000	12.866701
3191.000000	13.116402
3190.000000	13.390408
3189.000000	13.687973
3188.000000	14.007960
3187.000000	14.344515
3186.000000	14.692682
3185.000000	15.051982
3184.000000	15.421882
3183.000000	15.798088
3182.000000	16.177042
3181.000000	16.559779
3180.000000	16.946611
3179.000000	17.333197
3178.000000	17.715216
3177.000000	18.092403
3176.000000	18.464480
3175.000000	18.827799
3174.000000	19.179660
3173.000000	19.521427
3172.000000	19.854279
3171.000000	20.175728
3170.000000	20.484096
3169.000000	20.781694
3168.000000	21.070072
3167.000000	21.346993
3166.000000	21.610377
3165.000000	21.861408
3164.000000	22.100366
3163.000000	22.323587
3162.000000	22.528511
3161.000000	22.716402
3160.000000	22.887983
3159.000000	23.040863
3158.000000	23.173932
3157.000000	23.290912
3156.000000	23.395645
3155.000000	23.489242
3154.000000	23.575106
3153.000000	23.661504
3152.000000	23.755613
3151.000000	23.858374
3150.000000	23.968599
3149.000000	24.087767
3148.000000	24.217316
3147.000000	24.355410
3146.000000	24.500189
3145.000000	24.652415
3144.000000	24.811726
3143.000000	24.974433
3142.000000	25.137597
3141.000000	25.301613
3140.000000	25.465724
3139.000000	25.625070
3138.000000	25.774951
3137.000000	25.914088
3136.000000	26.040742
3135.000000	26.149227
3134.000000	26.233554
3133.000000	26.289363
3132.000000	26.310516
3131.000000	26.287356
3130.000000	26.211082
3129.000000	26.078452
3128.000000	25.888291
3127.000000	25.640490
3126.000000	25.340921
3125.000000	25.002730
3124.000000	24.641428
3123.000000	24.269946
3122.000000	23.901340
3121.000000	23.549606
3120.000000	23.223358
3119.000000	22.922726
3118.000000	22.645183
3117.000000	22.390362
3116.000000	22.156353
3115.000000	21.937025
3114.000000	21.726263
3113.000000	21.521530
3112.000000	21.320474
3111.000000	21.119367
3110.000000	20.918972
3109.000000	20.726526
3108.000000	20.549100
3107.000000	20.389350
3106.000000	20.249950
3105.000000	20.137915
3104.000000	20.059820
3103.000000	20.018806
3102.000000	20.019879
3101.000000	20.071511
3100.000000	20.180454
3099.000000	20.346768
3098.000000	20.568466
3097.000000	20.846338
3096.000000	21.179087
3095.000000	21.561784
3094.000000	21.989707
3093.000000	22.460808
3092.000000	22.972117
3091.000000	23.516441
3090.000000	24.087347
3089.000000	24.680499
3088.000000	25.289041
3087.000000	25.903444
3086.000000	26.517593
3085.000000	27.131500
3084.000000	27.744722
3083.000000	28.352434
3082.000000	28.950371
3081.000000	29.538515
3080.000000	30.117427
3079.000000	30.685244
3078.000000	31.240831
3077.000000	31.784881
3076.000000	32.316115
3075.000000	32.830321
3074.000000	33.325713
3073.000000	33.805241
3072.000000	34.270904
3071.000000	34.720929
3070.000000	35.154164
3069.000000	35.573283
3068.000000	35.981410
3067.000000	36.378608
3066.000000	36.764690
3065.000000	37.141276
3064.000000	37.509053
3063.000000	37.866735
3062.000000	38.213936
3061.000000	38.552440
3060.000000	38.882804
3059.000000	39.203398
3058.000000	39.514620
3057.000000	39.819876
3056.000000	40.121122
3055.000000	40.416693
3054.000000	40.705247
3053.000000	40.988708
3052.000000	41.269263
3051.000000	41.546913
3050.000000	41.821243
3049.000000	42.092314
3048.000000	42.358782
3047.000000	42.618186
3046.000000	42.870759
3045.000000	43.119838
3044.000000	43.367496
3043.000000	43.613175
3042.000000	43.857130
3041.000000	44.101332
3040.000000	44.345431
3039.000000	44.585438
3038.000000	44.818480
3037.000000	45.045802
3036.000000	45.270221
3035.000000	45.493797
3034.000000	45.718775
3033.000000	45.947149
3032.000000	46.177532
3031.000000	46.405749
3030.000000	46.629792
3029.000000	46.850931
3028.000000	47.069392
3027.000000	47.282940
3026.000000	47.491034
3025.000000	47.696291
3024.000000	47.899553
3023.000000	48.097173
3022.000000	48.284892
3021.000000	48.460617
3020.000000	48.621771
3019.000000	48.762407
3018.000000	48.875849
3017.000000	48.957758
3016.000000	49.005828
3015.000000	49.021010
3014.000000	49.011489
3013.000000	48.994453
3012.000000	48.991273
3011.000000	49.021758
3010.000000	49.101157
3009.000000	49.236780
3008.000000	49.423772
3007.000000	49.645609
3006.000000	49.880223
3005.000000	50.104410
3004.000000	50.292946
3003.000000	50.417752
3002.000000	50.451259
3001.000000	50.369789
3000.000000	50.159240
2999.000000	49.826496
2998.000000	49.413684
2997.000000	48.999366
2996.000000	48.678520
2995.000000	48.532464
2994.000000	48.602495
2993.000000	48.878731
2992.000000	49.304886
2991.000000	49.803009
2990.000000	50.303876
2989.000000	50.764562
2988.000000	51.167312
2987.000000	51.509449
2986.000000	51.796560
2985.000000	52.036679
2984.000000	52.235616
2983.000000	52.394947
2982.000000	52.515281
2981.000000	52.597082
2980.000000	52.638046
2979.000000	52.632249
2978.000000	52.574008
2977.000000	52.463429
2976.000000	52.307917
2975.000000	52.123961
2974.000000	51.937621
2973.000000	51.778944
2972.000000	51.670965
2971.000000	51.620245
2970.000000	51.614157
2969.000000	51.620729
2968.000000	51.591235
2967.000000	51.473359
2966.000000	51.234023
2965.000000	50.876528
2964.000000	50.439716
2963.000000	49.982652
2962.000000	49.566788
2961.000000	49.240228
2960.000000	49.029791
2959.000000	48.942869
2958.000000	48.977269
2957.000000	49.124819
2956.000000	49.367490
2955.000000	49.676588
2954.000000	50.018449
2953.000000	50.359736
2952.000000	50.666394
2951.000000	50.907891
2950.000000	51.067819
2949.000000	51.152165
2948.000000	51.183740
2947.000000	51.185228
2946.000000	51.159639
2945.000000	51.073745
2944.000000	50.860476
2943.000000	50.453413
2942.000000	49.847055
2941.000000	49.139326
2940.000000	48.517599
2939.000000	48.185494
2938.000000	48.270339
2937.000000	48.769624
2936.000000	49.563056
2935.000000	50.480957
2934.000000	51.378449
2933.000000	52.173411
2932.000000	52.840682
2931.000000	53.389922
2930.000000	53.846926
2929.000000	54.239108
2928.000000	54.587380
2927.000000	54.903790
2926.000000	55.196101
2925.000000	55.469789
2924.000000	55.726448
2923.000000	55.964038
2922.000000	56.180837
2921.000000	56.376677
2920.000000	56.550003
2919.000000	56.698180
2918.000000	56.821169
2917.000000	56.922578
2916.000000	57.006383
2915.000000	57.075103
2914.000000	57.131716
2913.000000	57.179734
2912.000000	57.220310
2911.000000	57.251623
2910.000000	57.271209
2909.000000	57.276419
2908.000000	57.262148
2907.000000	57.219991
2906.000000	57.140242
2905.000000	57.011368
2904.000000	56.817771
2903.000000	56.542718
2902.000000	56.177524
2901.000000	55.728776
2900.000000	55.220591
2899.000000	54.695552
2898.000000	54.211478
2897.000000	53.830603
2896.000000	53.600177
2895.000000	53.538656
2894.000000	53.636090
2893.000000	53.861642
2892.000000	54.173502
2891.000000	54.529214
2890.000000	54.895876
2889.000000	55.252415
2888.000000	55.585818
2887.000000	55.888389
2886.000000	56.158021
2885.000000	56.397189
2884.000000	56.607910
2883.000000	56.790386
2882.000000	56.946145
2881.000000	57.079723
2880.000000	57.196445
2879.000000	57.300976
2878.000000	57.398476
2877.000000	57.494056
2876.000000	57.589899
2875.000000	57.684769
2874.000000	57.777239
2873.000000	57.867015
2872.000000	57.953533
2871.000000	58.037096
2870.000000	58.122254
2869.000000	58.217009
2868.000000	58.326986
2867.000000	58.452141
2866.000000	58.589278
2865.000000	58.734297
2864.000000	58.881161
2863.000000	59.022521
2862.000000	59.153561
2861.000000	59.273525
2860.000000	59.383097
2859.000000	59.483049
2858.000000	59.576530
2857.000000	59.669703
2856.000000	59.768358
2855.000000	59.875435
2854.000000	59.991683
2853.000000	60.115220
2852.000000	60.239112
2851.000000	60.352427
2850.000000	60.446242
2849.000000	60.518099
2848.000000	60.571227
2847.000000	60.612200
2846.000000	60.649791
2845.000000	60.692580
2844.000000	60.745220
2843.000000	60.807610
2842.000000	60.877848
2841.000000	60.954429
2840.000000	61.035599
2839.000000	61.119482
2838.000000	61.205915
2837.000000	61.296289
2836.000000	61.391124
2835.000000	61.489677
2834.000000	61.591894
2833.000000	61.698350
2832.000000	61.807769
2831.000000	61.916773
2830.000000	62.022821
2829.000000	62.125493
2828.000000	62.224702
2827.000000	62.320035
2826.000000	62.412344
2825.000000	62.503659
2824.000000	62.594734
2823.000000	62.684398
2822.000000	62.771742
2821.000000	62.856812
2820.000000	62.938754
2819.000000	63.015682
2818.000000	63.087139
2817.000000	63.154745
2816.000000	63.219813
2815.000000	63.282211
2814.000000	63.342133
2813.000000	63.400786
2812.000000	63.458542
2811.000000	63.514340
2810.000000	63.567604
2809.000000	63.618963
2808.000000	63.668530
2807.000000	63.715412
2806.000000	63.759716
2805.000000	63.803219
2804.000000	63.847337
2803.000000	63.892076
2802.000000	63.937388
2801.000000	63.983694
2800.000000	64.030450
2799.000000	64.075989
2798.000000	64.119417
2797.000000	64.161054
2796.000000	64.200732
2795.000000	64.237572
2794.000000	64.272030
2793.000000	64.306299
2792.000000	64.342032
2791.000000	64.379168
2790.000000	64.417149
2789.000000	64.455230
2788.000000	64.491189
2787.000000	64.521978
2786.000000	64.546777
2785.000000	64.568099
2784.000000	64.589530
2783.000000	64.614167
2782.000000	64.645319
2781.000000	64.686058
2780.000000	64.736702
2779.000000	64.794125
2778.000000	64.854364
2777.000000	64.914780
2776.000000	64.973580
2775.000000	65.029458
2774.000000	65.082740
2773.000000	65.135316
2772.000000	65.188543
2771.000000	65.242258
2770.000000	65.295948
2769.000000	65.349299
2768.000000	65.401144
2767.000000	65.449447
2766.000000	65.493038
2765.000000	65.532199
2764.000000	65.567387
2763.000000	65.598924
2762.000000	65.628022
2761.000000	65.656483
2760.000000	65.684869
2759.000000	65.712153
2758.000000	65.737316
2757.000000	65.759677
2756.000000	65.777789
2755.000000	65.790136
2754.000000	65.797550
2753.000000	65.803684
2752.000000	65.812803
2751.000000	65.828228
2750.000000	65.852360
2749.000000	65.885570
2748.000000	65.924258
2747.000000	65.961863
2746.000000	65.992922
2745.000000	66.015662
2744.000000	66.031367
2743.000000	66.043241
2742.000000	66.055617
2741.000000	66.071660
2740.000000	66.090630
2739.000000	66.108721
2738.000000	66.123287
2737.000000	66.135620
2736.000000	66.150158
2735.000000	66.172932
2734.000000	66.210370
2733.000000	66.266202
2732.000000	66.338191
2731.000000	66.419162
2730.000000	66.501686
2729.000000	66.581139
2728.000000	66.654909
2727.000000	66.721355
2726.000000	66.780410
2725.000000	66.833195
2724.000000	66.880048
2723.000000	66.920267
2722.000000	66.953780
2721.000000	66.981386
2720.000000	67.003463
2719.000000	67.020030
2718.000000	67.032573
2717.000000	67.044238
2716.000000	67.057571
2715.000000	67.073658
2714.000000	67.093453
2713.000000	67.118044
2712.000000	67.147260
2711.000000	67.179749
2710.000000	67.214813
2709.000000	67.252670
2708.000000	67.292648
2707.000000	67.332709
2706.000000	67.370998
2705.000000	67.406167
2704.000000	67.435915
2703.000000	67.457186
2702.000000	67.468479
2701.000000	67.470408
2700.000000	67.464134
2699.000000	67.450785
2698.000000	67.432675
2697.000000	67.413377
2696.000000	67.395647
2695.000000	67.380618
2694.000000	67.368895
2693.000000	67.360520
2692.000000	67.353843
2691.000000	67.346581
2690.000000	67.338736
2689.000000	67.333067
2688.000000	67.332370
2687.000000	67.337588
2686.000000	67.348602
2685.000000	67.364624
2684.000000	67.383394
2683.000000	67.402241
2682.000000	67.420722
2681.000000	67.441105
2680.000000	67.465805
2679.000000	67.495696
2678.000000	67.530931
2677.000000	67.570975
2676.000000	67.613153
2675.000000	67.652860
2674.000000	67.685959
2673.000000	67.710089
2672.000000	67.724088
2671.000000	67.728379
2670.000000	67.726665
2669.000000	67.725611
2668.000000	67.731792
2667.000000	67.749420
2666.000000	67.780276
2665.000000	67.823349
2664.000000	67.873861
2663.000000	67.924631
2662.000000	67.969421
2661.000000	68.004483
2660.000000	68.027733
2659.000000	68.038723
2658.000000	68.039719
2657.000000	68.035001
2656.000000	68.028268
2655.000000	68.021861
2654.000000	68.018547
2653.000000	68.021922
2652.000000	68.034469
2651.000000	68.056819
2650.000000	68.089122
2649.000000	68.131219
2648.000000	68.181243
2647.000000	68.235552
2646.000000	68.290519
2645.000000	68.343413
2644.000000	68.391577
2643.000000	68.433122
2642.000000	68.469059
2641.000000	68.503140
2640.000000	68.538982
2639.000000	68.578239
2638.000000	68.621228
2637.000000	68.667298
2636.000000	68.714112
2635.000000	68.758183
2634.000000	68.796956
2633.000000	68.829390
2632.000000	68.854774
2631.000000	68.872814
2630.000000	68.884902
2629.000000	68.893848
2628.000000	68.901733
2627.000000	68.909138
2626.000000	68.916533
2625.000000	68.924426
2624.000000	68.932232
2623.000000	68.938606
2622.000000	68.943207
2621.000000	68.946806
2620.000000	68.949318
2619.000000	68.949437
2618.000000	68.946195
2617.000000	68.939153
2616.000000	68.927079
2615.000000	68.908073
2614.000000	68.881712
2613.000000	68.849652
2612.000000	68.813893
2611.000000	68.776353
2610.000000	68.740225
2609.000000	68.709852
2608.000000	68.688526
2607.000000	68.677724
2606.000000	68.678305
2605.000000	68.690985
2604.000000	68.715093
2603.000000	68.748377
2602.000000	68.788829
2601.000000	68.834627
2600.000000	68.882626
2599.000000	68.928776
2598.000000	68.970427
2597.000000	69.007320
2596.000000	69.040117
2595.000000	69.069838
2594.000000	69.098869
2593.000000	69.130430
2592.000000	69.166034
2591.000000	69.204476
2590.000000	69.243273
2589.000000	69.279749
2588.000000	69.310953
2587.000000	69.334467
2586.000000	69.350301
2585.000000	69.361104
2584.000000	69.370531
2583.000000	69.382554
2582.000000	69.401785
2581.000000	69.432083
2580.000000	69.474160
2579.000000	69.525771
2578.000000	69.584087
2577.000000	69.646903
2576.000000	69.711777
2575.000000	69.776309
2574.000000	69.839868
2573.000000	69.903250
2572.000000	69.966585
2571.000000	70.028782
2570.000000	70.088840
2569.000000	70.146016
2568.000000	70.198706
2567.000000	70.244968
2566.000000	70.284811
2565.000000	70.320776
2564.000000	70.355854
2563.000000	70.392111
2562.000000	70.430858
2561.000000	70.472315
2560.000000	70.514697
2559.000000	70.554948
2558.000000	70.591068
2557.000000	70.622844
2556.000000	70.650862
2555.000000	70.676438
2554.000000	70.702422
2553.000000	70.732265
2552.000000	70.767681
2551.000000	70.808129
2550.000000	70.852237
2549.000000	70.898204
2548.000000	70.943034
2547.000000	70.983399
2546.000000	71.017885
2545.000000	71.047426
2544.000000	71.073477
2543.000000	71.097072
2542.000000	71.119280
2541.000000	71.140631
2540.000000	71.159923
2539.000000	71.174539
2538.000000	71.182344
2537.000000	71.182205
2536.000000	71.172874
2535.000000	71.153698
2534.000000	71.126169
2533.000000	71.093523
2532.000000	71.058499
2531.000000	71.022349
2530.000000	70.986212
2529.000000	70.951380
2528.000000	70.918188
2527.000000	70.886212
2526.000000	70.855649
2525.000000	70.827181
2524.000000	70.800378
2523.000000	70.773804
2522.000000	70.746765
2521.000000	70.719286
2520.000000	70.690297
2519.000000	70.657400
2518.000000	70.618690
2517.000000	70.573499
2516.000000	70.521355
2515.000000	70.462434
2514.000000	70.399364
2513.000000	70.337021
2512.000000	70.280103
2511.000000	70.232179
2510.000000	70.196547
2509.000000	70.175877
2508.000000	70.170429
2507.000000	70.177743
2506.000000	70.195140
2505.000000	70.220636
2504.000000	70.251918
2503.000000	70.286744
2502.000000	70.324148
2501.000000	70.364297
2500.000000	70.406384
2499.000000	70.448094
2498.000000	70.487177
2497.000000	70.521804
2496.000000	70.549576
2495.000000	70.568172
2494.000000	70.577621
2493.000000	70.580534
2492.000000	70.580266
2491.000000	70.579815
2490.000000	70.582220
2489.000000	70.589936
2488.000000	70.603157
2487.000000	70.620129
2486.000000	70.639093
2485.000000	70.658703
2484.000000	70.677108
2483.000000	70.692880
2482.000000	70.707061
2481.000000	70.722675
2480.000000	70.741852
2479.000000	70.764652
2478.000000	70.790654
2477.000000	70.819666
2476.000000	70.850880
2475.000000	70.883229
2474.000000	70.917034
2473.000000	70.954281
2472.000000	70.996842
2471.000000	71.045610
2470.000000	71.101056
2469.000000	71.162614
2468.000000	71.227450
2467.000000	71.291033
2466.000000	71.349292
2465.000000	71.399603
2464.000000	71.440589
2463.000000	71.472736
2462.000000	71.499144
2461.000000	71.524080
2460.000000	71.550250
2459.000000	71.578340
2458.000000	71.607886
2457.000000	71.636999
2456.000000	71.661911
2455.000000	71.678855
2454.000000	71.687059
2453.000000	71.688765
2452.000000	71.687118
2451.000000	71.685689
2450.000000	71.689200
2449.000000	71.702016
2448.000000	71.725264
2447.000000	71.756731
2446.000000	71.793484
2445.000000	71.833397
2444.000000	71.874379
2443.000000	71.914597
2442.000000	71.953808
2441.000000	71.992891
2440.000000	72.032093
2439.000000	72.070785
2438.000000	72.108636
2437.000000	72.145259
2436.000000	72.178824
2435.000000	72.206453
2434.000000	72.226421
2433.000000	72.238845
2432.000000	72.244484
2431.000000	72.244559
2430.000000	72.240891
2429.000000	72.234783
2428.000000	72.225406
2427.000000	72.210229
2426.000000	72.187317
2425.000000	72.155746
2424.000000	72.115165
2423.000000	72.066986
2422.000000	72.015991
2421.000000	71.969237
2420.000000	71.932869
2419.000000	71.910581
2418.000000	71.903711
2417.000000	71.910553
2416.000000	71.925464
2415.000000	71.940910
2414.000000	71.950924
2413.000000	71.951944
2412.000000	71.941466
2411.000000	71.918222
2410.000000	71.883522
2409.000000	71.840500
2408.000000	71.791948
2407.000000	71.739690
2406.000000	71.685830
2405.000000	71.632492
2404.000000	71.580637
2403.000000	71.530909
2402.000000	71.485456
2401.000000	71.447364
2400.000000	71.418448
2399.000000	71.398898
2398.000000	71.388097
2397.000000	71.383933
2396.000000	71.381467
2395.000000	71.374463
2394.000000	71.358413
2393.000000	71.331224
2392.000000	71.292271
2391.000000	71.243111
2390.000000	71.188694
2389.000000	71.135985
2388.000000	71.091202
2387.000000	71.059487
2386.000000	71.045721
2385.000000	71.053019
2384.000000	71.081428
2383.000000	71.128383
2382.000000	71.191255
2381.000000	71.266469
2380.000000	71.346757
2379.000000	71.423140
2378.000000	71.486896
2377.000000	71.530356
2376.000000	71.546692
2375.000000	71.532517
2374.000000	71.490598
2373.000000	71.426885
2372.000000	71.347685
2371.000000	71.261019
2370.000000	71.178163
2369.000000	71.109458
2368.000000	71.062243
2367.000000	71.042352
2366.000000	71.053084
2365.000000	71.093467
2364.000000	71.158312
2363.000000	71.244379
2362.000000	71.351992
2361.000000	71.474651
2360.000000	71.597139
2359.000000	71.703327
2358.000000	71.786446
2357.000000	71.847301
2356.000000	71.886125
2355.000000	71.904212
2354.000000	71.903457
2353.000000	71.893216
2352.000000	71.889958
2351.000000	71.903263
2350.000000	71.927822
2349.000000	71.952193
2348.000000	71.971762
2347.000000	71.989293
2346.000000	72.013482
2345.000000	72.049919
2344.000000	72.091918
2343.000000	72.127570
2342.000000	72.151366
2341.000000	72.166297
2340.000000	72.175239
2339.000000	72.178176
2338.000000	72.174934
2337.000000	72.168993
2336.000000	72.166919
2335.000000	72.176227
2334.000000	72.199216
2333.000000	72.228106
2332.000000	72.246908
2331.000000	72.236162
2330.000000	72.187328
2329.000000	72.110989
2328.000000	72.033800
2327.000000	71.982505
2326.000000	71.971410
2325.000000	71.997980
2324.000000	72.044754
2323.000000	72.090178
2322.000000	72.118759
2321.000000	72.125685
2320.000000	72.111840
2319.000000	72.081838
2318.000000	72.045530
2317.000000	72.015585
2316.000000	71.998903
2315.000000	71.990704
2314.000000	71.978854
2313.000000	71.950495
2312.000000	71.896645
2311.000000	71.813953
2310.000000	71.706436
2309.000000	71.582966
2308.000000	71.451257
2307.000000	71.315070
2306.000000	71.177049
2305.000000	71.040922
2304.000000	70.909146
2303.000000	70.781333
2302.000000	70.656396
2301.000000	70.534325
2300.000000	70.415052
2299.000000	70.298122
2298.000000	70.185647
2297.000000	70.082685
2296.000000	69.994025
2295.000000	69.922604
2294.000000	69.870851
2293.000000	69.841447
2292.000000	69.834624
2291.000000	69.847979
2290.000000	69.879312
2289.000000	69.927200
2288.000000	69.989184
2287.000000	70.061509
2286.000000	70.141753
2285.000000	70.228989
2284.000000	70.320501
2283.000000	70.411618
2282.000000	70.498924
2281.000000	70.581418
2280.000000	70.657922
2279.000000	70.726445
2278.000000	70.787142
2277.000000	70.843241
2276.000000	70.897981
2275.000000	70.952901
2274.000000	71.009858
2273.000000	71.072084
2272.000000	71.142190
2271.000000	71.221124
2270.000000	71.310059
2269.000000	71.410776
2268.000000	71.523310
2267.000000	71.645065
2266.000000	71.773131
2265.000000	71.905760
2264.000000	72.040812
2263.000000	72.175007
2262.000000	72.305405
2261.000000	72.430208
2260.000000	72.547632
2259.000000	72.655968
2258.000000	72.755235
2257.000000	72.847062
2256.000000	72.932527
2255.000000	73.011700
2254.000000	73.085902
2253.000000	73.158131
2252.000000	73.230691
2251.000000	73.303936
2250.000000	73.377793
2249.000000	73.452318
2248.000000	73.526242
2247.000000	73.596791
2246.000000	73.661911
2245.000000	73.721421
2244.000000	73.775480
2243.000000	73.823796
2242.000000	73.866777
2241.000000	73.905804
2240.000000	73.941226
2239.000000	73.971646
2238.000000	73.995712
2237.000000	74.013163
2236.000000	74.023976
2235.000000	74.028339
2234.000000	74.028524
2233.000000	74.029018
2232.000000	74.033794
2231.000000	74.044479
2230.000000	74.061150
2229.000000	74.082944
2228.000000	74.107230
2227.000000	74.130289
2226.000000	74.149979
2225.000000	74.166606
2224.000000	74.180841
2223.000000	74.192560
2222.000000	74.202185
2221.000000	74.211276
2220.000000	74.220841
2219.000000	74.230675
2218.000000	74.241055
2217.000000	74.253590
2216.000000	74.269699
2215.000000	74.289783
2214.000000	74.314518
2213.000000	74.345133
2212.000000	74.381523
2211.000000	74.421400
2210.000000	74.462032
2209.000000	74.501429
2208.000000	74.537541
2207.000000	74.568125
2206.000000	74.592295
2205.000000	74.610960
2204.000000	74.624986
2203.000000	74.634258
2202.000000	74.638911
2201.000000	74.640017
2200.000000	74.638335
2199.000000	74.633768
2198.000000	74.626733
2197.000000	74.618858
2196.000000	74.612113
2195.000000	74.608601
2194.000000	74.611461
2193.000000	74.623959
2192.000000	74.646831
2191.000000	74.677832
2190.000000	74.714223
2189.000000	74.754325
2188.000000	74.796520
2187.000000	74.838872
2186.000000	74.880523
2185.000000	74.921956
2184.000000	74.963243
2183.000000	75.003304
2182.000000	75.041336
2181.000000	75.077356
2180.000000	75.110938
2179.000000	75.140890
2178.000000	75.166658
2177.000000	75.188689
2176.000000	75.206991
2175.000000	75.220905
2174.000000	75.230657
2173.000000	75.237553
2172.000000	75.242120
2171.000000	75.243522
2170.000000	75.241326
2169.000000	75.236363
2168.000000	75.229429
2167.000000	75.220762
2166.000000	75.211345
2165.000000	75.203094
2164.000000	75.197130
2163.000000	75.193459
2162.000000	75.192638
2161.000000	75.196022
2160.000000	75.203717
2159.000000	75.214079
2158.000000	75.225966
2157.000000	75.239886
2156.000000	75.256324
2155.000000	75.274595
2154.000000	75.294094
2153.000000	75.315069
2152.000000	75.337369
2151.000000	75.359732
2150.000000	75.381016
2149.000000	75.400861
2148.000000	75.418693
2147.000000	75.433600
2146.000000	75.445697
2145.000000	75.456219
2144.000000	75.465884
2143.000000	75.474446
2142.000000	75.482110
2141.000000	75.489862
2140.000000	75.497774
2139.000000	75.504512
2138.000000	75.509084
2137.000000	75.511704
2136.000000	75.512408
2135.000000	75.510254
2134.000000	75.504529
2133.000000	75.495433
2132.000000	75.483071
2131.000000	75.467132
2130.000000	75.448134
2129.000000	75.427695
2128.000000	75.407152
2127.000000	75.387141
2126.000000	75.368787
2125.000000	75.353875
2124.000000	75.343465
2123.000000	75.337918
2122.000000	75.338519
2121.000000	75.347422
2120.000000	75.365613
2119.000000	75.392145
2118.000000	75.425346
2117.000000	75.463101
2116.000000	75.501849
2115.000000	75.537218
2114.000000	75.566439
2113.000000	75.588962
2112.000000	75.604856
2111.000000	75.614403
2110.000000	75.619339
2109.000000	75.622576
2108.000000	75.626062
2107.000000	75.630231
2106.000000	75.635696
2105.000000	75.643574
2104.000000	75.653544
2103.000000	75.663374
2102.000000	75.670817
2101.000000	75.674438
2100.000000	75.672419
2099.000000	75.662294
2098.000000	75.643013
2097.000000	75.615854
2096.000000	75.583076
2095.000000	75.547617
2094.000000	75.513957
2093.000000	75.487283
2092.000000	75.471282
2091.000000	75.468022
2090.000000	75.479642
2089.000000	75.507618
2088.000000	75.549659
2087.000000	75.599640
2086.000000	75.651110
2085.000000	75.699163
2084.000000	75.739468
2083.000000	75.768294
2082.000000	75.784417
2081.000000	75.789464
2080.000000	75.785779
2079.000000	75.775183
2078.000000	75.760035
2077.000000	75.742559
2076.000000	75.722140
2075.000000	75.695659
2074.000000	75.660585
2073.000000	75.616859
2072.000000	75.565208
2071.000000	75.505767
2070.000000	75.439977
2069.000000	75.371110
2068.000000	75.301582
2067.000000	75.231285
2066.000000	75.159526
2065.000000	75.086783
2064.000000	75.013083
2063.000000	74.936662
2062.000000	74.855812
2061.000000	74.770670
2060.000000	74.682712
2059.000000	74.594081
2058.000000	74.507876
2057.000000	74.427082
2056.000000	74.352328
2055.000000	74.282289
2054.000000	74.216498
2053.000000	74.156029
2052.000000	74.101306
2051.000000	74.051710
2050.000000	74.008038
2049.000000	73.973105
2048.000000	73.948511
2047.000000	73.933027
2046.000000	73.925162
2045.000000	73.924019
2044.000000	73.927320
2043.000000	73.931998
2042.000000	73.937947
2041.000000	73.948751
2040.000000	73.967433
2039.000000	73.994516
2038.000000	74.030811
2037.000000	74.078327
2036.000000	74.137347
2035.000000	74.205099
2034.000000	74.278569
2033.000000	74.356072
2032.000000	74.435373
2031.000000	74.513419
2030.000000	74.588763
2029.000000	74.662380
2028.000000	74.734991
2027.000000	74.806176
2026.000000	74.876019
2025.000000	74.945447
2024.000000	75.014023
2023.000000	75.079304
2022.000000	75.140450
2021.000000	75.199288
2020.000000	75.257039
2019.000000	75.312971
2018.000000	75.368035
2017.000000	75.426779
2016.000000	75.493067
2015.000000	75.565910
2014.000000	75.641396
2013.000000	75.716807
2012.000000	75.791219
2011.000000	75.864161
2010.000000	75.935580
2009.000000	76.006060
2008.000000	76.075747
2007.000000	76.144506
2006.000000	76.212904
2005.000000	76.282139
2004.000000	76.352309
2003.000000	76.421262
2002.000000	76.487156
2001.000000	76.548716
2000.000000	76.605013
1999.000000	76.655732
1998.000000	76.701400
1997.000000	76.744733
1996.000000	76.789145
1995.000000	76.835503
1994.000000	76.881891
1993.000000	76.928044
1992.000000	76.977880
1991.000000	77.035479
1990.000000	77.099542
1989.000000	77.164646
1988.000000	77.227368
1987.000000	77.288971
1986.000000	77.352112
1985.000000	77.417007
1984.000000	77.482059
1983.000000	77.546615
1982.000000	77.611509
1981.000000	77.676068
1980.000000	77.738501
1979.000000	77.798254
1978.000000	77.855934
1977.000000	77.912873
1976.000000	77.970692
1975.000000	78.030846
1974.000000	78.093094
1973.000000	78.155494
1972.000000	78.216001
1971.000000	78.272979
1970.000000	78.323695
1969.000000	78.364885
1968.000000	78.396136
1967.000000	78.421558
1966.000000	78.446183
1965.000000	78.470584
1964.000000	78.490874
1963.000000	78.503091
1962.000000	78.505709
1961.000000	78.498977
1960.000000	78.483856
1959.000000	78.462324
1958.000000	78.437938
1957.000000	78.414965
1956.000000	78.397515
1955.000000	78.389465
1954.000000	78.392837
1953.000000	78.406891
1952.000000	78.427926
1951.000000	78.451690
1950.000000	78.476226
1949.000000	78.499234
1948.000000	78.517562
1947.000000	78.530818
1946.000000	78.541793
1945.000000	78.551767
1944.000000	78.558625
1943.000000	78.562816
1942.000000	78.570670
1941.000000	78.586331
1940.000000	78.604681
1939.000000	78.616980
1938.000000	78.620409
1937.000000	78.619012
1936.000000	78.617079
1935.000000	78.614644
1934.000000	78.609729
1933.000000	78.602719
1932.000000	78.593843
1931.000000	78.582654
1930.000000	78.571122
1929.000000	78.560546
1928.000000	78.552199
1927.000000	78.547301
1926.000000	78.547995
1925.000000	78.553896
1924.000000	78.559563
1923.000000	78.565630
1922.000000	78.581122
1921.000000	78.609174
1920.000000	78.638198
1919.000000	78.653907
1918.000000	78.658271
1917.000000	78.664882
1916.000000	78.675747
1915.000000	78.680107
1914.000000	78.671467
1913.000000	78.654622
1912.000000	78.635647
1911.000000	78.616009
1910.000000	78.598140
1909.000000	78.586863
1908.000000	78.585322
1907.000000	78.590107
1906.000000	78.598378
1905.000000	78.611793
1904.000000	78.629685
1903.000000	78.651700
1902.000000	78.680996
1901.000000	78.720046
1900.000000	78.767190
1899.000000	78.818267
1898.000000	78.871449
1897.000000	78.926058
1896.000000	78.976834
1895.000000	79.019817
1894.000000	79.058919
1893.000000	79.099413
1892.000000	79.138415
1891.000000	79.169599
1890.000000	79.196245
1889.000000	79.230126
1888.000000	79.274345
1887.000000	79.318841
1886.000000	79.354153
1885.000000	79.380025
1884.000000	79.400914
1883.000000	79.421474
1882.000000	79.446224
1881.000000	79.477698
1880.000000	79.516137
1879.000000	79.559496
1878.000000	79.605195
1877.000000	79.652077
1876.000000	79.695920
1875.000000	79.730075
1874.000000	79.754666
1873.000000	79.777118
1872.000000	79.802318
1871.000000	79.828320
1870.000000	79.854337
1869.000000	79.888556
1868.000000	79.937811
1867.000000	79.994950
1866.000000	80.047258
1865.000000	80.088256
1864.000000	80.118206
1863.000000	80.141814
1862.000000	80.166841
1861.000000	80.199924
1860.000000	80.241758
1859.000000	80.288563
1858.000000	80.336926
1857.000000	80.384371
1856.000000	80.426453
1855.000000	80.458676
1854.000000	80.482726
1853.000000	80.502913
1852.000000	80.524998
1851.000000	80.552233
1850.000000	80.581352
1849.000000	80.611716
1848.000000	80.647829
1847.000000	80.693152
1846.000000	80.740017
1845.000000	80.774961
1844.000000	80.798914
1843.000000	80.827189
1842.000000	80.865215
1841.000000	80.904497
1840.000000	80.938494
1839.000000	80.967955
1838.000000	80.999388
1837.000000	81.034719
1836.000000	81.065422
1835.000000	81.085918
1834.000000	81.101132
1833.000000	81.118653
1832.000000	81.142038
1831.000000	81.168272
1830.000000	81.198002
1829.000000	81.240546
1828.000000	81.295045
1827.000000	81.345953
1826.000000	81.379038
1825.000000	81.400421
1824.000000	81.428915
1823.000000	81.468842
1822.000000	81.508932
1821.000000	81.542739
1820.000000	81.575142
1819.000000	81.608854
1818.000000	81.641896
1817.000000	81.673547
1816.000000	81.701897
1815.000000	81.722996
1814.000000	81.731879
1813.000000	81.730811
1812.000000	81.727107
1811.000000	81.723463
1810.000000	81.722560
1809.000000	81.726788
1808.000000	81.733152
1807.000000	81.735756
1806.000000	81.732526
1805.000000	81.725229
1804.000000	81.713519
1803.000000	81.698878
1802.000000	81.687601
1801.000000	81.691358
1800.000000	81.713857
1799.000000	81.740764
1798.000000	81.759420
1797.000000	81.771371
1796.000000	81.786402
1795.000000	81.809866
1794.000000	81.834174
1793.000000	81.849812
1792.000000	81.860618
1791.000000	81.874843
1790.000000	81.893429
1789.000000	81.911884
1788.000000	81.925551
1787.000000	81.930680
1786.000000	81.930046
1785.000000	81.932841
1784.000000	81.944018
1783.000000	81.960619
1782.000000	81.968907
1781.000000	81.962911
1780.000000	81.956791
1779.000000	81.962545
1778.000000	81.978155
1777.000000	81.995405
1776.000000	82.021246
1775.000000	82.070204
1774.000000	82.135818
1773.000000	82.196105
1772.000000	82.247080
1771.000000	82.292482
1770.000000	82.325397
1769.000000	82.345069
1768.000000	82.364541
1767.000000	82.400445
1766.000000	82.452866
1765.000000	82.507473
1764.000000	82.551349
1763.000000	82.576923
1762.000000	82.583702
1761.000000	82.583505
1760.000000	82.586143
1759.000000	82.591297
1758.000000	82.595877
1757.000000	82.600525
1756.000000	82.623169
1755.000000	82.669669
1754.000000	82.717050
1753.000000	82.739973
1752.000000	82.739532
1751.000000	82.741508
1750.000000	82.764707
1749.000000	82.799818
1748.000000	82.835323
1747.000000	82.877944
1746.000000	82.925780
1745.000000	82.969307
1744.000000	83.009037
1743.000000	83.052897
1742.000000	83.101280
1741.000000	83.138906
1740.000000	83.148220
1739.000000	83.137670
1738.000000	83.133140
1737.000000	83.146826
1736.000000	83.168988
1735.000000	83.178357
1734.000000	83.187499
1733.000000	83.218169
1732.000000	83.243496
1731.000000	83.236597
1730.000000	83.205839
1729.000000	83.170813
1728.000000	83.149670
1727.000000	83.145345
1726.000000	83.146558
1725.000000	83.147977
1724.000000	83.150595
1723.000000	83.152590
1722.000000	83.155974
1721.000000	83.162103
1720.000000	83.166683
1719.000000	83.156543
1718.000000	83.141154
1717.000000	83.155960
1716.000000	83.196807
1715.000000	83.230219
1714.000000	83.252120
1713.000000	83.275284
1712.000000	83.298468
1711.000000	83.312870
1710.000000	83.319550
1709.000000	83.328259
1708.000000	83.347884
1707.000000	83.372972
1706.000000	83.393590
1705.000000	83.416889
1704.000000	83.453777
1703.000000	83.511677
1702.000000	83.580966
1701.000000	83.633521
1700.000000	83.675022
1699.000000	83.724331
1698.000000	83.772111
1697.000000	83.809067
1696.000000	83.832916
1695.000000	83.859605
1694.000000	83.895786
1693.000000	83.922053
1692.000000	83.930531
1691.000000	83.926457
1690.000000	83.918579
1689.000000	83.908500
1688.000000	83.903723
1687.000000	83.916231
1686.000000	83.939450
1685.000000	83.945878
1684.000000	83.943400
1683.000000	83.964732
1682.000000	83.984832
1681.000000	83.967216
1680.000000	83.919056
1679.000000	83.873387
1678.000000	83.846521
1677.000000	83.813604
1676.000000	83.749551
1675.000000	83.677968
1674.000000	83.629748
1673.000000	83.592805
1672.000000	83.549927
1671.000000	83.504575
1670.000000	83.466246
1669.000000	83.421995
1668.000000	83.355118
1667.000000	83.273662
1666.000000	83.191119
1665.000000	83.104562
1664.000000	83.003636
1663.000000	82.902826
1662.000000	82.821139
1661.000000	82.734837
1660.000000	82.615536
1659.000000	82.465085
1658.000000	82.296742
1657.000000	82.114874
1656.000000	81.927084
1655.000000	81.724004
1654.000000	81.447722
1653.000000	81.077266
1652.000000	80.667530
1651.000000	80.240014
1650.000000	79.756965
1649.000000	79.121819
1648.000000	78.169752
1647.000000	76.799099
1646.000000	75.071526
1645.000000	73.096962
1644.000000	70.872693
1643.000000	68.314932
1642.000000	65.362107
1641.000000	62.081545
1640.000000	58.736160
1639.000000	55.632507
1638.000000	52.940499
1637.000000	50.745612
1636.000000	49.281616
1635.000000	48.832612
1634.000000	49.316914
1633.000000	50.413233
1632.000000	51.897037
1631.000000	53.652774
1630.000000	55.600873
1629.000000	57.667039
1628.000000	59.754334
1627.000000	61.723443
1626.000000	63.491947
1625.000000	65.127035
1624.000000	66.744907
1623.000000	68.325364
1622.000000	69.716574
1621.000000	70.846262
1620.000000	71.792967
1619.000000	72.664125
1618.000000	73.517824
1617.000000	74.363029
1616.000000	75.145405
1615.000000	75.768272
1614.000000	76.206095
1613.000000	76.530084
1612.000000	76.815373
1611.000000	77.071855
1610.000000	77.254571
1609.000000	77.338077
1608.000000	77.327138
1607.000000	77.202518
1606.000000	76.911308
1605.000000	76.412858
1604.000000	75.700857
1603.000000	74.762331
1602.000000	73.588795
1601.000000	72.238739
1600.000000	70.840086
1599.000000	69.524673
1598.000000	68.374452
1597.000000	67.429489
1596.000000	66.701690
1595.000000	66.153681
1594.000000	65.692924
1593.000000	65.230395
1592.000000	64.733752
1591.000000	64.200978
1590.000000	63.620353
1589.000000	62.983068
1588.000000	62.301733
1587.000000	61.576844
1586.000000	60.774370
1585.000000	59.865113
1584.000000	58.870296
1583.000000	57.826289
1582.000000	56.730660
1581.000000	55.579811
1580.000000	54.407848
1579.000000	53.206187
1578.000000	51.819429
1577.000000	50.016682
1576.000000	47.832347
1575.000000	45.682841
1574.000000	43.867398
1573.000000	42.313413
1572.000000	40.868063
1571.000000	39.497949
1570.000000	38.291289
1569.000000	37.367148
1568.000000	36.795381
1567.000000	36.584899
1566.000000	36.675081
1565.000000	36.959495
1564.000000	37.376594
1563.000000	37.924302
1562.000000	38.623795
1561.000000	39.519931
1560.000000	40.798367
1559.000000	42.590899
1558.000000	44.442800
1557.000000	45.838117
1556.000000	46.862964
1555.000000	47.786545
1554.000000	48.682705
1553.000000	49.473611
1552.000000	50.126828
1551.000000	50.743902
1550.000000	51.438393
1549.000000	52.230668
1548.000000	53.090681
1547.000000	54.040415
1546.000000	55.120688
1545.000000	56.299454
1544.000000	57.486797
1543.000000	58.637734
1542.000000	59.784726
1541.000000	60.968560
1540.000000	62.160197
1539.000000	63.244993
1538.000000	64.123219
1537.000000	64.817052
1536.000000	65.438410
1535.000000	66.109314
1534.000000	66.877621
1533.000000	67.669164
1532.000000	68.379919
1531.000000	68.996661
1530.000000	69.565931
1529.000000	70.110832
1528.000000	70.637791
1527.000000	71.164372
1526.000000	71.686190
1525.000000	72.162603
1524.000000	72.577969
1523.000000	72.965535
1522.000000	73.349650
1521.000000	73.704976
1520.000000	74.007325
1519.000000	74.278562
1518.000000	74.544502
1517.000000	74.804005
1516.000000	75.056137
1515.000000	75.312465
1514.000000	75.565771
1513.000000	75.792450
1512.000000	75.986206
1511.000000	76.165757
1510.000000	76.346559
1509.000000	76.531376
1508.000000	76.741816
1507.000000	77.031926
1506.000000	77.385174
1505.000000	77.677781
1504.000000	77.869404
1503.000000	78.023765
1502.000000	78.180419
1501.000000	78.333735
1500.000000	78.479641
1499.000000	78.634267
1498.000000	78.797501
1497.000000	78.948859
1496.000000	79.083978
1495.000000	79.219382
1494.000000	79.351706
1493.000000	79.458782
1492.000000	79.540517
1491.000000	79.619794
1490.000000	79.705679
1489.000000	79.779734
1488.000000	79.830086
1487.000000	79.863183
1486.000000	79.872237
1485.000000	79.825581
1484.000000	79.714148
1483.000000	79.542098
1482.000000	79.275809
1481.000000	78.869899
1480.000000	78.312810
1479.000000	77.581633
1478.000000	76.572487
1477.000000	75.189115
1476.000000	73.474705
1475.000000	71.548063
1474.000000	69.431541
1473.000000	67.156703
1472.000000	65.008006
1471.000000	63.321226
1470.000000	62.150382
1469.000000	61.382325
1468.000000	60.972718
1467.000000	60.978295
1466.000000	61.483060
1465.000000	62.467709
1464.000000	63.712287
1463.000000	64.888413
1462.000000	65.771112
1461.000000	66.289153
1460.000000	66.430302
1459.000000	66.166844
1458.000000	65.448999
1457.000000	64.401379
1456.000000	63.417579
1455.000000	62.771911
1454.000000	62.414460
1453.000000	62.218538
1452.000000	62.120611
1451.000000	62.101644
1450.000000	62.165384
1449.000000	62.336978
1448.000000	62.635227
1447.000000	63.033496
1446.000000	63.482091
1445.000000	63.969666
1444.000000	64.532898
1443.000000	65.206439
1442.000000	66.006189
1441.000000	66.931442
1440.000000	67.970202
1439.000000	69.118111
1438.000000	70.396573
1437.000000	71.781596
1436.000000	73.097368
1435.000000	74.146511
1434.000000	74.925562
1433.000000	75.555915
1432.000000	76.113140
1431.000000	76.603662
1430.000000	77.021355
1429.000000	77.376448
1428.000000	77.670318
1427.000000	77.907864
1426.000000	78.115832
1425.000000	78.323070
1424.000000	78.540156
1423.000000	78.755255
1422.000000	78.962113
1421.000000	79.163755
1420.000000	79.352884
1419.000000	79.517923
1418.000000	79.667324
1417.000000	79.818331
1416.000000	79.971187
1415.000000	80.120702
1414.000000	80.271044
1413.000000	80.429285
1412.000000	80.590112
1411.000000	80.740260
1410.000000	80.878005
1409.000000	81.011275
1408.000000	81.134462
1407.000000	81.238343
1406.000000	81.330784
1405.000000	81.422573
1404.000000	81.505343
1403.000000	81.552445
1402.000000	81.537323
1401.000000	81.422921
1400.000000	81.161647
1399.000000	80.762673
1398.000000	80.339408
1397.000000	80.037905
1396.000000	79.940684
1395.000000	80.039932
1394.000000	80.246227
1393.000000	80.453579
1392.000000	80.624315
1391.000000	80.795132
1390.000000	81.023870
1389.000000	81.340015
1388.000000	81.725147
1387.000000	82.123618
1386.000000	82.477068
1385.000000	82.751270
1384.000000	82.940095
1383.000000	83.058050
1382.000000	83.136633
1381.000000	83.204573
1380.000000	83.263889
1379.000000	83.293801
1378.000000	83.262812
1377.000000	83.114115
1376.000000	82.721888
1375.000000	81.870142
1374.000000	80.290747
1373.000000	77.780374
1372.000000	74.349778
1371.000000	70.347296
1370.000000	66.504467
1369.000000	63.767870
1368.000000	62.817450
1367.000000	63.582383
1366.000000	65.319420
1365.000000	67.128623
1364.000000	68.324762
1363.000000	68.565502
1362.000000	67.938334
1361.000000	66.971012
1360.000000	66.402232
1359.000000	66.815573
1358.000000	68.358320
1357.000000	70.686321
1356.000000	73.205964
1355.000000	75.427197
1354.000000	77.153348
1353.000000	78.430731
1352.000000	79.387957
1351.000000	80.137426
1350.000000	80.756169
1349.000000	81.282667
1348.000000	81.724661
1347.000000	82.082532
1346.000000	82.366452
1345.000000	82.588121
1344.000000	82.756648
1343.000000	82.886401
1342.000000	83.002865
1341.000000	83.130593
1340.000000	83.280555
1339.000000	83.451561
1338.000000	83.631912
1337.000000	83.798199
1336.000000	83.921171
1335.000000	83.978575
1334.000000	83.957526
1333.000000	83.831617
1332.000000	83.543963
1331.000000	83.020383
1330.000000	82.200112
1329.000000	81.059254
1328.000000	79.593118
1327.000000	77.784048
1326.000000	75.618443
1325.000000	73.194468
1324.000000	70.848430
1323.000000	69.090992
1322.000000	68.299455
1321.000000	68.446950
1320.000000	69.156350
1319.000000	70.004169
1318.000000	70.773908
1317.000000	71.455378
1316.000000	72.096634
1315.000000	72.724068
1314.000000	73.362540
1313.000000	74.067237
1312.000000	74.900432
1311.000000	75.877885
1310.000000	76.939989
1309.000000	77.970198
1308.000000	78.843319
1307.000000	79.474216
1306.000000	79.836419
1305.000000	79.932337
1304.000000	79.761585
1303.000000	79.314600
1302.000000	78.585127
1301.000000	77.599895
1300.000000	76.458023
1299.000000	75.350295
1298.000000	74.499110
1297.000000	74.035953
1296.000000	73.921927
1295.000000	73.972742
1294.000000	73.952117
1293.000000	73.656752
1292.000000	72.960780
1291.000000	71.823048
1290.000000	70.256381
1289.000000	68.309137
1288.000000	66.117135
1287.000000	63.978346
1286.000000	62.306770
1285.000000	61.440506
1284.000000	61.467911
1283.000000	62.228595
1282.000000	63.479710
1281.000000	65.041094
1280.000000	66.789169
1279.000000	68.551986
1278.000000	70.075249
1277.000000	71.127856
1276.000000	71.623971
1275.000000	71.644497
1274.000000	71.377726
1273.000000	71.061215
1272.000000	70.944923
1271.000000	71.237307
1270.000000	72.024084
1269.000000	73.225341
1268.000000	74.644051
1267.000000	76.072011
1266.000000	77.370820
1265.000000	78.486433
1264.000000	79.417573
1263.000000	80.182117
1262.000000	80.801448
1261.000000	81.297116
1260.000000	81.690162
1259.000000	82.004104
1258.000000	82.270698
1257.000000	82.518877
1256.000000	82.762354
1255.000000	83.001316
1254.000000	83.229219
1253.000000	83.436326
1252.000000	83.609711
1251.000000	83.742045
1250.000000	83.840741
1249.000000	83.922880
1248.000000	84.004585
1247.000000	84.098115
1246.000000	84.212530
1245.000000	84.347610
1244.000000	84.487959
1243.000000	84.611471
1242.000000	84.702971
1241.000000	84.756816
1240.000000	84.772992
1239.000000	84.758463
1238.000000	84.729375
1237.000000	84.701619
1236.000000	84.679318
1235.000000	84.656698
1234.000000	84.625042
1233.000000	84.573830
1232.000000	84.489839
1231.000000	84.363721
1230.000000	84.197255
1229.000000	83.995632
1228.000000	83.757551
1227.000000	83.474964
1226.000000	83.134103
1225.000000	82.712646
1224.000000	82.172037
1223.000000	81.466267
1222.000000	80.553956
1221.000000	79.398646
1220.000000	77.979686
1219.000000	76.304071
1218.000000	74.414486
1217.000000	72.384188
1216.000000	70.310399
1215.000000	68.315404
1214.000000	66.540936
1213.000000	65.128814
1212.000000	64.194183
1211.000000	63.795209
1210.000000	63.889250
1209.000000	64.334765
1208.000000	64.938654
1207.000000	65.507746
1206.000000	65.889779
1205.000000	65.988876
1204.000000	65.766562
1203.000000	65.235303
1202.000000	64.455273
1201.000000	63.541389
1200.000000	62.669126
1199.000000	62.047278
1198.000000	61.848631
1197.000000	62.141838
1196.000000	62.885533
1195.000000	63.965200
1194.000000	65.247796
1193.000000	66.627885
1192.000000	68.036800
1191.000000	69.434415
1190.000000	70.789830
1189.000000	72.073225
1188.000000	73.257737
1187.000000	74.323596
1186.000000	75.261588
1185.000000	76.077269
1184.000000	76.788331
1183.000000	77.411907
1182.000000	77.959751
1181.000000	78.434762
1180.000000	78.836433
1179.000000	79.168289
1178.000000	79.433814
1177.000000	79.633422
1176.000000	79.762434
1175.000000	79.818420
1174.000000	79.806222
1173.000000	79.724055
1172.000000	79.554143
1171.000000	79.257525
1170.000000	78.777319
1169.000000	78.049774
1168.000000	77.019867
1167.000000	75.682008
1166.000000	74.115377
1165.000000	72.490277
1164.000000	71.037891
1163.000000	69.989865
1162.000000	69.497014
1161.000000	69.580673
1160.000000	70.144537
1159.000000	71.017131
1158.000000	72.016514
1157.000000	72.994289
1156.000000	73.856983
1155.000000	74.565954
1154.000000	75.119311
1153.000000	75.531284
1152.000000	75.815345
1151.000000	75.975578
1150.000000	76.000526
1149.000000	75.870309
1148.000000	75.553882
1147.000000	75.014822
1146.000000	74.215841
1145.000000	73.105000
1144.000000	71.621761
1143.000000	69.700232
1142.000000	67.299131
1141.000000	64.452887
1140.000000	61.305181
1139.000000	58.098569
1138.000000	55.077067
1137.000000	52.370510
1136.000000	49.952771
1135.000000	47.711636
1134.000000	45.577075
1133.000000	43.664486
1132.000000	42.319905
1131.000000	41.976140
1130.000000	42.932075
1129.000000	45.161446
1128.000000	48.309611
1127.000000	51.826199
1126.000000	55.129919
1125.000000	57.747749
1124.000000	59.369684
1123.000000	59.839362
1122.000000	59.133098
1121.000000	57.357495
1120.000000	54.697494
1119.000000	51.402381
1118.000000	47.833466
1117.000000	44.538371
1116.000000	42.218365
1115.000000	41.492751
1114.000000	42.570335
1113.000000	45.107808
1112.000000	48.365046
1111.000000	51.484223
1110.000000	53.803595
1109.000000	55.093313
1108.000000	55.609597
1107.000000	55.903852
1106.000000	56.473799
1105.000000	57.496187
1104.000000	58.801762
1103.000000	60.021294
1102.000000	60.730046
1101.000000	60.588094
1100.000000	59.490290
1099.000000	57.707635
1098.000000	55.884561
1097.000000	54.806786
1096.000000	55.031672
1095.000000	56.619220
1094.000000	59.142498
1093.000000	61.966663
1092.000000	64.586423
1091.000000	66.767289
1090.000000	68.496242
1089.000000	69.861285
1088.000000	70.964937
1087.000000	71.890742
1086.000000	72.697820
1085.000000	73.417147
1084.000000	74.052265
1083.000000	74.599503
1082.000000	75.054995
1081.000000	75.419944
1080.000000	75.702107
1079.000000	75.912623
1078.000000	76.064537
1077.000000	76.155430
1076.000000	76.159182
1075.000000	76.030978
1074.000000	75.705951
1073.000000	75.108984
1072.000000	74.137034
1071.000000	72.653672
1070.000000	70.488555
1069.000000	67.415338
1068.000000	63.219451
1067.000000	57.836595
1066.000000	51.556691
1065.000000	45.135054
1064.000000	39.624536
1063.000000	35.891923
1062.000000	34.080984
1061.000000	33.466640
1060.000000	32.898861
1059.000000	31.575903
1058.000000	29.541709
1057.000000	27.646605
1056.000000	27.000636
1055.000000	28.267417
1054.000000	31.348060
1053.000000	35.555956
1052.000000	40.083210
1051.000000	44.360457
1050.000000	48.121083
1049.000000	51.329903
1048.000000	54.072703
1047.000000	56.464846
1046.000000	58.582133
1045.000000	60.455102
1044.000000	62.088364
1043.000000	63.491021
1042.000000	64.682680
1041.000000	65.681567
1040.000000	66.515695
1039.000000	67.218069
1038.000000	67.817755
1037.000000	68.333160
1036.000000	68.772881
1035.000000	69.147764
1034.000000	69.465900
1033.000000	69.729265
1032.000000	69.941608
1031.000000	70.113795
1030.000000	70.260981
1029.000000	70.392067
1028.000000	70.508592
1027.000000	70.609788
1026.000000	70.688950
1025.000000	70.731696
1024.000000	70.720427
1023.000000	70.641554
1022.000000	70.486658
1021.000000	70.241367
1020.000000	69.885728
1019.000000	69.394294
1018.000000	68.730284
1017.000000	67.847759
1016.000000	66.697898
1015.000000	65.260758
1014.000000	63.577251
1013.000000	61.772473
1012.000000	60.053045
1011.000000	58.644381
1010.000000	57.672721
1009.000000	57.070639
1008.000000	56.612949
1007.000000	56.086580
1006.000000	55.502514
1005.000000	55.155596
1004.000000	55.454654
1003.000000	56.631072
1002.000000	58.548182
1001.000000	60.788696
1000.000000	62.893016
999.000000	64.543849
998.000000	65.605044
997.000000	66.075785
996.000000	66.053802
995.000000	65.724594
994.000000	65.345100
993.000000	65.190694
992.000000	65.477267
991.000000	66.277387
990.000000	67.484658
989.000000	68.874177
988.000000	70.226893
987.000000	71.412039
986.000000	72.394994
985.000000	73.200707
984.000000	73.879333
983.000000	74.484457
982.000000	75.056085
981.000000	75.607835
980.000000	76.130083
979.000000	76.606783
978.000000	77.020794
977.000000	77.358901
976.000000	77.620478
975.000000	77.824589
974.000000	78.005250
973.000000	78.194490
972.000000	78.413063
971.000000	78.668370
970.000000	78.951121
969.000000	79.235250
968.000000	79.487723
967.000000	79.685761
966.000000	79.826442
965.000000	79.924067
964.000000	80.004775
963.000000	80.100488
962.000000	80.237337
961.000000	80.422766
960.000000	80.643478
959.000000	80.874944
958.000000	81.089820
957.000000	81.263676
956.000000	81.384192
955.000000	81.460316
954.000000	81.519067
953.000000	81.590810
952.000000	81.697458
951.000000	81.849541
950.000000	82.043714
949.000000	82.259902
948.000000	82.466826
947.000000	82.636952
946.000000	82.758008
945.000000	82.833264
944.000000	82.878597
943.000000	82.920307
942.000000	82.986643
941.000000	83.093986
940.000000	83.240587
939.000000	83.412052
938.000000	83.587581
937.000000	83.742419
936.000000	83.854668
935.000000	83.917103
934.000000	83.941941
933.000000	83.952839
932.000000	83.974869
931.000000	84.030331
930.000000	84.132901
929.000000	84.278244
928.000000	84.442921
927.000000	84.596681
926.000000	84.715619
925.000000	84.786158
924.000000	84.807368
923.000000	84.795949
922.000000	84.783012
921.000000	84.798492
920.000000	84.858115
919.000000	84.962918
918.000000	85.102411
917.000000	85.253006
916.000000	85.381299
915.000000	85.458898
914.000000	85.476964
913.000000	85.446635
912.000000	85.389648
911.000000	85.332442
910.000000	85.296354
909.000000	85.278487
908.000000	85.240688
907.000000	85.114531
906.000000	84.822275
905.000000	84.293590
904.000000	83.490235
903.000000	82.452923
902.000000	81.342112
901.000000	80.418568
900.000000	79.945444
899.000000	80.057420
898.000000	80.684771
897.000000	81.604369
896.000000	82.563208
895.000000	83.384997
894.000000	84.002811
893.000000	84.424885
892.000000	84.698675
891.000000	84.889159
890.000000	85.061211
889.000000	85.255092
888.000000	85.476604
887.000000	85.695714
886.000000	85.848731
885.000000	85.848051
884.000000	85.617011
883.000000	85.150931
882.000000	84.541448
881.000000	83.926954
880.000000	83.401738
879.000000	82.970346
878.000000	82.593417
877.000000	82.276701
876.000000	82.112444
875.000000	82.214923
874.000000	82.613433
873.000000	83.206965
872.000000	83.831527
871.000000	84.368738
870.000000	84.794868
869.000000	85.151222
868.000000	85.486324
867.000000	85.823550
866.000000	86.153677
865.000000	86.443825
864.000000	86.654580
863.000000	86.764392
862.000000	86.782308
861.000000	86.742173
860.000000	86.691110
859.000000	86.677957
858.000000	86.737754
857.000000	86.874226
856.000000	87.057388
855.000000	87.240751
854.000000	87.379845
853.000000	87.443242
852.000000	87.422506
851.000000	87.340973
850.000000	87.246930
849.000000	87.190300
848.000000	87.202747
847.000000	87.292120
846.000000	87.442257
845.000000	87.614050
844.000000	87.756913
843.000000	87.831865
842.000000	87.828302
841.000000	87.762444
840.000000	87.668261
839.000000	87.590206
838.000000	87.569760
837.000000	87.625891
836.000000	87.746731
835.000000	87.899489
834.000000	88.044266
833.000000	88.143006
832.000000	88.170241
831.000000	88.127311
830.000000	88.044746
829.000000	87.966271
828.000000	87.930049
827.000000	87.960733
826.000000	88.064438
825.000000	88.221460
824.000000	88.388930
823.000000	88.520093
822.000000	88.584102
821.000000	88.571867
820.000000	88.495542
819.000000	88.388460
818.000000	88.295591
817.000000	88.253168
816.000000	88.273476
815.000000	88.344331
814.000000	88.434070
813.000000	88.496059
812.000000	88.481768
811.000000	88.360387
810.000000	88.129655
809.000000	87.809518
808.000000	87.428298
807.000000	87.014622
806.000000	86.583390
805.000000	86.118032
804.000000	85.567761
803.000000	84.857946
802.000000	83.910165
801.000000	82.654730
800.000000	81.049461
799.000000	79.103216
798.000000	76.873410
797.000000	74.449877
796.000000	71.935721
795.000000	69.438016
794.000000	67.056381
793.000000	64.878425
792.000000	62.989557
791.000000	61.479351
790.000000	60.431270
789.000000	59.896589
788.000000	59.888852
787.000000	60.374328
786.000000	61.270108
785.000000	62.456458
784.000000	63.792283
783.000000	65.132825
782.000000	66.335172
781.000000	67.275238
780.000000	67.872954
779.000000	68.115545
778.000000	68.056821
777.000000	67.792346
776.000000	67.422730
775.000000	67.021073
774.000000	66.627198
773.000000	66.270576
772.000000	66.008091
771.000000	65.931288
770.000000	66.134720
769.000000	66.669731
768.000000	67.527487
767.000000	68.652424
766.000000	69.968058
765.000000	71.400779
764.000000	72.886159
763.000000	74.365035
762.000000	75.773681
761.000000	77.044863
760.000000	78.122588
759.000000	78.984111
758.000000	79.652082
757.000000	80.188508
756.000000	80.676544
755.000000	81.193768
754.000000	81.785254
753.000000	82.445962
752.000000	83.124467
751.000000	83.745043
750.000000	84.234300
749.000000	84.547995
748.000000	84.692231
747.000000	84.727092
746.000000	84.743260
745.000000	84.824857
744.000000	85.021720
743.000000	85.335684
742.000000	85.717005
741.000000	86.078108
740.000000	86.328537
739.000000	86.414232
738.000000	86.334589
737.000000	86.135861
736.000000	85.895518
735.000000	85.698056
734.000000	85.600937
733.000000	85.610992
732.000000	85.689744
731.000000	85.775850
730.000000	85.803040
729.000000	85.716530
728.000000	85.495526
727.000000	85.165550
726.000000	84.781887
725.000000	84.399566
724.000000	84.053382
723.000000	83.741843
722.000000	83.401935
721.000000	82.903337
720.000000	82.098908
719.000000	80.912451
718.000000	79.391320
717.000000	77.696772
716.000000	76.063343
715.000000	74.742327
714.000000	73.933073
713.000000	73.725861
712.000000	74.085612
711.000000	74.877426
710.000000	75.916141
709.000000	77.019221
708.000000	78.050467
707.000000	78.945734
706.000000	79.711497
705.000000	80.400373
704.000000	81.078472
703.000000	81.799317
702.000000	82.580943
701.000000	83.393190
700.000000	84.170440
699.000000	84.839909
698.000000	85.345883
697.000000	85.665892
696.000000	85.825409
695.000000	85.899566
694.000000	85.980693
693.000000	86.137695
692.000000	86.403984
691.000000	86.775905
690.000000	87.204236
689.000000	87.596312
688.000000	87.857079
687.000000	87.945992
686.000000	87.882648
685.000000	87.720644
684.000000	87.543971
683.000000	87.455740
682.000000	87.525891
681.000000	87.747090
680.000000	88.050980
679.000000	88.353594
678.000000	88.565318
677.000000	88.603839
676.000000	88.457600
675.000000	88.190516
674.000000	87.907283
673.000000	87.742173
672.000000	87.837077
671.000000	88.270863
670.000000	88.979527
669.000000	89.657256
668.000000	89.815230
667.000000	89.354531
666.000000	88.716903
665.000000	88.215239
664.000000	87.878386
663.000000	87.674438
662.000000	87.620367
661.000000	87.748762
660.000000	88.029749
659.000000	88.361291
658.000000	88.619594
657.000000	88.714232
656.000000	88.617106
655.000000	88.351978
654.000000	88.008543
653.000000	87.726354
652.000000	87.611998
651.000000	87.689191
650.000000	87.914365
649.000000	88.201447
648.000000	88.426967
647.000000	88.469061
646.000000	88.288275
645.000000	87.949376
644.000000	87.558771
643.000000	87.215186
642.000000	87.001916
641.000000	86.968091
640.000000	87.091391
639.000000	87.277641
638.000000	87.414263
637.000000	87.420585
636.000000	87.256698
635.000000	86.930717
634.000000	86.515250
633.000000	86.122598
632.000000	85.843094
631.000000	85.709840
630.000000	85.705465
629.000000	85.774649
628.000000	85.830319
627.000000	85.779117
626.000000	85.568827
625.000000	85.211196
624.000000	84.760562
623.000000	84.289261
622.000000	83.876470
621.000000	83.586084
620.000000	83.431795
619.000000	83.360584
618.000000	83.271113
617.000000	83.059536
616.000000	82.668338
615.000000	82.105253
614.000000	81.422741
613.000000	80.681099
612.000000	79.930109
611.000000	79.211642
610.000000	78.546840
609.000000	77.911379
608.000000	77.240356
607.000000	76.459107
606.000000	75.506062
605.000000	74.339912
604.000000	72.958700
603.000000	71.418138
602.000000	69.798990
601.000000	68.158202
600.000000	66.528957
599.000000	64.939940
598.000000	63.391603
597.000000	61.832856
596.000000	60.212198
595.000000	58.536439
594.000000	56.848467
593.000000	55.179765
592.000000	53.580559
591.000000	52.147599
590.000000	50.951076
589.000000	49.964887
588.000000	49.112438
587.000000	48.331635
586.000000	47.543369
585.000000	46.628002
584.000000	45.515736
583.000000	44.264824
582.000000	43.004129
581.000000	41.853953
580.000000	40.946096
579.000000	40.448903
578.000000	40.467882
577.000000	40.969515
576.000000	41.835039
575.000000	42.914594
574.000000	44.019577
573.000000	44.956917
572.000000	45.655954
571.000000	46.234486
570.000000	46.907086
569.000000	47.840707
568.000000	49.088019
567.000000	50.579122
566.000000	52.129623
565.000000	53.525959
564.000000	54.652688
563.000000	55.525488
562.000000	56.219021
561.000000	56.807172
560.000000	57.371695
559.000000	57.998853
558.000000	58.725251
557.000000	59.512025
556.000000	60.290499
555.000000	61.010405
554.000000	61.635359
553.000000	62.144358
552.000000	62.566187
551.000000	62.984193
550.000000	63.478234
549.000000	64.072330
548.000000	64.747524
547.000000	65.469039
546.000000	66.179062
545.000000	66.799975
544.000000	67.279019
543.000000	67.624847
542.000000	67.894844
541.000000	68.157426
540.000000	68.471682
539.000000	68.876926
538.000000	69.372415
537.000000	69.910156
536.000000	70.417165
535.000000	70.827786
534.000000	71.102246
533.000000	71.240141
532.000000	71.285836
531.000000	71.310366
530.000000	71.370911
529.000000	71.478661
528.000000	71.600484
527.000000	71.680533
526.000000	71.644659
525.000000	71.415801
524.000000	70.957707
523.000000	70.308484
522.000000	69.573359
521.000000	68.874119
520.000000	68.291222
519.000000	67.811110
518.000000	67.282040
517.000000	66.453683
516.000000	65.113527
515.000000	63.235278
514.000000	61.010747
513.000000	58.772499
512.000000	56.893656
511.000000	55.698981
510.000000	55.356087
509.000000	55.835516
508.000000	57.005690
507.000000	58.684522
506.000000	60.627652
505.000000	62.587949
504.000000	64.421349
503.000000	66.098396
502.000000	67.609455
501.000000	68.931560
500.000000	70.073267
499.000000	71.089485
498.000000	72.025917
497.000000	72.891083
496.000000	73.678362
495.000000	74.387714
494.000000	75.025040
493.000000	75.590766
492.000000	76.088435
491.000000	76.531943
490.000000	76.935872
489.000000	77.313399
488.000000	77.679468
487.000000	78.051039
486.000000	78.434415
485.000000	78.813513
484.000000	79.159085
483.000000	79.447856
482.000000	79.673988
481.000000	79.844998
480.000000	79.971847
479.000000	80.067641
478.000000	80.144222
477.000000	80.204281
476.000000	80.231481
475.000000	80.176156
474.000000	79.953362
473.000000	79.460975
472.000000	78.642418
471.000000	77.562318
470.000000	76.402763
469.000000	75.390532
468.000000	74.728401
467.000000	74.496842
466.000000	74.536467
465.000000	74.492503
464.000000	74.044121
463.000000	73.123377
462.000000	71.994089
461.000000	71.109306
460.000000	70.887305
459.000000	71.565116
458.000000	73.073273
457.000000	74.984914
456.000000	76.792260
455.000000	78.260434
454.000000	79.389100
453.000000	80.208469
452.000000	80.721517
451.000000	80.969120
450.000000	81.024270
449.000000	80.921396
448.000000	80.633848
447.000000	80.118860
446.000000	79.380919
445.000000	78.497334
444.000000	77.632873
443.000000	77.021306
442.000000	76.848206
441.000000	77.117799
440.000000	77.695125
439.000000	78.431887
438.000000	79.212341
437.000000	79.943167
436.000000	80.545515
435.000000	80.970744
434.000000	81.211260
433.000000	81.294881
432.000000	81.273618
431.000000	81.219142
430.000000	81.190828
429.000000	81.189946
428.000000	81.174025
427.000000	81.107895
426.000000	80.981539
425.000000	80.790142
424.000000	80.543839
423.000000	80.298412
422.000000	80.115853
421.000000	79.998512
420.000000	79.916162
419.000000	79.890947
418.000000	79.959210
417.000000	80.051155
416.000000	80.070106
415.000000	80.009121
414.000000	79.937682
413.000000	79.932112
412.000000	80.027274
411.000000	80.215243
410.000000	80.450386
409.000000	80.654329
408.000000	80.768831
407.000000	80.795390
406.000000	80.769286
405.000000	80.723741
404.000000	80.715797
403.000000	80.836416
402.000000	81.124835
401.000000	81.493707
400.000000	81.813688
