PE IR       SUBTECH     SPECTRUM    ASCII       PEDS        4.00        
   -1
23MS081.asc
24/10/15
15:16:14.00
24/10/15
15:16:14.00
Administrator
Sample 1268 By Administrator Date Tuesday, October 15 2024
400.000000
#HDR
-1
-1
#GR
cm-1
%T
1.0
0.0
4000.000000
-1.000000
3601
8
119.913564
31.595318
#DATA
4000.000000	102.150988
3999.000000	102.106461
3998.000000	102.072766
3997.000000	102.047045
3996.000000	102.017320
3995.000000	101.976899
3994.000000	101.933685
3993.000000	101.899857
3992.000000	101.874639
3991.000000	101.845609
3990.000000	101.804904
3989.000000	101.756579
3988.000000	101.708282
3987.000000	101.662352
3986.000000	101.617320
3985.000000	101.571855
3984.000000	101.523861
3983.000000	101.468899
3982.000000	101.401990
3981.000000	101.324464
3980.000000	101.247400
3979.000000	101.184784
3978.000000	101.144977
3977.000000	101.129974
3976.000000	101.137019
3975.000000	101.159721
3974.000000	101.191120
3973.000000	101.231919
3972.000000	101.288795
3971.000000	101.362948
3970.000000	101.447797
3969.000000	101.530567
3968.000000	101.600458
3967.000000	101.656309
3966.000000	101.707200
3965.000000	101.763347
3964.000000	101.823085
3963.000000	101.868475
3962.000000	101.882090
3961.000000	101.870887
3960.000000	101.858772
3959.000000	101.857325
3958.000000	101.864348
3957.000000	101.872621
3956.000000	101.881402
3955.000000	101.895439
3954.000000	101.921632
3953.000000	101.969702
3952.000000	102.044137
3951.000000	102.142242
3950.000000	102.244878
3949.000000	102.314010
3948.000000	102.334610
3947.000000	102.361192
3946.000000	102.475967
3945.000000	102.689029
3944.000000	102.910465
3943.000000	103.035094
3942.000000	103.050359
3941.000000	103.048701
3940.000000	103.112424
3939.000000	103.216599
3938.000000	103.291643
3937.000000	103.320835
3936.000000	103.358076
3935.000000	103.450117
3934.000000	103.578923
3933.000000	103.689153
3932.000000	103.731818
3931.000000	103.700699
3930.000000	103.629170
3929.000000	103.580892
3928.000000	103.631664
3927.000000	103.779771
3926.000000	103.909570
3925.000000	103.908752
3924.000000	103.800717
3923.000000	103.709561
3922.000000	103.703422
3921.000000	103.758090
3920.000000	103.851874
3919.000000	103.977428
3918.000000	104.081962
3917.000000	104.095041
3916.000000	104.035836
3915.000000	104.011384
3914.000000	104.083704
3913.000000	104.212626
3912.000000	104.330232
3911.000000	104.375721
3910.000000	104.347825
3909.000000	104.293169
3908.000000	104.294493
3907.000000	104.402148
3906.000000	104.557876
3905.000000	104.625465
3904.000000	104.535149
3903.000000	104.406576
3902.000000	104.440009
3901.000000	104.642156
3900.000000	104.807219
3899.000000	104.795711
3898.000000	104.668887
3897.000000	104.577000
3896.000000	104.605280
3895.000000	104.768247
3894.000000	105.078063
3893.000000	105.433364
3892.000000	105.548118
3891.000000	105.201946
3890.000000	104.682986
3889.000000	104.524210
3888.000000	104.860379
3887.000000	105.340448
3886.000000	105.479982
3885.000000	105.159578
3884.000000	104.822490
3883.000000	104.896565
3882.000000	105.291701
3881.000000	105.574238
3880.000000	105.425503
3879.000000	105.010774
3878.000000	104.807735
3877.000000	105.005551
3876.000000	105.337985
3875.000000	105.412997
3874.000000	105.172772
3873.000000	105.009256
3872.000000	105.223274
3871.000000	105.557105
3870.000000	105.492789
3869.000000	105.018365
3868.000000	104.733267
3867.000000	104.944818
3866.000000	105.348175
3865.000000	105.603491
3864.000000	105.623034
3863.000000	105.491963
3862.000000	105.357459
3861.000000	105.261295
3860.000000	105.171802
3859.000000	105.039325
3858.000000	104.908551
3857.000000	104.941239
3856.000000	105.323396
3855.000000	106.021072
3854.000000	106.419765
3853.000000	105.759032
3852.000000	104.589516
3851.000000	104.119913
3850.000000	104.435130
3849.000000	104.964803
3848.000000	105.398225
3847.000000	105.685285
3846.000000	105.869306
3845.000000	105.971194
3844.000000	105.925510
3843.000000	105.722607
3842.000000	105.548372
3841.000000	105.565231
3840.000000	105.760242
3839.000000	105.950032
3838.000000	105.923154
3837.000000	105.651974
3836.000000	105.372783
3835.000000	105.352761
3834.000000	105.609368
3833.000000	105.907246
3832.000000	106.011801
3831.000000	105.917643
3830.000000	105.841230
3829.000000	105.965406
3828.000000	106.176490
3827.000000	106.168982
3826.000000	105.884627
3825.000000	105.652971
3824.000000	105.823075
3823.000000	106.347010
3822.000000	106.714362
3821.000000	106.365692
3820.000000	105.597929
3819.000000	105.329760
3818.000000	105.801205
3817.000000	106.429705
3816.000000	106.553867
3815.000000	106.156156
3814.000000	105.817144
3813.000000	105.828545
3812.000000	105.977210
3811.000000	106.106783
3810.000000	106.326783
3809.000000	106.716217
3808.000000	106.997048
3807.000000	106.753015
3806.000000	106.108937
3805.000000	105.768241
3804.000000	106.117453
3803.000000	106.819661
3802.000000	107.184899
3801.000000	106.811973
3800.000000	106.198729
3799.000000	106.084761
3798.000000	106.463988
3797.000000	106.853720
3796.000000	106.948492
3795.000000	106.850028
3794.000000	106.809621
3793.000000	106.902621
3792.000000	107.042853
3791.000000	107.142982
3790.000000	107.177569
3789.000000	107.178123
3788.000000	107.200255
3787.000000	107.277994
3786.000000	107.349396
3785.000000	107.303399
3784.000000	107.154915
3783.000000	107.081651
3782.000000	107.214785
3781.000000	107.467735
3780.000000	107.607980
3779.000000	107.497592
3778.000000	107.279818
3777.000000	107.177043
3776.000000	107.193025
3775.000000	107.193228
3774.000000	107.177516
3773.000000	107.273129
3772.000000	107.489778
3771.000000	107.634673
3770.000000	107.531837
3769.000000	107.269677
3768.000000	107.140902
3767.000000	107.245171
3766.000000	107.352186
3765.000000	107.251607
3764.000000	107.056061
3763.000000	107.038791
3762.000000	107.242312
3761.000000	107.474570
3760.000000	107.582312
3759.000000	107.493210
3758.000000	107.223021
3757.000000	106.900998
3756.000000	106.704739
3755.000000	106.717874
3754.000000	106.879655
3753.000000	107.118045
3752.000000	107.379272
3751.000000	107.419583
3750.000000	106.939477
3749.000000	106.190317
3748.000000	105.919767
3747.000000	106.477655
3746.000000	107.496422
3745.000000	108.158989
3744.000000	107.720267
3743.000000	106.733891
3742.000000	106.349270
3741.000000	106.596794
3740.000000	106.984881
3739.000000	107.340361
3738.000000	107.683028
3737.000000	107.953217
3736.000000	108.022690
3735.000000	107.969025
3734.000000	107.982811
3733.000000	108.042754
3732.000000	107.966848
3731.000000	107.772125
3730.000000	107.727334
3729.000000	107.967727
3728.000000	108.318639
3727.000000	108.530565
3726.000000	108.539593
3725.000000	108.498702
3724.000000	108.520194
3723.000000	108.572859
3722.000000	108.580209
3721.000000	108.535277
3720.000000	108.529857
3719.000000	108.561421
3718.000000	108.526703
3717.000000	108.418318
3716.000000	108.358930
3715.000000	108.454574
3714.000000	108.687133
3713.000000	108.946381
3712.000000	109.062809
3711.000000	108.920953
3710.000000	108.653621
3709.000000	108.491308
3708.000000	108.483553
3707.000000	108.557890
3706.000000	108.685766
3705.000000	108.895601
3704.000000	109.174776
3703.000000	109.407679
3702.000000	109.436845
3701.000000	109.224844
3700.000000	108.982719
3699.000000	108.935488
3698.000000	109.034417
3697.000000	109.095296
3696.000000	109.052514
3695.000000	108.972448
3694.000000	108.916165
3693.000000	108.903440
3692.000000	108.971419
3691.000000	109.152066
3690.000000	109.349231
3689.000000	109.299566
3688.000000	108.898232
3687.000000	108.494997
3686.000000	108.457887
3685.000000	108.703097
3684.000000	108.963257
3683.000000	109.122139
3682.000000	109.183481
3681.000000	109.096955
3680.000000	108.830708
3679.000000	108.627796
3678.000000	108.800073
3677.000000	109.288229
3676.000000	109.475572
3675.000000	108.838937
3674.000000	107.995887
3673.000000	107.895138
3672.000000	108.492450
3671.000000	109.141987
3670.000000	109.295478
3669.000000	108.910370
3668.000000	108.507734
3667.000000	108.474837
3666.000000	108.699929
3665.000000	108.932981
3664.000000	109.079298
3663.000000	109.125065
3662.000000	109.047201
3661.000000	108.861828
3660.000000	108.703084
3659.000000	108.742286
3658.000000	108.945076
3657.000000	109.008531
3656.000000	108.648301
3655.000000	108.053361
3654.000000	107.691024
3653.000000	107.708367
3652.000000	107.929274
3651.000000	108.166533
3650.000000	108.263152
3649.000000	108.082316
3648.000000	107.663260
3647.000000	107.260321
3646.000000	107.099084
3645.000000	107.198301
3644.000000	107.428729
3643.000000	107.617894
3642.000000	107.674319
3641.000000	107.624491
3640.000000	107.531656
3639.000000	107.405521
3638.000000	107.243371
3637.000000	107.112868
3636.000000	107.037096
3635.000000	106.888715
3634.000000	106.545600
3633.000000	106.146513
3632.000000	105.998125
3631.000000	106.226010
3630.000000	106.567648
3629.000000	106.447796
3628.000000	105.705523
3627.000000	105.001862
3626.000000	104.817977
3625.000000	104.924013
3624.000000	105.000266
3623.000000	105.006636
3622.000000	105.033708
3621.000000	105.082569
3620.000000	105.011702
3619.000000	104.656426
3618.000000	104.096805
3617.000000	103.668425
3616.000000	103.560659
3615.000000	103.629999
3614.000000	103.614360
3613.000000	103.402607
3612.000000	103.122152
3611.000000	102.967636
3610.000000	102.959166
3609.000000	102.940389
3608.000000	102.776773
3607.000000	102.501132
3606.000000	102.259895
3605.000000	102.129255
3604.000000	102.077754
3603.000000	102.038770
3602.000000	101.942699
3601.000000	101.744935
3600.000000	101.478173
3599.000000	101.215309
3598.000000	101.002024
3597.000000	100.852825
3596.000000	100.720198
3595.000000	100.518683
3594.000000	100.199880
3593.000000	99.816702
3592.000000	99.494592
3591.000000	99.326234
3590.000000	99.300411
3589.000000	99.307771
3588.000000	99.182453
3587.000000	98.837864
3586.000000	98.411310
3585.000000	98.116251
3584.000000	98.002600
3583.000000	97.972247
3582.000000	97.924971
3581.000000	97.826601
3580.000000	97.686786
3579.000000	97.526412
3578.000000	97.358319
3577.000000	97.197801
3576.000000	97.052846
3575.000000	96.905093
3574.000000	96.729090
3573.000000	96.516272
3572.000000	96.298105
3571.000000	96.140973
3570.000000	96.095901
3569.000000	96.141213
3568.000000	96.169058
3567.000000	96.059264
3566.000000	95.828895
3565.000000	95.638854
3564.000000	95.595693
3563.000000	95.663291
3562.000000	95.755519
3561.000000	95.820029
3560.000000	95.847209
3559.000000	95.846645
3558.000000	95.831027
3557.000000	95.816302
3556.000000	95.827607
3555.000000	95.876941
3554.000000	95.939401
3553.000000	95.962962
3552.000000	95.917318
3551.000000	95.839210
3550.000000	95.799519
3549.000000	95.830091
3548.000000	95.904235
3547.000000	95.971510
3546.000000	95.996272
3545.000000	95.985199
3544.000000	95.974310
3543.000000	95.987015
3542.000000	96.018532
3541.000000	96.052043
3540.000000	96.083395
3539.000000	96.112831
3538.000000	96.132516
3537.000000	96.129944
3536.000000	96.098467
3535.000000	96.049281
3534.000000	96.000891
3533.000000	95.965119
3532.000000	95.940091
3531.000000	95.915183
3530.000000	95.874501
3529.000000	95.800336
3528.000000	95.687930
3527.000000	95.560184
3526.000000	95.454021
3525.000000	95.383667
3524.000000	95.325014
3523.000000	95.239975
3522.000000	95.120744
3521.000000	94.993861
3520.000000	94.879028
3519.000000	94.760427
3518.000000	94.611318
3517.000000	94.432447
3516.000000	94.240688
3515.000000	94.039746
3514.000000	93.825810
3513.000000	93.607845
3512.000000	93.397306
3511.000000	93.182413
3510.000000	92.931887
3509.000000	92.633130
3508.000000	92.315641
3507.000000	92.022104
3506.000000	91.763659
3505.000000	91.516247
3504.000000	91.248051
3503.000000	90.944778
3502.000000	90.620072
3501.000000	90.305960
3500.000000	90.026736
3499.000000	89.779343
3498.000000	89.542036
3497.000000	89.297775
3496.000000	89.045851
3495.000000	88.794516
3494.000000	88.553670
3493.000000	88.333305
3492.000000	88.138129
3491.000000	87.965565
3490.000000	87.810130
3489.000000	87.666956
3488.000000	87.533215
3487.000000	87.411175
3486.000000	87.313565
3485.000000	87.256219
3484.000000	87.236702
3483.000000	87.230056
3482.000000	87.214291
3481.000000	87.197532
3480.000000	87.208705
3479.000000	87.264623
3478.000000	87.356834
3477.000000	87.465908
3476.000000	87.577125
3475.000000	87.681853
3474.000000	87.778184
3473.000000	87.873285
3472.000000	87.975126
3471.000000	88.084902
3470.000000	88.203761
3469.000000	88.337134
3468.000000	88.485582
3467.000000	88.639216
3466.000000	88.790640
3465.000000	88.944305
3464.000000	89.103131
3463.000000	89.256759
3462.000000	89.395133
3461.000000	89.526668
3460.000000	89.669939
3459.000000	89.829395
3458.000000	89.994183
3457.000000	90.154286
3456.000000	90.308038
3455.000000	90.459405
3454.000000	90.608760
3453.000000	90.751377
3452.000000	90.884654
3451.000000	91.017535
3450.000000	91.165836
3449.000000	91.329643
3448.000000	91.484005
3447.000000	91.604427
3446.000000	91.702579
3445.000000	91.817096
3444.000000	91.965223
3443.000000	92.123494
3442.000000	92.261479
3441.000000	92.376836
3440.000000	92.487300
3439.000000	92.601865
3438.000000	92.717542
3437.000000	92.833885
3436.000000	92.955937
3435.000000	93.086285
3434.000000	93.217752
3433.000000	93.340803
3432.000000	93.453697
3431.000000	93.563398
3430.000000	93.678746
3429.000000	93.802598
3428.000000	93.931049
3427.000000	94.056729
3426.000000	94.175875
3425.000000	94.293435
3424.000000	94.418897
3423.000000	94.555242
3422.000000	94.694634
3421.000000	94.827466
3420.000000	94.952755
3419.000000	95.078321
3418.000000	95.211272
3417.000000	95.351225
3416.000000	95.492929
3415.000000	95.632231
3414.000000	95.768808
3413.000000	95.904664
3412.000000	96.041119
3411.000000	96.177705
3410.000000	96.313809
3409.000000	96.450434
3408.000000	96.589179
3407.000000	96.727492
3406.000000	96.859540
3405.000000	96.982643
3404.000000	97.099258
3403.000000	97.214593
3402.000000	97.336660
3401.000000	97.477508
3400.000000	97.642233
3399.000000	97.815759
3398.000000	97.972260
3397.000000	98.101592
3396.000000	98.218076
3395.000000	98.339721
3394.000000	98.469401
3393.000000	98.601031
3392.000000	98.734226
3391.000000	98.873541
3390.000000	99.018673
3389.000000	99.163583
3388.000000	99.303954
3387.000000	99.438794
3386.000000	99.566990
3385.000000	99.688204
3384.000000	99.805293
3383.000000	99.923277
3382.000000	100.045701
3381.000000	100.173992
3380.000000	100.306688
3379.000000	100.439184
3378.000000	100.568414
3377.000000	100.696931
3376.000000	100.828380
3375.000000	100.959555
3374.000000	101.083292
3373.000000	101.198694
3372.000000	101.313040
3371.000000	101.434161
3370.000000	101.566604
3369.000000	101.712942
3368.000000	101.871775
3367.000000	102.035100
3366.000000	102.193631
3365.000000	102.345355
3364.000000	102.494906
3363.000000	102.645798
3362.000000	102.798511
3361.000000	102.955374
3360.000000	103.120462
3359.000000	103.293719
3358.000000	103.469550
3357.000000	103.642069
3356.000000	103.808155
3355.000000	103.966141
3354.000000	104.117424
3353.000000	104.269642
3352.000000	104.432695
3351.000000	104.609301
3350.000000	104.793091
3349.000000	104.974686
3348.000000	105.147427
3347.000000	105.308677
3346.000000	105.460004
3345.000000	105.607943
3344.000000	105.757869
3343.000000	105.906271
3342.000000	106.044444
3341.000000	106.170121
3340.000000	106.290733
3339.000000	106.412940
3338.000000	106.532823
3337.000000	106.638628
3336.000000	106.719696
3335.000000	106.771779
3334.000000	106.796375
3333.000000	106.795492
3332.000000	106.767258
3331.000000	106.704249
3330.000000	106.597420
3329.000000	106.442177
3328.000000	106.238511
3327.000000	105.987940
3326.000000	105.689819
3325.000000	105.340283
3324.000000	104.932950
3323.000000	104.457524
3322.000000	103.905195
3321.000000	103.270926
3320.000000	102.546594
3319.000000	101.717450
3318.000000	100.762682
3317.000000	99.664172
3316.000000	98.404910
3315.000000	96.959353
3314.000000	95.300540
3313.000000	93.410277
3312.000000	91.286734
3311.000000	88.942067
3310.000000	86.395123
3309.000000	83.679529
3308.000000	80.843151
3307.000000	77.940283
3306.000000	75.026703
3305.000000	72.153762
3304.000000	69.366658
3303.000000	66.704889
3302.000000	64.208528
3301.000000	61.921702
3300.000000	59.886694
3299.000000	58.132499
3298.000000	56.679118
3297.000000	55.542857
3296.000000	54.719328
3295.000000	54.172978
3294.000000	53.837014
3293.000000	53.631449
3292.000000	53.480380
3291.000000	53.316695
3290.000000	53.100422
3289.000000	52.827552
3288.000000	52.523496
3287.000000	52.226711
3286.000000	51.971944
3285.000000	51.782906
3284.000000	51.663465
3283.000000	51.595420
3282.000000	51.550004
3281.000000	51.500643
3280.000000	51.424358
3279.000000	51.299971
3278.000000	51.115502
3277.000000	50.875924
3276.000000	50.597552
3275.000000	50.297889
3274.000000	49.997746
3273.000000	49.728949
3272.000000	49.531061
3271.000000	49.438259
3270.000000	49.475035
3269.000000	49.658132
3268.000000	49.994256
3267.000000	50.479429
3266.000000	51.098016
3265.000000	51.824993
3264.000000	52.621573
3263.000000	53.430294
3262.000000	54.185075
3261.000000	54.823085
3260.000000	55.286304
3259.000000	55.522813
3258.000000	55.499542
3257.000000	55.205009
3256.000000	54.646160
3255.000000	53.836007
3254.000000	52.790434
3253.000000	51.537960
3252.000000	50.104179
3251.000000	48.505473
3250.000000	46.755926
3249.000000	44.881523
3248.000000	42.931015
3247.000000	40.969768
3246.000000	39.081835
3245.000000	37.372073
3244.000000	35.949580
3243.000000	34.892521
3242.000000	34.226088
3241.000000	33.910664
3240.000000	33.844676
3239.000000	33.896797
3238.000000	33.946301
3237.000000	33.918692
3236.000000	33.789137
3235.000000	33.566516
3234.000000	33.280763
3233.000000	32.966649
3232.000000	32.648277
3231.000000	32.336302
3230.000000	32.043639
3229.000000	31.798803
3228.000000	31.638176
3227.000000	31.595318
3226.000000	31.700779
3225.000000	31.981958
3224.000000	32.455514
3223.000000	33.115841
3222.000000	33.939628
3221.000000	34.892479
3220.000000	35.923708
3219.000000	36.968882
3218.000000	37.965371
3217.000000	38.866929
3216.000000	39.642125
3215.000000	40.271768
3214.000000	40.757575
3213.000000	41.128745
3212.000000	41.428529
3211.000000	41.696356
3210.000000	41.967028
3209.000000	42.274531
3208.000000	42.647838
3207.000000	43.103475
3206.000000	43.648167
3205.000000	44.283988
3204.000000	45.006913
3203.000000	45.804050
3202.000000	46.659461
3201.000000	47.560670
3200.000000	48.493177
3199.000000	49.437040
3198.000000	50.372817
3197.000000	51.288178
3196.000000	52.175110
3195.000000	53.024804
3194.000000	53.828909
3193.000000	54.581571
3192.000000	55.275963
3191.000000	55.901341
3190.000000	56.450930
3189.000000	56.926498
3188.000000	57.332988
3187.000000	57.674266
3186.000000	57.956206
3185.000000	58.191034
3184.000000	58.390750
3183.000000	58.562526
3182.000000	58.714015
3181.000000	58.854933
3180.000000	58.991495
3179.000000	59.123255
3178.000000	59.251798
3177.000000	59.388542
3176.000000	59.549081
3175.000000	59.744228
3174.000000	59.980354
3173.000000	60.263381
3172.000000	60.595388
3171.000000	60.973477
3170.000000	61.394468
3169.000000	61.858263
3168.000000	62.363546
3167.000000	62.902424
3166.000000	63.466644
3165.000000	64.051834
3164.000000	64.653626
3163.000000	65.265115
3162.000000	65.879758
3161.000000	66.491961
3160.000000	67.089935
3159.000000	67.652644
3158.000000	68.154184
3157.000000	68.569063
3156.000000	68.868416
3155.000000	69.018865
3154.000000	68.990290
3153.000000	68.762130
3152.000000	68.333453
3151.000000	67.731578
3150.000000	67.018206
3149.000000	66.278566
3148.000000	65.588040
3147.000000	64.986456
3146.000000	64.472280
3145.000000	64.010054
3144.000000	63.542183
3143.000000	63.004349
3142.000000	62.348545
3141.000000	61.556772
3140.000000	60.635365
3139.000000	59.606337
3138.000000	58.505875
3137.000000	57.384294
3136.000000	56.294763
3135.000000	55.282521
3134.000000	54.386549
3133.000000	53.644416
3132.000000	53.086048
3131.000000	52.727607
3130.000000	52.576250
3129.000000	52.628336
3128.000000	52.868311
3127.000000	53.270793
3126.000000	53.810926
3125.000000	54.470266
3124.000000	55.224948
3123.000000	56.046451
3122.000000	56.911312
3121.000000	57.805453
3120.000000	58.717151
3119.000000	59.629345
3118.000000	60.527207
3117.000000	61.402627
3116.000000	62.247717
3115.000000	63.049809
3114.000000	63.797829
3113.000000	64.486596
3112.000000	65.111868
3111.000000	65.669804
3110.000000	66.160454
3109.000000	66.588217
3108.000000	66.952500
3107.000000	67.246805
3106.000000	67.470330
3105.000000	67.630850
3104.000000	67.740141
3103.000000	67.809746
3102.000000	67.856319
3101.000000	67.906206
3100.000000	67.989909
3099.000000	68.134180
3098.000000	68.359132
3097.000000	68.677422
3096.000000	69.089578
3095.000000	69.586052
3094.000000	70.153763
3093.000000	70.779357
3092.000000	71.446793
3091.000000	72.136431
3090.000000	72.831487
3089.000000	73.520100
3088.000000	74.191939
3087.000000	74.838413
3086.000000	75.456979
3085.000000	76.049537
3084.000000	76.614918
3083.000000	77.147151
3082.000000	77.642500
3081.000000	78.104912
3080.000000	78.541316
3079.000000	78.956582
3078.000000	79.355059
3077.000000	79.740659
3076.000000	80.113713
3075.000000	80.471344
3074.000000	80.812506
3073.000000	81.139567
3072.000000	81.453742
3071.000000	81.754101
3070.000000	82.042438
3069.000000	82.325081
3068.000000	82.607661
3067.000000	82.889973
3066.000000	83.168135
3065.000000	83.439537
3064.000000	83.704220
3063.000000	83.962754
3062.000000	84.214441
3061.000000	84.457553
3060.000000	84.690610
3059.000000	84.914042
3058.000000	85.130680
3057.000000	85.343297
3056.000000	85.551498
3055.000000	85.753381
3054.000000	85.949248
3053.000000	86.141765
3052.000000	86.332236
3051.000000	86.518085
3050.000000	86.694881
3049.000000	86.859691
3048.000000	87.012859
3047.000000	87.158008
3046.000000	87.300556
3045.000000	87.444693
3044.000000	87.591181
3043.000000	87.738676
3042.000000	87.886953
3041.000000	88.035735
3040.000000	88.181384
3039.000000	88.318576
3038.000000	88.445824
3037.000000	88.567874
3036.000000	88.691868
3035.000000	88.822899
3034.000000	88.962919
3033.000000	89.109840
3032.000000	89.256661
3031.000000	89.396354
3030.000000	89.529296
3029.000000	89.662043
3028.000000	89.798100
3027.000000	89.934853
3026.000000	90.070500
3025.000000	90.208120
3024.000000	90.350375
3023.000000	90.494751
3022.000000	90.637077
3021.000000	90.776783
3020.000000	90.916235
3019.000000	91.056145
3018.000000	91.194147
3017.000000	91.327069
3016.000000	91.452852
3015.000000	91.570915
3014.000000	91.681508
3013.000000	91.784383
3012.000000	91.877046
3011.000000	91.954510
3010.000000	92.011580
3009.000000	92.043504
3008.000000	92.044290
3007.000000	92.006316
3006.000000	91.921514
3005.000000	91.783981
3004.000000	91.590717
3003.000000	91.342563
3002.000000	91.044395
3001.000000	90.701715
3000.000000	90.316818
2999.000000	89.885714
2998.000000	89.404298
2997.000000	88.882720
2996.000000	88.361001
2995.000000	87.910934
2994.000000	87.610301
2993.000000	87.501847
2992.000000	87.566524
2991.000000	87.738344
2990.000000	87.944220
2989.000000	88.133752
2988.000000	88.283081
2987.000000	88.385380
2986.000000	88.446499
2985.000000	88.481600
2984.000000	88.509121
2983.000000	88.546051
2982.000000	88.607367
2981.000000	88.703932
2980.000000	88.835589
2979.000000	88.988819
2978.000000	89.146310
2977.000000	89.300603
2976.000000	89.460659
2975.000000	89.646876
2974.000000	89.878347
2973.000000	90.158245
2972.000000	90.466590
2971.000000	90.767299
2970.000000	91.022266
2969.000000	91.201377
2968.000000	91.281914
2967.000000	91.247335
2966.000000	91.089216
2965.000000	90.807621
2964.000000	90.408541
2963.000000	89.900208
2962.000000	89.295539
2961.000000	88.611292
2960.000000	87.861373
2959.000000	87.050292
2958.000000	86.176782
2957.000000	85.253103
2956.000000	84.327228
2955.000000	83.490922
2954.000000	82.849886
2953.000000	82.465289
2952.000000	82.311123
2951.000000	82.292744
2950.000000	82.315066
2949.000000	82.336258
2948.000000	82.372365
2947.000000	82.463657
2946.000000	82.638501
2945.000000	82.890077
2944.000000	83.172612
2943.000000	83.425775
2942.000000	83.614074
2941.000000	83.753189
2940.000000	83.902852
2939.000000	84.136266
2938.000000	84.509549
2937.000000	85.043071
2936.000000	85.717596
2935.000000	86.486577
2934.000000	87.296706
2933.000000	88.103377
2932.000000	88.874927
2931.000000	89.593080
2930.000000	90.252324
2929.000000	90.854997
2928.000000	91.405189
2927.000000	91.907206
2926.000000	92.368687
2925.000000	92.798592
2924.000000	93.200924
2923.000000	93.573118
2922.000000	93.910962
2921.000000	94.211836
2920.000000	94.472599
2919.000000	94.689706
2918.000000	94.862362
2917.000000	94.993465
2916.000000	95.087568
2915.000000	95.150092
2914.000000	95.188792
2913.000000	95.211627
2912.000000	95.223647
2911.000000	95.228480
2910.000000	95.231447
2909.000000	95.239023
2908.000000	95.253666
2907.000000	95.273486
2906.000000	95.297047
2905.000000	95.324608
2904.000000	95.354621
2903.000000	95.383720
2902.000000	95.410850
2901.000000	95.437431
2900.000000	95.463709
2899.000000	95.486967
2898.000000	95.504638
2897.000000	95.514113
2896.000000	95.509251
2895.000000	95.481230
2894.000000	95.424445
2893.000000	95.338664
2892.000000	95.224337
2891.000000	95.079986
2890.000000	94.905699
2889.000000	94.706084
2888.000000	94.488157
2887.000000	94.259461
2886.000000	94.029503
2885.000000	93.809466
2884.000000	93.609046
2883.000000	93.435064
2882.000000	93.294164
2881.000000	93.193585
2880.000000	93.137437
2879.000000	93.125312
2878.000000	93.154979
2877.000000	93.223964
2876.000000	93.327966
2875.000000	93.460760
2874.000000	93.615777
2873.000000	93.784907
2872.000000	93.956162
2871.000000	94.117338
2870.000000	94.264231
2869.000000	94.402280
2868.000000	94.540013
2867.000000	94.683482
2866.000000	94.836152
2865.000000	94.998751
2864.000000	95.167046
2863.000000	95.333809
2862.000000	95.494953
2861.000000	95.651337
2860.000000	95.804285
2859.000000	95.953629
2858.000000	96.101654
2857.000000	96.255003
2856.000000	96.420328
2855.000000	96.600263
2854.000000	96.793971
2853.000000	96.997432
2852.000000	97.201210
2851.000000	97.391076
2850.000000	97.554033
2849.000000	97.683190
2848.000000	97.777723
2847.000000	97.842162
2846.000000	97.886786
2845.000000	97.924940
2844.000000	97.966829
2843.000000	98.016374
2842.000000	98.074564
2841.000000	98.143670
2840.000000	98.226473
2839.000000	98.323616
2838.000000	98.433451
2837.000000	98.553370
2836.000000	98.680443
2835.000000	98.811742
2834.000000	98.944556
2833.000000	99.075649
2832.000000	99.200916
2831.000000	99.317275
2830.000000	99.424993
2829.000000	99.526720
2828.000000	99.624366
2827.000000	99.718546
2826.000000	99.810226
2825.000000	99.900480
2824.000000	99.988536
2823.000000	100.071996
2822.000000	100.149162
2821.000000	100.219535
2820.000000	100.282402
2819.000000	100.337393
2818.000000	100.386604
2817.000000	100.433963
2816.000000	100.481972
2815.000000	100.530528
2814.000000	100.578963
2813.000000	100.627411
2812.000000	100.676007
2811.000000	100.724621
2810.000000	100.773575
2809.000000	100.823143
2808.000000	100.872599
2807.000000	100.921441
2806.000000	100.971238
2805.000000	101.024248
2804.000000	101.080151
2803.000000	101.135952
2802.000000	101.189075
2801.000000	101.238929
2800.000000	101.285835
2799.000000	101.330362
2798.000000	101.373662
2797.000000	101.416635
2796.000000	101.458805
2795.000000	101.499411
2794.000000	101.539047
2793.000000	101.578494
2792.000000	101.616660
2791.000000	101.651751
2790.000000	101.683804
2789.000000	101.713808
2788.000000	101.741091
2787.000000	101.764349
2786.000000	101.785171
2785.000000	101.807922
2784.000000	101.835816
2783.000000	101.869232
2782.000000	101.907748
2781.000000	101.951114
2780.000000	101.997856
2779.000000	102.045364
2778.000000	102.092224
2777.000000	102.138881
2776.000000	102.185634
2775.000000	102.231581
2774.000000	102.275789
2773.000000	102.317738
2772.000000	102.356407
2771.000000	102.390614
2770.000000	102.420445
2769.000000	102.446960
2768.000000	102.470673
2767.000000	102.491616
2766.000000	102.510650
2765.000000	102.529037
2764.000000	102.546921
2763.000000	102.563939
2762.000000	102.580801
2761.000000	102.598358
2760.000000	102.615361
2759.000000	102.629119
2758.000000	102.638294
2757.000000	102.643096
2756.000000	102.642999
2755.000000	102.636446
2754.000000	102.622925
2753.000000	102.603605
2752.000000	102.579640
2751.000000	102.551741
2750.000000	102.521742
2749.000000	102.492731
2748.000000	102.467301
2747.000000	102.447316
2746.000000	102.435535
2745.000000	102.435917
2744.000000	102.451848
2743.000000	102.484486
2742.000000	102.532507
2741.000000	102.591999
2740.000000	102.656701
2739.000000	102.720366
2738.000000	102.779124
2737.000000	102.831132
2736.000000	102.875346
2735.000000	102.912324
2734.000000	102.945624
2733.000000	102.980113
2732.000000	103.018332
2731.000000	103.059367
2730.000000	103.100716
2729.000000	103.139663
2728.000000	103.173452
2727.000000	103.199916
2726.000000	103.218361
2725.000000	103.229426
2724.000000	103.234595
2723.000000	103.236755
2722.000000	103.240015
2721.000000	103.247191
2720.000000	103.257993
2719.000000	103.270672
2718.000000	103.284473
2717.000000	103.299305
2716.000000	103.314470
2715.000000	103.329788
2714.000000	103.347302
2713.000000	103.369863
2712.000000	103.398389
2711.000000	103.431956
2710.000000	103.469377
2709.000000	103.508730
2708.000000	103.546135
2707.000000	103.577288
2706.000000	103.600459
2705.000000	103.616999
2704.000000	103.629661
2703.000000	103.641763
2702.000000	103.656900
2701.000000	103.677299
2700.000000	103.702551
2699.000000	103.730798
2698.000000	103.760074
2697.000000	103.787381
2696.000000	103.808174
2695.000000	103.819356
2694.000000	103.822303
2693.000000	103.821427
2692.000000	103.820610
2691.000000	103.822245
2690.000000	103.828131
2689.000000	103.838558
2688.000000	103.850928
2687.000000	103.861451
2686.000000	103.868038
2685.000000	103.870387
2684.000000	103.868597
2683.000000	103.863843
2682.000000	103.859535
2681.000000	103.859398
2680.000000	103.864489
2679.000000	103.873471
2678.000000	103.884898
2677.000000	103.897307
2676.000000	103.908218
2675.000000	103.915666
2674.000000	103.920811
2673.000000	103.927542
2672.000000	103.939662
2671.000000	103.959938
2670.000000	103.990707
2669.000000	104.032808
2668.000000	104.084007
2667.000000	104.139764
2666.000000	104.195645
2665.000000	104.248291
2664.000000	104.295441
2663.000000	104.337270
2662.000000	104.376930
2661.000000	104.417920
2660.000000	104.461110
2659.000000	104.505218
2658.000000	104.548919
2657.000000	104.590932
2656.000000	104.629099
2655.000000	104.661377
2654.000000	104.687539
2653.000000	104.708408
2652.000000	104.724557
2651.000000	104.737043
2650.000000	104.748144
2649.000000	104.759601
2648.000000	104.770593
2647.000000	104.779084
2646.000000	104.784385
2645.000000	104.786911
2644.000000	104.786870
2643.000000	104.785144
2642.000000	104.784702
2641.000000	104.789404
2640.000000	104.801843
2639.000000	104.823320
2638.000000	104.854602
2637.000000	104.894591
2636.000000	104.939048
2635.000000	104.982839
2634.000000	105.022995
2633.000000	105.058848
2632.000000	105.090669
2631.000000	105.120004
2630.000000	105.150422
2629.000000	105.185591
2628.000000	105.226767
2627.000000	105.272985
2626.000000	105.322340
2625.000000	105.371520
2624.000000	105.415599
2623.000000	105.450557
2622.000000	105.475753
2621.000000	105.493007
2620.000000	105.504210
2619.000000	105.511355
2618.000000	105.517258
2617.000000	105.523941
2616.000000	105.530966
2615.000000	105.536403
2614.000000	105.538796
2613.000000	105.537017
2612.000000	105.529595
2611.000000	105.516452
2610.000000	105.500423
2609.000000	105.485589
2608.000000	105.474709
2607.000000	105.469085
2606.000000	105.469242
2605.000000	105.473769
2604.000000	105.478667
2603.000000	105.479926
2602.000000	105.476338
2601.000000	105.468769
2600.000000	105.458274
2599.000000	105.446616
2598.000000	105.437103
2597.000000	105.432399
2596.000000	105.431917
2595.000000	105.432740
2594.000000	105.432241
2593.000000	105.428428
2592.000000	105.419094
2591.000000	105.402955
2590.000000	105.381248
2589.000000	105.356877
2588.000000	105.332831
2587.000000	105.312414
2586.000000	105.299321
2585.000000	105.295280
2584.000000	105.298225
2583.000000	105.304193
2582.000000	105.310428
2581.000000	105.315682
2580.000000	105.319512
2579.000000	105.323545
2578.000000	105.331985
2577.000000	105.349039
2576.000000	105.375941
2575.000000	105.411427
2574.000000	105.453607
2573.000000	105.499387
2572.000000	105.543932
2571.000000	105.582999
2570.000000	105.615583
2569.000000	105.643415
2568.000000	105.669105
2567.000000	105.696078
2566.000000	105.728387
2565.000000	105.768256
2564.000000	105.814540
2563.000000	105.864649
2562.000000	105.916637
2561.000000	105.968207
2560.000000	106.015943
2559.000000	106.058126
2558.000000	106.097148
2557.000000	106.137350
2556.000000	106.181427
2555.000000	106.230090
2554.000000	106.283234
2553.000000	106.338993
2552.000000	106.392868
2551.000000	106.440238
2550.000000	106.479499
2549.000000	106.511574
2548.000000	106.537988
2547.000000	106.561010
2546.000000	106.584122
2545.000000	106.610171
2544.000000	106.639374
2543.000000	106.670475
2542.000000	106.702519
2541.000000	106.733928
2540.000000	106.761552
2539.000000	106.782705
2538.000000	106.797583
2537.000000	106.808443
2536.000000	106.817453
2535.000000	106.826803
2534.000000	106.839136
2533.000000	106.855782
2532.000000	106.875212
2531.000000	106.894447
2530.000000	106.911228
2529.000000	106.923811
2528.000000	106.930696
2527.000000	106.932432
2526.000000	106.932301
2525.000000	106.933478
2524.000000	106.936287
2523.000000	106.939350
2522.000000	106.941781
2521.000000	106.942232
2520.000000	106.937621
2519.000000	106.924789
2518.000000	106.902689
2517.000000	106.871820
2516.000000	106.832635
2515.000000	106.786804
2514.000000	106.738487
2513.000000	106.692116
2512.000000	106.649479
2511.000000	106.609933
2510.000000	106.572513
2509.000000	106.536152
2508.000000	106.499213
2507.000000	106.460922
2506.000000	106.422895
2505.000000	106.387758
2504.000000	106.357039
2503.000000	106.331550
2502.000000	106.312224
2501.000000	106.299121
2500.000000	106.290384
2499.000000	106.283850
2498.000000	106.279372
2497.000000	106.277995
2496.000000	106.280808
2495.000000	106.289634
2494.000000	106.307348
2493.000000	106.335891
2492.000000	106.374079
2491.000000	106.418795
2490.000000	106.466778
2489.000000	106.514366
2488.000000	106.557859
2487.000000	106.595971
2486.000000	106.631202
2485.000000	106.667449
2484.000000	106.707249
2483.000000	106.752340
2482.000000	106.804427
2481.000000	106.863439
2480.000000	106.926250
2479.000000	106.988689
2478.000000	107.047700
2477.000000	107.100640
2476.000000	107.144814
2475.000000	107.179691
2474.000000	107.208415
2473.000000	107.235227
2472.000000	107.262677
2471.000000	107.291906
2470.000000	107.323151
2469.000000	107.354267
2468.000000	107.380143
2467.000000	107.396255
2466.000000	107.401905
2465.000000	107.398838
2464.000000	107.388870
2463.000000	107.374118
2462.000000	107.357905
2461.000000	107.342946
2460.000000	107.329213
2459.000000	107.315322
2458.000000	107.300423
2457.000000	107.283617
2456.000000	107.263228
2455.000000	107.238758
2454.000000	107.212689
2453.000000	107.188927
2452.000000	107.170627
2451.000000	107.160402
2450.000000	107.160785
2449.000000	107.171949
2448.000000	107.190414
2447.000000	107.211722
2446.000000	107.233299
2445.000000	107.254035
2444.000000	107.272904
2443.000000	107.290422
2442.000000	107.309905
2441.000000	107.334886
2440.000000	107.366376
2439.000000	107.403551
2438.000000	107.445402
2437.000000	107.489813
2436.000000	107.532687
2435.000000	107.570500
2434.000000	107.602877
2433.000000	107.631328
2432.000000	107.657006
2431.000000	107.681465
2430.000000	107.707618
2429.000000	107.737320
2428.000000	107.768632
2427.000000	107.797009
2426.000000	107.818542
2425.000000	107.830522
2424.000000	107.831159
2423.000000	107.821366
2422.000000	107.805831
2421.000000	107.790455
2420.000000	107.778877
2419.000000	107.772633
2418.000000	107.772786
2417.000000	107.779015
2416.000000	107.788265
2415.000000	107.796620
2414.000000	107.802129
2413.000000	107.804313
2412.000000	107.802353
2411.000000	107.796091
2410.000000	107.787938
2409.000000	107.781279
2408.000000	107.777192
2407.000000	107.774144
2406.000000	107.770163
2405.000000	107.763343
2404.000000	107.751301
2403.000000	107.732720
2402.000000	107.709021
2401.000000	107.682867
2400.000000	107.655294
2399.000000	107.625618
2398.000000	107.593035
2397.000000	107.555277
2396.000000	107.506487
2395.000000	107.439221
2394.000000	107.349434
2393.000000	107.238266
2392.000000	107.109337
2391.000000	106.967851
2390.000000	106.821814
2389.000000	106.679778
2388.000000	106.547631
2387.000000	106.426847
2386.000000	106.317624
2385.000000	106.221839
2384.000000	106.138733
2383.000000	106.066121
2382.000000	106.001599
2381.000000	105.943667
2380.000000	105.890806
2379.000000	105.833786
2378.000000	105.763998
2377.000000	105.682033
2376.000000	105.591567
2375.000000	105.497581
2374.000000	105.401717
2373.000000	105.314982
2372.000000	105.256431
2371.000000	105.234839
2370.000000	105.238342
2369.000000	105.269799
2368.000000	105.345975
2367.000000	105.454350
2366.000000	105.559831
2365.000000	105.679825
2364.000000	105.826683
2363.000000	105.952220
2362.000000	106.047243
2361.000000	106.107206
2360.000000	106.156522
2359.000000	106.226161
2358.000000	106.258875
2357.000000	106.267314
2356.000000	106.238440
2355.000000	106.180883
2354.000000	106.159032
2353.000000	106.365378
2352.000000	107.014453
2351.000000	107.850234
2350.000000	108.364225
2349.000000	108.219093
2348.000000	107.556973
2347.000000	106.907851
2346.000000	106.554942
2345.000000	106.536782
2344.000000	106.589501
2343.000000	106.586939
2342.000000	106.580920
2341.000000	106.579640
2340.000000	106.605291
2339.000000	106.608715
2338.000000	106.624720
2337.000000	106.647843
2336.000000	106.712165
2335.000000	106.759073
2334.000000	106.790937
2333.000000	106.738493
2332.000000	106.704988
2331.000000	106.650506
2330.000000	106.667840
2329.000000	106.729736
2328.000000	106.787865
2327.000000	106.807602
2326.000000	106.731187
2325.000000	106.644712
2324.000000	106.562519
2323.000000	106.496420
2322.000000	106.431905
2321.000000	106.335021
2320.000000	106.263320
2319.000000	106.194318
2318.000000	106.170666
2317.000000	106.116893
2316.000000	106.056060
2315.000000	105.950492
2314.000000	105.856983
2313.000000	105.749759
2312.000000	105.652366
2311.000000	105.535000
2310.000000	105.415743
2309.000000	105.277817
2308.000000	105.135300
2307.000000	104.985055
2306.000000	104.849838
2305.000000	104.722525
2304.000000	104.614710
2303.000000	104.510845
2302.000000	104.430712
2301.000000	104.361168
2300.000000	104.311003
2299.000000	104.266069
2298.000000	104.236794
2297.000000	104.215550
2296.000000	104.201347
2295.000000	104.192227
2294.000000	104.189166
2293.000000	104.192778
2292.000000	104.192584
2291.000000	104.186625
2290.000000	104.169157
2289.000000	104.141210
2288.000000	104.098037
2287.000000	104.047347
2286.000000	103.996800
2285.000000	103.952539
2284.000000	103.910570
2283.000000	103.871569
2282.000000	103.842061
2281.000000	103.827223
2280.000000	103.826629
2279.000000	103.837401
2278.000000	103.863009
2277.000000	103.901780
2276.000000	103.952871
2275.000000	104.015965
2274.000000	104.096539
2273.000000	104.196045
2272.000000	104.309784
2271.000000	104.432609
2270.000000	104.561652
2269.000000	104.692136
2268.000000	104.818247
2267.000000	104.937342
2266.000000	105.052669
2265.000000	105.166291
2264.000000	105.275388
2263.000000	105.381572
2262.000000	105.486228
2261.000000	105.591124
2260.000000	105.692544
2259.000000	105.790293
2258.000000	105.888860
2257.000000	105.989437
2256.000000	106.092257
2255.000000	106.197493
2254.000000	106.311778
2253.000000	106.436780
2252.000000	106.571211
2251.000000	106.712599
2250.000000	106.860670
2249.000000	107.011110
2248.000000	107.157259
2247.000000	107.296065
2246.000000	107.428702
2245.000000	107.555188
2244.000000	107.673022
2243.000000	107.783738
2242.000000	107.892080
2241.000000	107.999582
2240.000000	108.102368
2239.000000	108.197837
2238.000000	108.285964
2237.000000	108.364659
2236.000000	108.429817
2235.000000	108.481585
2234.000000	108.524778
2233.000000	108.562273
2232.000000	108.593798
2231.000000	108.621162
2230.000000	108.648480
2229.000000	108.675485
2228.000000	108.697563
2227.000000	108.712325
2226.000000	108.721592
2225.000000	108.725499
2224.000000	108.722045
2223.000000	108.712756
2222.000000	108.703069
2221.000000	108.695845
2220.000000	108.690149
2219.000000	108.686914
2218.000000	108.689176
2217.000000	108.696005
2216.000000	108.702354
2215.000000	108.706431
2214.000000	108.711407
2213.000000	108.719370
2212.000000	108.729620
2211.000000	108.743545
2210.000000	108.764713
2209.000000	108.792919
2208.000000	108.823876
2207.000000	108.855398
2206.000000	108.887781
2205.000000	108.917793
2204.000000	108.939320
2203.000000	108.951363
2202.000000	108.959674
2201.000000	108.969835
2200.000000	108.984897
2199.000000	109.009782
2198.000000	109.050318
2197.000000	109.105936
2196.000000	109.169151
2195.000000	109.233507
2194.000000	109.296509
2193.000000	109.355024
2192.000000	109.405369
2191.000000	109.449098
2190.000000	109.492053
2189.000000	109.536206
2188.000000	109.578111
2187.000000	109.615766
2186.000000	109.649875
2185.000000	109.678016
2184.000000	109.694784
2183.000000	109.699635
2182.000000	109.698338
2181.000000	109.695583
2180.000000	109.692246
2179.000000	109.690107
2178.000000	109.692377
2177.000000	109.698013
2176.000000	109.701745
2175.000000	109.700666
2174.000000	109.695258
2173.000000	109.684383
2172.000000	109.666457
2171.000000	109.646075
2170.000000	109.632194
2169.000000	109.628608
2168.000000	109.632195
2167.000000	109.640466
2166.000000	109.653347
2165.000000	109.667022
2164.000000	109.674125
2163.000000	109.672233
2162.000000	109.665802
2161.000000	109.659143
2160.000000	109.654180
2159.000000	109.655304
2158.000000	109.668193
2157.000000	109.691934
2156.000000	109.718973
2155.000000	109.743968
2154.000000	109.766438
2153.000000	109.784904
2152.000000	109.796741
2151.000000	109.805112
2150.000000	109.818496
2149.000000	109.841423
2148.000000	109.871988
2147.000000	109.908801
2146.000000	109.952301
2145.000000	109.998120
2144.000000	110.037659
2143.000000	110.067287
2142.000000	110.090237
2141.000000	110.109330
2140.000000	110.124921
2139.000000	110.140265
2138.000000	110.160603
2137.000000	110.185610
2136.000000	110.209656
2135.000000	110.230126
2134.000000	110.248261
2133.000000	110.261739
2132.000000	110.264966
2131.000000	110.257958
2130.000000	110.247276
2129.000000	110.236970
2128.000000	110.225726
2127.000000	110.213396
2126.000000	110.202128
2125.000000	110.189346
2124.000000	110.167693
2123.000000	110.133762
2122.000000	110.090354
2121.000000	110.039783
2120.000000	109.982909
2119.000000	109.925197
2118.000000	109.875668
2117.000000	109.838087
2116.000000	109.809351
2115.000000	109.786793
2114.000000	109.769473
2113.000000	109.752491
2112.000000	109.728678
2111.000000	109.697514
2110.000000	109.665413
2109.000000	109.637089
2108.000000	109.613680
2107.000000	109.598831
2106.000000	109.597752
2105.000000	109.608965
2104.000000	109.624619
2103.000000	109.639443
2102.000000	109.652470
2101.000000	109.660433
2100.000000	109.659009
2099.000000	109.651205
2098.000000	109.646476
2097.000000	109.650667
2096.000000	109.663891
2095.000000	109.688592
2094.000000	109.729504
2093.000000	109.784029
2092.000000	109.842733
2091.000000	109.900753
2090.000000	109.960249
2089.000000	110.021752
2088.000000	110.082683
2087.000000	110.145430
2086.000000	110.216480
2085.000000	110.295690
2084.000000	110.375945
2083.000000	110.453656
2082.000000	110.529532
2081.000000	110.599554
2080.000000	110.656412
2079.000000	110.701223
2078.000000	110.743497
2077.000000	110.788198
2076.000000	110.832925
2075.000000	110.878685
2074.000000	110.930956
2073.000000	110.988845
2072.000000	111.044712
2071.000000	111.094114
2070.000000	111.138725
2069.000000	111.178242
2068.000000	111.208883
2067.000000	111.231514
2066.000000	111.252491
2065.000000	111.275437
2064.000000	111.300543
2063.000000	111.331572
2062.000000	111.372505
2061.000000	111.417670
2060.000000	111.455558
2059.000000	111.483072
2058.000000	111.506360
2057.000000	111.527991
2056.000000	111.545302
2055.000000	111.560978
2054.000000	111.582820
2053.000000	111.612345
2052.000000	111.644356
2051.000000	111.676375
2050.000000	111.710145
2049.000000	111.743915
2048.000000	111.771832
2047.000000	111.792694
2046.000000	111.812222
2045.000000	111.833657
2044.000000	111.854377
2043.000000	111.874220
2042.000000	111.898178
2041.000000	111.927679
2040.000000	111.957661
2039.000000	111.985137
2038.000000	112.011394
2037.000000	112.034425
2036.000000	112.049103
2035.000000	112.057802
2034.000000	112.070776
2033.000000	112.092914
2032.000000	112.120608
2031.000000	112.153286
2030.000000	112.195605
2029.000000	112.245321
2028.000000	112.290780
2027.000000	112.324059
2026.000000	112.347932
2025.000000	112.365937
2024.000000	112.377392
2023.000000	112.383294
2022.000000	112.390962
2021.000000	112.405839
2020.000000	112.423864
2019.000000	112.437903
2018.000000	112.445829
2017.000000	112.448135
2016.000000	112.445049
2015.000000	112.440549
2014.000000	112.440913
2013.000000	112.445725
2012.000000	112.447922
2011.000000	112.446278
2010.000000	112.448752
2009.000000	112.458151
2008.000000	112.465591
2007.000000	112.464172
2006.000000	112.457766
2005.000000	112.450296
2004.000000	112.439404
2003.000000	112.425271
2002.000000	112.416524
2001.000000	112.418381
2000.000000	112.427179
1999.000000	112.442557
1998.000000	112.466397
1997.000000	112.496905
1996.000000	112.529889
1995.000000	112.561441
1994.000000	112.585437
1993.000000	112.594239
1992.000000	112.588474
1991.000000	112.582900
1990.000000	112.592896
1989.000000	112.617892
1988.000000	112.645950
1987.000000	112.669419
1986.000000	112.689501
1985.000000	112.707462
1984.000000	112.720547
1983.000000	112.728414
1982.000000	112.735667
1981.000000	112.746478
1980.000000	112.763704
1979.000000	112.791360
1978.000000	112.826641
1977.000000	112.862112
1976.000000	112.895203
1975.000000	112.927975
1974.000000	112.958033
1973.000000	112.980636
1972.000000	112.999693
1971.000000	113.024464
1970.000000	113.055386
1969.000000	113.084035
1968.000000	113.106410
1967.000000	113.126829
1966.000000	113.149810
1965.000000	113.175586
1964.000000	113.202158
1963.000000	113.224180
1962.000000	113.233286
1961.000000	113.229652
1960.000000	113.229610
1959.000000	113.248523
1958.000000	113.279896
1957.000000	113.304159
1956.000000	113.313636
1955.000000	113.314302
1954.000000	113.307756
1953.000000	113.288737
1952.000000	113.257365
1951.000000	113.221558
1950.000000	113.189876
1949.000000	113.161121
1948.000000	113.132459
1947.000000	113.111656
1946.000000	113.104844
1945.000000	113.101680
1944.000000	113.084988
1943.000000	113.051030
1942.000000	113.013409
1941.000000	112.989451
1940.000000	112.990484
1939.000000	113.018757
1938.000000	113.064846
1937.000000	113.115618
1936.000000	113.169673
1935.000000	113.233632
1934.000000	113.303202
1933.000000	113.363148
1932.000000	113.403679
1931.000000	113.430849
1930.000000	113.457510
1929.000000	113.480644
1928.000000	113.495041
1927.000000	113.513916
1926.000000	113.552209
1925.000000	113.601505
1924.000000	113.629256
1923.000000	113.628529
1922.000000	113.627461
1921.000000	113.639452
1920.000000	113.646188
1919.000000	113.633129
1918.000000	113.611333
1917.000000	113.599782
1916.000000	113.602178
1915.000000	113.618566
1914.000000	113.648031
1913.000000	113.673854
1912.000000	113.672862
1911.000000	113.646118
1910.000000	113.613170
1909.000000	113.573940
1908.000000	113.519388
1907.000000	113.463287
1906.000000	113.431123
1905.000000	113.421281
1904.000000	113.398057
1903.000000	113.354472
1902.000000	113.317257
1901.000000	113.284481
1900.000000	113.229872
1899.000000	113.158569
1898.000000	113.103856
1897.000000	113.074060
1896.000000	113.040361
1895.000000	113.000363
1894.000000	112.993733
1893.000000	113.032639
1892.000000	113.077889
1891.000000	113.098335
1890.000000	113.100687
1889.000000	113.097408
1888.000000	113.089099
1887.000000	113.089688
1886.000000	113.120988
1885.000000	113.170231
1884.000000	113.201473
1883.000000	113.216638
1882.000000	113.249364
1881.000000	113.293751
1880.000000	113.311561
1879.000000	113.297500
1878.000000	113.281799
1877.000000	113.280136
1876.000000	113.274585
1875.000000	113.259986
1874.000000	113.269450
1873.000000	113.320886
1872.000000	113.384020
1871.000000	113.431309
1870.000000	113.466190
1869.000000	113.488331
1868.000000	113.482229
1867.000000	113.466301
1866.000000	113.488983
1865.000000	113.555732
1864.000000	113.622933
1863.000000	113.671109
1862.000000	113.731425
1861.000000	113.816764
1860.000000	113.891233
1859.000000	113.936811
1858.000000	113.985085
1857.000000	114.052277
1856.000000	114.107908
1855.000000	114.139992
1854.000000	114.181160
1853.000000	114.239813
1852.000000	114.290879
1851.000000	114.334395
1850.000000	114.384756
1849.000000	114.439444
1848.000000	114.480344
1847.000000	114.507466
1846.000000	114.532714
1845.000000	114.541923
1844.000000	114.524433
1843.000000	114.520610
1842.000000	114.570284
1841.000000	114.648261
1840.000000	114.712290
1839.000000	114.747829
1838.000000	114.768044
1837.000000	114.786739
1836.000000	114.796274
1835.000000	114.806787
1834.000000	114.844145
1833.000000	114.909978
1832.000000	114.987402
1831.000000	115.051410
1830.000000	115.080797
1829.000000	115.095638
1828.000000	115.130307
1827.000000	115.183626
1826.000000	115.233271
1825.000000	115.268360
1824.000000	115.292517
1823.000000	115.318961
1822.000000	115.363139
1821.000000	115.430787
1820.000000	115.503087
1819.000000	115.553321
1818.000000	115.593930
1817.000000	115.651913
1816.000000	115.706007
1815.000000	115.727091
1814.000000	115.734191
1813.000000	115.759931
1812.000000	115.789636
1811.000000	115.786006
1810.000000	115.781980
1809.000000	115.826951
1808.000000	115.888969
1807.000000	115.923161
1806.000000	115.951960
1805.000000	116.001558
1804.000000	116.038613
1803.000000	116.038828
1802.000000	116.037991
1801.000000	116.072876
1800.000000	116.123726
1799.000000	116.158489
1798.000000	116.203547
1797.000000	116.275922
1796.000000	116.330431
1795.000000	116.339420
1794.000000	116.332057
1793.000000	116.334134
1792.000000	116.322643
1791.000000	116.285525
1790.000000	116.277711
1789.000000	116.325000
1788.000000	116.380039
1787.000000	116.402734
1786.000000	116.419082
1785.000000	116.458981
1784.000000	116.497420
1783.000000	116.515284
1782.000000	116.522361
1781.000000	116.526954
1780.000000	116.540642
1779.000000	116.571000
1778.000000	116.632492
1777.000000	116.718903
1776.000000	116.809416
1775.000000	116.896249
1774.000000	116.964981
1773.000000	117.002155
1772.000000	117.020399
1771.000000	117.022968
1770.000000	117.014183
1769.000000	117.035390
1768.000000	117.116169
1767.000000	117.221149
1766.000000	117.312017
1765.000000	117.395320
1764.000000	117.483816
1763.000000	117.545434
1762.000000	117.543843
1761.000000	117.528725
1760.000000	117.561978
1759.000000	117.621558
1758.000000	117.667774
1757.000000	117.693308
1756.000000	117.738005
1755.000000	117.798976
1754.000000	117.816610
1753.000000	117.794402
1752.000000	117.799830
1751.000000	117.848140
1750.000000	117.880326
1749.000000	117.870238
1748.000000	117.856312
1747.000000	117.874016
1746.000000	117.893574
1745.000000	117.894182
1744.000000	117.902008
1743.000000	117.907524
1742.000000	117.880275
1741.000000	117.831689
1740.000000	117.795335
1739.000000	117.776701
1738.000000	117.762405
1737.000000	117.747689
1736.000000	117.748936
1735.000000	117.762890
1734.000000	117.778486
1733.000000	117.800926
1732.000000	117.811161
1731.000000	117.768147
1730.000000	117.688626
1729.000000	117.600768
1728.000000	117.535865
1727.000000	117.514537
1726.000000	117.515466
1725.000000	117.519338
1724.000000	117.505409
1723.000000	117.461937
1722.000000	117.431549
1721.000000	117.440187
1720.000000	117.444886
1719.000000	117.385203
1718.000000	117.304530
1717.000000	117.314550
1716.000000	117.357497
1715.000000	117.341771
1714.000000	117.340338
1713.000000	117.408960
1712.000000	117.464483
1711.000000	117.462507
1710.000000	117.484885
1709.000000	117.586286
1708.000000	117.714078
1707.000000	117.815351
1706.000000	117.931641
1705.000000	118.103736
1704.000000	118.257058
1703.000000	118.343846
1702.000000	118.443814
1701.000000	118.603618
1700.000000	118.744624
1699.000000	118.797306
1698.000000	118.842346
1697.000000	118.930411
1696.000000	119.019240
1695.000000	119.072745
1694.000000	119.150327
1693.000000	119.252926
1692.000000	119.329336
1691.000000	119.366320
1690.000000	119.374470
1689.000000	119.372845
1688.000000	119.398196
1687.000000	119.478591
1686.000000	119.601854
1685.000000	119.686012
1684.000000	119.703177
1683.000000	119.743534
1682.000000	119.815003
1681.000000	119.816598
1680.000000	119.781469
1679.000000	119.778807
1678.000000	119.787769
1677.000000	119.764459
1676.000000	119.741813
1675.000000	119.789301
1674.000000	119.863456
1673.000000	119.893270
1672.000000	119.901528
1671.000000	119.913564
1670.000000	119.879210
1669.000000	119.748770
1668.000000	119.600789
1667.000000	119.524104
1666.000000	119.482792
1665.000000	119.417682
1664.000000	119.319769
1663.000000	119.219679
1662.000000	119.113014
1661.000000	118.942333
1660.000000	118.734041
1659.000000	118.552575
1658.000000	118.372462
1657.000000	118.155958
1656.000000	117.940336
1655.000000	117.744203
1654.000000	117.365871
1653.000000	116.726143
1652.000000	116.101902
1651.000000	115.613307
1650.000000	115.048230
1649.000000	114.276146
1648.000000	113.160144
1647.000000	111.619919
1646.000000	109.824306
1645.000000	108.038074
1644.000000	106.323131
1643.000000	104.608182
1642.000000	102.872601
1641.000000	101.188132
1640.000000	99.722708
1639.000000	98.599388
1638.000000	97.844196
1637.000000	97.451403
1636.000000	97.476871
1635.000000	97.956705
1634.000000	98.750387
1633.000000	99.688025
1632.000000	100.694637
1631.000000	101.773044
1630.000000	102.901385
1629.000000	104.009605
1628.000000	105.040825
1627.000000	105.982995
1626.000000	106.829741
1625.000000	107.590744
1624.000000	108.322076
1623.000000	109.071638
1622.000000	109.798751
1621.000000	110.429950
1620.000000	110.993929
1619.000000	111.571921
1618.000000	112.169775
1617.000000	112.713616
1616.000000	113.181208
1615.000000	113.610525
1614.000000	113.980836
1613.000000	114.259653
1612.000000	114.487727
1611.000000	114.702617
1610.000000	114.820590
1609.000000	114.696339
1608.000000	114.278751
1607.000000	113.570740
1606.000000	112.472132
1605.000000	110.833397
1604.000000	108.656991
1603.000000	106.065819
1602.000000	103.183874
1601.000000	100.120277
1600.000000	96.899027
1599.000000	93.315215
1598.000000	88.906077
1597.000000	83.278885
1596.000000	76.555646
1595.000000	69.464879
1594.000000	62.975331
1593.000000	57.802320
1592.000000	54.251562
1591.000000	52.310911
1590.000000	51.697379
1589.000000	51.889282
1588.000000	52.333115
1587.000000	52.640480
1586.000000	52.574929
1585.000000	52.065757
1584.000000	51.300208
1583.000000	50.644232
1582.000000	50.351647
1581.000000	50.438089
1580.000000	50.834845
1579.000000	51.497772
1578.000000	52.322708
1577.000000	53.077775
1576.000000	53.564357
1575.000000	53.821450
1574.000000	53.976712
1573.000000	54.092840
1572.000000	54.311743
1571.000000	54.916861
1570.000000	56.143847
1569.000000	57.922972
1568.000000	60.037689
1567.000000	62.397948
1566.000000	64.927831
1565.000000	67.416474
1564.000000	69.637199
1563.000000	71.542804
1562.000000	73.250945
1561.000000	74.974854
1560.000000	77.012062
1559.000000	79.498641
1558.000000	81.948579
1557.000000	83.905225
1556.000000	85.481645
1555.000000	86.963341
1554.000000	88.403451
1553.000000	89.684755
1552.000000	90.778284
1551.000000	91.757301
1550.000000	92.683719
1549.000000	93.547283
1548.000000	94.340552
1547.000000	95.118015
1546.000000	95.908787
1545.000000	96.664563
1544.000000	97.335384
1543.000000	97.933403
1542.000000	98.509846
1541.000000	99.063219
1540.000000	99.545028
1539.000000	99.996705
1538.000000	100.473119
1537.000000	100.923723
1536.000000	101.323904
1535.000000	101.711438
1534.000000	102.071400
1533.000000	102.361279
1532.000000	102.602117
1531.000000	102.847308
1530.000000	103.136325
1529.000000	103.460288
1528.000000	103.765959
1527.000000	104.048287
1526.000000	104.341180
1525.000000	104.641746
1524.000000	104.915223
1523.000000	105.132258
1522.000000	105.282576
1521.000000	105.386287
1520.000000	105.489805
1519.000000	105.623763
1518.000000	105.773540
1517.000000	105.912039
1516.000000	106.020210
1515.000000	106.112119
1514.000000	106.212404
1513.000000	106.336115
1512.000000	106.460773
1511.000000	106.553955
1510.000000	106.638543
1509.000000	106.770398
1508.000000	106.918453
1507.000000	106.983845
1506.000000	107.030808
1505.000000	107.170980
1504.000000	107.331538
1503.000000	107.427976
1502.000000	107.483773
1501.000000	107.541394
1500.000000	107.612982
1499.000000	107.680138
1498.000000	107.764959
1497.000000	107.954732
1496.000000	108.264826
1495.000000	108.615283
1494.000000	108.960974
1493.000000	109.294730
1492.000000	109.587020
1491.000000	109.797790
1490.000000	109.946645
1489.000000	110.099769
1488.000000	110.261836
1487.000000	110.427724
1486.000000	110.653170
1485.000000	110.918533
1484.000000	111.157946
1483.000000	111.360379
1482.000000	111.536628
1481.000000	111.686760
1480.000000	111.801795
1479.000000	111.913239
1478.000000	112.069981
1477.000000	112.276118
1476.000000	112.481062
1475.000000	112.679759
1474.000000	112.905578
1473.000000	113.128526
1472.000000	113.294415
1471.000000	113.395471
1470.000000	113.461306
1469.000000	113.494197
1468.000000	113.468733
1467.000000	113.358887
1466.000000	113.097864
1465.000000	112.553851
1464.000000	111.634918
1463.000000	110.300656
1462.000000	108.506418
1461.000000	106.233431
1460.000000	103.501810
1459.000000	100.300994
1458.000000	96.572659
1457.000000	92.663146
1456.000000	89.399974
1455.000000	87.104503
1454.000000	85.330407
1453.000000	83.683700
1452.000000	82.180927
1451.000000	81.054015
1450.000000	80.520595
1449.000000	80.700832
1448.000000	81.568977
1447.000000	82.900790
1446.000000	84.419943
1445.000000	86.043183
1444.000000	87.849128
1443.000000	89.809290
1442.000000	91.747950
1441.000000	93.518642
1440.000000	95.072428
1439.000000	96.404028
1438.000000	97.565735
1437.000000	98.699904
1436.000000	99.892627
1435.000000	101.052229
1434.000000	102.092119
1433.000000	103.067836
1432.000000	104.023736
1431.000000	104.875813
1430.000000	105.531509
1429.000000	106.034463
1428.000000	106.469129
1427.000000	106.858980
1426.000000	107.197426
1425.000000	107.523672
1424.000000	107.911405
1423.000000	108.330010
1422.000000	108.699630
1421.000000	109.016901
1420.000000	109.309081
1419.000000	109.522942
1418.000000	109.621498
1417.000000	109.719888
1416.000000	109.909443
1415.000000	110.151042
1414.000000	110.379416
1413.000000	110.603978
1412.000000	110.862420
1411.000000	111.105010
1410.000000	111.255749
1409.000000	111.327835
1408.000000	111.350325
1407.000000	111.281970
1406.000000	111.044117
1405.000000	110.603140
1404.000000	110.004959
1403.000000	109.299763
1402.000000	108.527786
1401.000000	107.756446
1400.000000	107.057331
1399.000000	106.448244
1398.000000	105.912941
1397.000000	105.495854
1396.000000	105.331179
1395.000000	105.561919
1394.000000	106.188451
1393.000000	107.064271
1392.000000	108.015860
1391.000000	108.888822
1390.000000	109.576144
1389.000000	110.062077
1388.000000	110.416186
1387.000000	110.730138
1386.000000	111.056773
1385.000000	111.408151
1384.000000	111.778082
1383.000000	112.132665
1382.000000	112.434881
1381.000000	112.683273
1380.000000	112.895266
1379.000000	113.070143
1378.000000	113.182450
1377.000000	113.200651
1376.000000	113.088209
1375.000000	112.790620
1374.000000	112.240707
1373.000000	111.394098
1372.000000	110.210812
1371.000000	108.599327
1370.000000	106.451267
1369.000000	103.817695
1368.000000	101.066823
1367.000000	98.742058
1366.000000	97.226107
1365.000000	96.569143
1364.000000	96.590180
1363.000000	97.089816
1362.000000	97.993125
1361.000000	99.326468
1360.000000	101.062169
1359.000000	103.020906
1358.000000	104.929907
1357.000000	106.559042
1356.000000	107.818186
1355.000000	108.743933
1354.000000	109.436386
1353.000000	110.009683
1352.000000	110.542387
1351.000000	111.062408
1350.000000	111.557869
1349.000000	112.002029
1348.000000	112.383049
1347.000000	112.693409
1346.000000	112.926510
1345.000000	113.096111
1344.000000	113.240810
1343.000000	113.395500
1342.000000	113.571896
1341.000000	113.769514
1340.000000	113.985725
1339.000000	114.206193
1338.000000	114.401963
1337.000000	114.553627
1336.000000	114.660618
1335.000000	114.728761
1334.000000	114.770227
1333.000000	114.813043
1332.000000	114.890360
1331.000000	115.013026
1330.000000	115.160266
1329.000000	115.298711
1328.000000	115.389612
1327.000000	115.378193
1326.000000	115.188951
1325.000000	114.741111
1324.000000	113.969639
1323.000000	112.816148
1322.000000	111.246625
1321.000000	109.314428
1320.000000	107.197009
1319.000000	105.146652
1318.000000	103.369540
1317.000000	101.941698
1316.000000	100.843626
1315.000000	100.074009
1314.000000	99.704968
1313.000000	99.816052
1312.000000	100.368527
1311.000000	101.162259
1310.000000	101.969466
1309.000000	102.710721
1308.000000	103.484362
1307.000000	104.433651
1306.000000	105.595128
1305.000000	106.872802
1304.000000	108.117024
1303.000000	109.200782
1302.000000	110.063422
1301.000000	110.721741
1300.000000	111.229325
1299.000000	111.618323
1298.000000	111.880829
1297.000000	111.988916
1296.000000	111.912508
1295.000000	111.610391
1294.000000	111.042012
1293.000000	110.201574
1292.000000	109.126184
1291.000000	107.883988
1290.000000	106.546707
1289.000000	105.150375
1288.000000	103.637515
1287.000000	101.838601
1286.000000	99.590716
1285.000000	96.938191
1284.000000	94.222326
1283.000000	91.965195
1282.000000	90.638846
1281.000000	90.465688
1280.000000	91.371992
1279.000000	93.055464
1278.000000	95.102385
1277.000000	97.127281
1276.000000	98.832795
1275.000000	100.015353
1274.000000	100.620135
1273.000000	100.832703
1272.000000	101.055376
1271.000000	101.676831
1270.000000	102.819274
1269.000000	104.306264
1268.000000	105.849730
1267.000000	107.242744
1266.000000	108.415122
1265.000000	109.384252
1264.000000	110.187352
1263.000000	110.847399
1262.000000	111.379887
1261.000000	111.817791
1260.000000	112.211034
1259.000000	112.597284
1258.000000	112.988840
1257.000000	113.382313
1256.000000	113.764537
1255.000000	114.106888
1254.000000	114.374515
1253.000000	114.555453
1252.000000	114.668515
1251.000000	114.744930
1250.000000	114.816871
1249.000000	114.919986
1248.000000	115.084994
1247.000000	115.313660
1246.000000	115.575107
1245.000000	115.830986
1244.000000	116.051364
1243.000000	116.211277
1242.000000	116.297420
1241.000000	116.326823
1240.000000	116.343082
1239.000000	116.386624
1238.000000	116.477738
1237.000000	116.622337
1236.000000	116.810926
1235.000000	117.007724
1234.000000	117.160327
1233.000000	117.232248
1232.000000	117.215912
1231.000000	117.116920
1230.000000	116.948398
1229.000000	116.732432
1228.000000	116.485291
1227.000000	116.182056
1226.000000	115.739029
1225.000000	115.037849
1224.000000	113.939693
1223.000000	112.311320
1222.000000	110.078284
1221.000000	107.278281
1220.000000	104.082478
1219.000000	100.735280
1218.000000	97.467992
1217.000000	94.437843
1216.000000	91.703956
1215.000000	89.238529
1214.000000	86.973397
1213.000000	84.865250
1212.000000	82.929223
1211.000000	81.219595
1210.000000	79.773987
1209.000000	78.612786
1208.000000	77.768076
1207.000000	77.273356
1206.000000	77.141866
1205.000000	77.345715
1204.000000	77.828470
1203.000000	78.514780
1202.000000	79.321403
1201.000000	80.217008
1200.000000	81.247539
1199.000000	82.497157
1198.000000	84.024363
1197.000000	85.831152
1196.000000	87.876947
1195.000000	90.078809
1194.000000	92.320173
1193.000000	94.489085
1192.000000	96.506881
1191.000000	98.320018
1190.000000	99.893613
1189.000000	101.228909
1188.000000	102.364173
1187.000000	103.348127
1186.000000	104.208412
1185.000000	104.959617
1184.000000	105.615744
1183.000000	106.174828
1182.000000	106.618545
1181.000000	106.924911
1180.000000	107.083970
1179.000000	107.101345
1178.000000	107.000499
1177.000000	106.835283
1176.000000	106.673463
1175.000000	106.560662
1174.000000	106.507036
1173.000000	106.505811
1172.000000	106.549598
1171.000000	106.624030
1170.000000	106.708935
1169.000000	106.799127
1168.000000	106.910816
1167.000000	107.055765
1166.000000	107.222760
1165.000000	107.389867
1164.000000	107.538493
1163.000000	107.654319
1162.000000	107.736289
1161.000000	107.814774
1160.000000	107.940667
1159.000000	108.143555
1158.000000	108.416080
1157.000000	108.743215
1156.000000	109.127753
1155.000000	109.576338
1154.000000	110.077671
1153.000000	110.605063
1152.000000	111.120190
1151.000000	111.565452
1150.000000	111.876816
1149.000000	112.026616
1148.000000	112.041287
1147.000000	111.975707
1146.000000	111.884197
1145.000000	111.810022
1144.000000	111.776583
1143.000000	111.758949
1142.000000	111.681270
1141.000000	111.457968
1140.000000	111.022269
1139.000000	110.331716
1138.000000	109.352461
1137.000000	108.060525
1136.000000	106.440226
1135.000000	104.439761
1134.000000	101.964722
1133.000000	98.897443
1132.000000	95.144930
1131.000000	90.702335
1130.000000	85.706905
1129.000000	80.488917
1128.000000	75.550911
1127.000000	71.430193
1126.000000	68.501656
1125.000000	66.883844
1124.000000	66.444112
1123.000000	66.846846
1122.000000	67.623712
1121.000000	68.273704
1120.000000	68.392638
1119.000000	67.712957
1118.000000	66.135038
1117.000000	63.861223
1116.000000	61.507433
1115.000000	59.983619
1114.000000	60.068629
1113.000000	62.004784
1112.000000	65.433716
1111.000000	69.618822
1110.000000	73.764120
1109.000000	77.253591
1108.000000	79.747812
1107.000000	81.150225
1106.000000	81.525823
1105.000000	81.067726
1104.000000	80.140747
1103.000000	79.295581
1102.000000	79.111505
1101.000000	79.932799
1100.000000	81.705948
1099.000000	84.059271
1098.000000	86.552853
1097.000000	88.887062
1096.000000	90.932033
1095.000000	92.657862
1094.000000	94.092786
1093.000000	95.316654
1092.000000	96.428925
1091.000000	97.500143
1090.000000	98.560232
1089.000000	99.622887
1088.000000	100.697304
1087.000000	101.767654
1086.000000	102.798214
1085.000000	103.762363
1084.000000	104.651206
1083.000000	105.463282
1082.000000	106.201560
1081.000000	106.882977
1080.000000	107.522858
1079.000000	108.105779
1078.000000	108.597154
1077.000000	108.969939
1076.000000	109.210164
1075.000000	109.303065
1074.000000	109.229948
1073.000000	108.990979
1072.000000	108.581340
1071.000000	107.955931
1070.000000	107.025178
1069.000000	105.657698
1068.000000	103.707061
1067.000000	101.008374
1066.000000	97.423512
1065.000000	92.934630
1064.000000	87.689489
1063.000000	82.013659
1062.000000	76.326559
1061.000000	71.000885
1060.000000	66.211396
1059.000000	61.857150
1058.000000	57.650413
1057.000000	53.413094
1056.000000	49.393050
1055.000000	46.279947
1054.000000	44.922946
1053.000000	45.854499
1052.000000	49.003929
1051.000000	53.741990
1050.000000	59.157577
1049.000000	64.469315
1048.000000	69.227359
1047.000000	73.286743
1046.000000	76.688157
1045.000000	79.551267
1044.000000	82.000968
1043.000000	84.119324
1042.000000	85.948565
1041.000000	87.522587
1040.000000	88.897455
1039.000000	90.121593
1038.000000	91.220920
1037.000000	92.214227
1036.000000	93.111869
1035.000000	93.912548
1034.000000	94.606611
1033.000000	95.203357
1032.000000	95.738379
1031.000000	96.247421
1030.000000	96.755908
1029.000000	97.284959
1028.000000	97.847151
1027.000000	98.429969
1026.000000	98.999543
1025.000000	99.528903
1024.000000	100.007869
1023.000000	100.430983
1022.000000	100.800042
1021.000000	101.134708
1020.000000	101.462801
1019.000000	101.787955
1018.000000	102.075436
1017.000000	102.267570
1016.000000	102.273727
1015.000000	101.970186
1014.000000	101.223057
1013.000000	99.928034
1012.000000	98.046577
1011.000000	95.607642
1010.000000	92.730309
1009.000000	89.631674
1008.000000	86.592568
1007.000000	83.918721
1006.000000	81.934929
1005.000000	80.943616
1004.000000	81.086473
1003.000000	82.192249
1002.000000	83.779589
1001.000000	85.282690
1000.000000	86.274157
999.000000	86.513022
998.000000	85.902740
997.000000	84.520642
996.000000	82.692821
995.000000	80.940586
994.000000	79.744876
993.000000	79.312720
992.000000	79.548742
991.000000	80.228765
990.000000	81.198052
989.000000	82.439546
988.000000	84.003056
987.000000	85.869625
986.000000	87.906555
985.000000	89.930709
984.000000	91.790407
983.000000	93.400897
982.000000	94.738121
981.000000	95.828797
980.000000	96.729931
979.000000	97.503550
978.000000	98.195862
977.000000	98.842423
976.000000	99.466072
975.000000	100.062099
974.000000	100.606198
973.000000	101.074691
972.000000	101.459659
971.000000	101.764672
970.000000	102.003087
969.000000	102.207904
968.000000	102.422517
967.000000	102.676053
966.000000	102.971122
965.000000	103.293348
964.000000	103.620746
963.000000	103.921442
962.000000	104.163070
961.000000	104.334578
960.000000	104.451347
959.000000	104.540179
958.000000	104.628645
957.000000	104.745650
956.000000	104.912597
955.000000	105.125502
954.000000	105.356362
953.000000	105.573272
952.000000	105.752093
951.000000	105.874518
950.000000	105.933983
949.000000	105.949400
948.000000	105.959715
947.000000	105.999782
946.000000	106.087021
945.000000	106.225119
944.000000	106.403386
943.000000	106.590799
942.000000	106.748123
941.000000	106.853330
940.000000	106.907868
939.000000	106.923780
938.000000	106.919930
937.000000	106.927813
936.000000	106.980847
935.000000	107.090657
934.000000	107.242393
933.000000	107.411693
932.000000	107.574604
931.000000	107.704948
930.000000	107.782059
929.000000	107.807822
928.000000	107.806276
927.000000	107.805567
926.000000	107.829184
925.000000	107.897527
924.000000	108.018501
923.000000	108.173388
922.000000	108.325591
921.000000	108.445939
920.000000	108.521341
919.000000	108.547451
918.000000	108.531677
917.000000	108.502189
916.000000	108.496352
915.000000	108.536022
914.000000	108.621849
913.000000	108.745782
912.000000	108.892823
911.000000	109.033829
910.000000	109.136630
909.000000	109.189217
908.000000	109.202523
907.000000	109.194806
906.000000	109.187389
905.000000	109.208241
904.000000	109.277654
903.000000	109.387759
902.000000	109.507222
901.000000	109.604557
900.000000	109.652733
899.000000	109.617791
898.000000	109.467878
897.000000	109.197239
896.000000	108.840019
895.000000	108.461192
894.000000	108.128135
893.000000	107.864243
892.000000	107.606518
891.000000	107.234511
890.000000	106.681071
889.000000	106.015076
888.000000	105.388045
887.000000	104.912141
886.000000	104.613708
885.000000	104.486158
884.000000	104.532631
883.000000	104.728286
882.000000	104.991945
881.000000	105.235507
880.000000	105.437880
879.000000	105.655632
878.000000	105.961490
877.000000	106.385777
876.000000	106.897148
875.000000	107.425912
874.000000	107.912312
873.000000	108.338425
872.000000	108.715418
871.000000	109.047375
870.000000	109.321143
869.000000	109.519823
868.000000	109.629065
867.000000	109.630621
866.000000	109.512877
865.000000	109.295435
864.000000	109.028661
863.000000	108.773248
862.000000	108.586451
861.000000	108.515848
860.000000	108.580123
859.000000	108.750351
858.000000	108.964682
857.000000	109.169016
856.000000	109.340132
855.000000	109.477583
854.000000	109.596094
853.000000	109.722115
852.000000	109.876978
851.000000	110.057622
850.000000	110.243117
849.000000	110.415746
848.000000	110.563560
847.000000	110.671048
846.000000	110.727338
845.000000	110.743577
844.000000	110.745776
843.000000	110.753258
842.000000	110.776747
841.000000	110.829034
840.000000	110.917091
839.000000	111.024640
838.000000	111.120940
837.000000	111.187365
836.000000	111.221957
835.000000	111.225339
834.000000	111.201808
833.000000	111.171372
832.000000	111.160940
831.000000	111.182021
830.000000	111.230073
829.000000	111.300646
828.000000	111.388985
827.000000	111.477727
826.000000	111.545433
825.000000	111.587329
824.000000	111.612072
823.000000	111.623246
822.000000	111.623261
821.000000	111.628551
820.000000	111.658286
819.000000	111.710065
818.000000	111.763217
817.000000	111.801721
816.000000	111.816681
815.000000	111.795074
814.000000	111.726244
813.000000	111.614336
812.000000	111.465731
811.000000	111.268987
810.000000	111.012264
809.000000	110.722440
808.000000	110.466944
807.000000	110.309644
806.000000	110.272217
805.000000	110.330342
804.000000	110.431106
803.000000	110.517314
802.000000	110.554229
801.000000	110.540026
800.000000	110.483950
799.000000	110.380175
798.000000	110.207768
797.000000	109.944687
796.000000	109.562749
795.000000	109.021724
794.000000	108.293427
793.000000	107.391113
792.000000	106.372337
791.000000	105.319883
790.000000	104.329618
789.000000	103.497536
788.000000	102.891450
787.000000	102.527800
786.000000	102.381761
785.000000	102.412351
784.000000	102.565164
783.000000	102.770100
782.000000	102.959298
781.000000	103.094273
780.000000	103.169689
779.000000	103.202031
778.000000	103.233581
777.000000	103.330909
776.000000	103.552128
775.000000	103.910092
774.000000	104.374485
773.000000	104.902741
772.000000	105.455818
771.000000	105.999264
770.000000	106.513241
769.000000	106.999424
768.000000	107.464328
767.000000	107.900320
766.000000	108.294375
765.000000	108.643001
764.000000	108.944642
763.000000	109.188892
762.000000	109.371116
761.000000	109.507824
760.000000	109.621365
759.000000	109.721159
758.000000	109.812848
757.000000	109.911355
756.000000	110.025772
755.000000	110.141897
754.000000	110.237649
753.000000	110.305430
752.000000	110.345299
751.000000	110.350950
750.000000	110.320993
749.000000	110.272006
748.000000	110.221888
747.000000	110.170685
746.000000	110.111606
745.000000	110.044891
744.000000	109.964009
743.000000	109.844797
742.000000	109.669086
741.000000	109.447680
740.000000	109.205201
739.000000	108.959152
738.000000	108.728209
737.000000	108.537875
736.000000	108.393467
735.000000	108.260835
734.000000	108.093523
733.000000	107.864912
732.000000	107.563171
731.000000	107.183837
730.000000	106.753639
729.000000	106.342717
728.000000	106.026165
727.000000	105.844851
726.000000	105.815179
725.000000	105.945555
724.000000	106.212465
723.000000	106.545760
722.000000	106.876588
721.000000	107.188173
720.000000	107.493663
719.000000	107.786016
718.000000	108.042850
717.000000	108.261110
716.000000	108.453093
715.000000	108.620120
714.000000	108.758138
713.000000	108.874355
712.000000	108.971094
711.000000	109.030679
710.000000	109.042391
709.000000	109.027820
708.000000	109.016992
707.000000	109.018949
706.000000	109.039917
705.000000	109.104102
704.000000	109.223832
703.000000	109.370519
702.000000	109.506740
701.000000	109.622674
700.000000	109.714073
699.000000	109.759274
698.000000	109.751994
697.000000	109.727439
696.000000	109.719352
695.000000	109.721917
694.000000	109.727736
693.000000	109.759862
692.000000	109.824837
691.000000	109.880301
690.000000	109.893568
689.000000	109.891105
688.000000	109.900603
687.000000	109.892546
686.000000	109.844342
685.000000	109.801758
684.000000	109.809760
683.000000	109.845235
682.000000	109.876068
681.000000	109.925644
680.000000	109.999712
679.000000	110.046696
678.000000	110.030121
677.000000	109.994286
676.000000	110.003061
675.000000	110.026210
674.000000	110.080882
673.000000	110.290333
672.000000	110.670797
671.000000	110.995816
670.000000	111.091002
669.000000	110.944454
668.000000	110.517686
667.000000	110.236121
666.000000	110.440222
665.000000	110.633567
664.000000	110.561605
663.000000	110.460884
662.000000	110.528112
661.000000	110.685284
660.000000	110.796072
659.000000	110.859154
658.000000	110.888663
657.000000	110.831677
656.000000	110.698433
655.000000	110.570984
654.000000	110.505504
653.000000	110.479373
652.000000	110.477095
651.000000	110.523416
650.000000	110.596585
649.000000	110.614228
648.000000	110.544067
647.000000	110.436155
646.000000	110.325550
645.000000	110.200172
644.000000	110.077595
643.000000	110.022860
642.000000	110.061741
641.000000	110.142857
640.000000	110.213692
639.000000	110.264541
638.000000	110.278737
637.000000	110.218505
636.000000	110.088373
635.000000	109.949715
634.000000	109.852172
633.000000	109.802817
632.000000	109.807783
631.000000	109.882900
630.000000	110.003210
629.000000	110.098308
628.000000	110.120625
627.000000	110.075639
626.000000	109.980497
625.000000	109.846143
624.000000	109.709865
623.000000	109.633759
622.000000	109.645127
621.000000	109.712257
620.000000	109.789662
619.000000	109.848660
618.000000	109.863760
617.000000	109.812369
616.000000	109.701528
615.000000	109.565528
614.000000	109.432247
613.000000	109.321132
612.000000	109.264444
611.000000	109.287402
610.000000	109.366549
609.000000	109.439051
608.000000	109.457857
607.000000	109.409299
606.000000	109.287812
605.000000	109.099186
604.000000	108.883570
603.000000	108.696070
602.000000	108.557198
601.000000	108.445541
600.000000	108.331622
599.000000	108.186301
598.000000	107.961299
597.000000	107.605563
596.000000	107.111525
595.000000	106.518334
594.000000	105.861623
593.000000	105.134768
592.000000	104.291892
591.000000	103.284932
590.000000	102.133433
589.000000	100.995450
588.000000	100.130734
587.000000	99.716419
586.000000	99.691794
585.000000	99.841601
584.000000	100.044924
583.000000	100.360593
582.000000	100.876180
581.000000	101.573644
580.000000	102.354686
579.000000	103.117523
578.000000	103.769330
577.000000	104.237364
576.000000	104.511552
575.000000	104.645564
574.000000	104.697143
573.000000	104.702498
572.000000	104.707668
571.000000	104.763718
570.000000	104.870429
569.000000	104.961933
568.000000	104.968977
567.000000	104.844789
566.000000	104.528323
565.000000	103.943029
564.000000	103.058834
563.000000	101.940934
562.000000	100.724983
561.000000	99.565848
560.000000	98.593208
559.000000	97.848349
558.000000	97.243027
557.000000	96.646716
556.000000	96.061344
555.000000	95.665806
554.000000	95.667570
553.000000	96.140896
552.000000	97.010593
551.000000	98.112141
550.000000	99.233169
549.000000	100.187699
548.000000	100.897117
547.000000	101.376990
546.000000	101.655977
545.000000	101.753804
544.000000	101.725188
543.000000	101.658632
542.000000	101.615356
541.000000	101.601583
540.000000	101.610983
539.000000	101.640556
538.000000	101.656982
537.000000	101.599481
536.000000	101.437288
535.000000	101.190911
534.000000	100.896406
533.000000	100.591374
532.000000	100.330943
531.000000	100.178181
530.000000	100.146958
529.000000	100.178132
528.000000	100.183887
527.000000	100.091740
526.000000	99.841387
525.000000	99.400158
524.000000	98.798376
523.000000	98.106112
522.000000	97.381492
521.000000	96.664009
520.000000	96.003362
519.000000	95.440641
518.000000	94.945046
517.000000	94.421378
516.000000	93.808843
515.000000	93.133161
514.000000	92.462518
513.000000	91.870393
512.000000	91.448981
511.000000	91.305095
510.000000	91.491676
509.000000	91.964882
508.000000	92.632521
507.000000	93.407744
506.000000	94.207829
505.000000	94.966011
504.000000	95.670590
503.000000	96.359573
502.000000	97.060976
501.000000	97.766803
500.000000	98.466908
499.000000	99.161873
498.000000	99.820282
497.000000	100.374709
496.000000	100.773789
495.000000	101.011716
494.000000	101.112340
493.000000	101.112538
492.000000	101.086802
491.000000	101.133481
490.000000	101.297781
489.000000	101.541960
488.000000	101.788664
487.000000	101.965709
486.000000	101.990061
485.000000	101.758743
484.000000	101.208762
483.000000	100.365516
482.000000	99.318063
481.000000	98.181922
480.000000	97.110194
479.000000	96.264038
478.000000	95.704422
477.000000	95.347214
476.000000	95.052048
475.000000	94.725342
474.000000	94.328237
473.000000	93.889105
472.000000	93.564913
471.000000	93.587602
470.000000	94.069780
469.000000	94.930907
468.000000	96.017243
467.000000	97.177852
466.000000	98.252282
465.000000	99.103821
464.000000	99.680677
463.000000	100.039841
462.000000	100.295839
461.000000	100.551364
460.000000	100.877782
459.000000	101.309918
458.000000	101.813844
457.000000	102.288974
456.000000	102.643702
455.000000	102.838450
454.000000	102.861918
453.000000	102.735486
452.000000	102.559234
451.000000	102.479640
450.000000	102.572228
449.000000	102.811382
448.000000	103.134189
447.000000	103.465706
446.000000	103.703612
445.000000	103.753198
444.000000	103.589373
443.000000	103.285866
442.000000	102.973514
441.000000	102.771979
440.000000	102.758566
439.000000	102.946774
438.000000	103.264144
437.000000	103.570411
436.000000	103.732226
435.000000	103.675702
434.000000	103.377559
433.000000	102.857108
432.000000	102.211146
431.000000	101.615996
430.000000	101.230473
429.000000	101.090427
428.000000	101.142124
427.000000	101.310312
426.000000	101.473442
425.000000	101.467087
424.000000	101.221258
423.000000	100.857930
422.000000	100.559190
421.000000	100.399324
420.000000	100.407707
419.000000	100.695824
418.000000	101.284632
417.000000	101.934850
416.000000	102.407685
415.000000	102.627648
414.000000	102.600651
413.000000	102.372365
412.000000	102.060094
411.000000	101.839511
410.000000	101.839751
409.000000	102.037154
408.000000	102.322662
407.000000	102.606961
406.000000	102.787781
405.000000	102.745051
404.000000	102.470315
403.000000	102.123413
402.000000	101.878872
401.000000	101.791729
400.000000	101.819591
