PE IR       SUBTECH     SPECTRUM    ASCII       PEDS        4.00        
   -1
23ms092_trans.asc
24/10/15
16:43:36.00
24/10/15
16:43:36.00
Administrator
Sample 1282 By Administrator Date Tuesday, October 15 2024
400.000000
#HDR
-1
-1
#GR
cm-1
%T
1.0
0.0
4000.000000
-1.000000
3601
8
106.185718
12.822744
#DATA
4000.000000	75.119530
3999.000000	75.071052
3998.000000	75.026626
3997.000000	74.984932
3996.000000	74.944578
3995.000000	74.904920
3994.000000	74.866399
3993.000000	74.829389
3992.000000	74.793177
3991.000000	74.755446
3990.000000	74.712238
3989.000000	74.660408
3988.000000	74.600054
3987.000000	74.533680
3986.000000	74.463466
3985.000000	74.389785
3984.000000	74.312364
3983.000000	74.231092
3982.000000	74.146649
3981.000000	74.062115
3980.000000	73.983230
3979.000000	73.917598
3978.000000	73.873399
3977.000000	73.855517
3976.000000	73.863624
3975.000000	73.893730
3974.000000	73.941721
3973.000000	74.006231
3972.000000	74.086450
3971.000000	74.180536
3970.000000	74.283365
3969.000000	74.386452
3968.000000	74.482286
3967.000000	74.566487
3966.000000	74.637719
3965.000000	74.696477
3964.000000	74.743377
3963.000000	74.777503
3962.000000	74.798744
3961.000000	74.808531
3960.000000	74.808973
3959.000000	74.806529
3958.000000	74.808139
3957.000000	74.817636
3956.000000	74.838307
3955.000000	74.873339
3954.000000	74.925712
3953.000000	74.994717
3952.000000	75.077749
3951.000000	75.173855
3950.000000	75.280856
3949.000000	75.396403
3948.000000	75.521140
3947.000000	75.657183
3946.000000	75.803216
3945.000000	75.952970
3944.000000	76.098154
3943.000000	76.227049
3942.000000	76.334365
3941.000000	76.429604
3940.000000	76.523402
3939.000000	76.619612
3938.000000	76.711315
3937.000000	76.786976
3936.000000	76.848385
3935.000000	76.909740
3934.000000	76.986823
3933.000000	77.076210
3932.000000	77.158317
3931.000000	77.219588
3930.000000	77.258498
3929.000000	77.290729
3928.000000	77.330146
3927.000000	77.373477
3926.000000	77.412157
3925.000000	77.437884
3924.000000	77.449454
3923.000000	77.456635
3922.000000	77.469379
3921.000000	77.494594
3920.000000	77.532711
3919.000000	77.579562
3918.000000	77.634287
3917.000000	77.696929
3916.000000	77.765504
3915.000000	77.831309
3914.000000	77.890468
3913.000000	77.952575
3912.000000	78.017175
3911.000000	78.080522
3910.000000	78.143424
3909.000000	78.212540
3908.000000	78.301774
3907.000000	78.403966
3906.000000	78.494680
3905.000000	78.554264
3904.000000	78.590759
3903.000000	78.647000
3902.000000	78.748861
3901.000000	78.875438
3900.000000	78.988967
3899.000000	79.055671
3898.000000	79.073399
3897.000000	79.074692
3896.000000	79.088407
3895.000000	79.133166
3894.000000	79.203000
3893.000000	79.266044
3892.000000	79.284876
3891.000000	79.259736
3890.000000	79.234113
3889.000000	79.237910
3888.000000	79.282040
3887.000000	79.359814
3886.000000	79.424568
3885.000000	79.444718
3884.000000	79.447776
3883.000000	79.476650
3882.000000	79.530011
3881.000000	79.556976
3880.000000	79.523445
3879.000000	79.467853
3878.000000	79.451289
3877.000000	79.488439
3876.000000	79.545669
3875.000000	79.576794
3874.000000	79.571783
3873.000000	79.561559
3872.000000	79.583837
3871.000000	79.642999
3870.000000	79.698099
3869.000000	79.732167
3868.000000	79.763105
3867.000000	79.804554
3866.000000	79.870630
3865.000000	79.933307
3864.000000	79.935364
3863.000000	79.895774
3862.000000	79.869605
3861.000000	79.879294
3860.000000	79.911036
3859.000000	79.946265
3858.000000	80.002905
3857.000000	80.113213
3856.000000	80.289972
3855.000000	80.452567
3854.000000	80.452998
3853.000000	80.333654
3852.000000	80.299975
3851.000000	80.366222
3850.000000	80.410183
3849.000000	80.396994
3848.000000	80.341600
3847.000000	80.276623
3846.000000	80.240702
3845.000000	80.234672
3844.000000	80.235647
3843.000000	80.244048
3842.000000	80.264246
3841.000000	80.311148
3840.000000	80.387519
3839.000000	80.454578
3838.000000	80.488382
3837.000000	80.503766
3836.000000	80.527485
3835.000000	80.561204
3834.000000	80.584098
3833.000000	80.586463
3832.000000	80.568066
3831.000000	80.539472
3830.000000	80.533715
3829.000000	80.563893
3828.000000	80.595851
3827.000000	80.606043
3826.000000	80.602711
3825.000000	80.615832
3824.000000	80.676147
3823.000000	80.776623
3822.000000	80.847588
3821.000000	80.832041
3820.000000	80.789143
3819.000000	80.800937
3818.000000	80.879358
3817.000000	80.977114
3816.000000	81.024265
3815.000000	81.010270
3814.000000	80.992185
3813.000000	81.003654
3812.000000	81.026780
3811.000000	81.047160
3810.000000	81.080319
3809.000000	81.131840
3808.000000	81.177318
3807.000000	81.195733
3806.000000	81.207115
3805.000000	81.262357
3804.000000	81.369411
3803.000000	81.501309
3802.000000	81.585267
3801.000000	81.571220
3800.000000	81.531588
3799.000000	81.542541
3798.000000	81.594550
3797.000000	81.634377
3796.000000	81.630276
3795.000000	81.601678
3794.000000	81.594216
3793.000000	81.627041
3792.000000	81.675096
3791.000000	81.709185
3790.000000	81.730100
3789.000000	81.752379
3788.000000	81.785126
3787.000000	81.824800
3786.000000	81.859376
3785.000000	81.884286
3784.000000	81.905162
3783.000000	81.934901
3782.000000	81.982970
3781.000000	82.038173
3780.000000	82.068212
3779.000000	82.065260
3778.000000	82.058763
3777.000000	82.070135
3776.000000	82.090472
3775.000000	82.108123
3774.000000	82.125867
3773.000000	82.144470
3772.000000	82.158269
3771.000000	82.164142
3770.000000	82.156083
3769.000000	82.139977
3768.000000	82.137210
3767.000000	82.152332
3766.000000	82.174418
3765.000000	82.183918
3764.000000	82.174598
3763.000000	82.170129
3762.000000	82.193175
3761.000000	82.243859
3760.000000	82.275789
3759.000000	82.260912
3758.000000	82.241111
3757.000000	82.250571
3756.000000	82.284293
3755.000000	82.330146
3754.000000	82.402382
3753.000000	82.516105
3752.000000	82.621915
3751.000000	82.661919
3750.000000	82.672036
3749.000000	82.727236
3748.000000	82.828269
3747.000000	82.943429
3746.000000	83.075402
3745.000000	83.167647
3744.000000	83.146811
3743.000000	83.099204
3742.000000	83.092384
3741.000000	83.101760
3740.000000	83.110788
3739.000000	83.119068
3738.000000	83.158313
3737.000000	83.252841
3736.000000	83.397065
3735.000000	83.537674
3734.000000	83.626507
3733.000000	83.680413
3732.000000	83.715659
3731.000000	83.727872
3730.000000	83.718359
3729.000000	83.704579
3728.000000	83.717991
3727.000000	83.755337
3726.000000	83.785246
3725.000000	83.798321
3724.000000	83.815991
3723.000000	83.845788
3722.000000	83.857945
3721.000000	83.856356
3720.000000	83.862532
3719.000000	83.875809
3718.000000	83.897670
3717.000000	83.929285
3716.000000	83.979225
3715.000000	84.057730
3714.000000	84.166160
3713.000000	84.282667
3712.000000	84.357542
3711.000000	84.379732
3710.000000	84.391005
3709.000000	84.420224
3708.000000	84.458261
3707.000000	84.485371
3706.000000	84.500806
3705.000000	84.521606
3704.000000	84.554980
3703.000000	84.582530
3702.000000	84.579834
3701.000000	84.560357
3700.000000	84.557923
3699.000000	84.571096
3698.000000	84.587895
3697.000000	84.606896
3696.000000	84.620993
3695.000000	84.626426
3694.000000	84.638351
3693.000000	84.680330
3692.000000	84.748262
3691.000000	84.810102
3690.000000	84.839388
3689.000000	84.849533
3688.000000	84.883077
3687.000000	84.942611
3686.000000	84.981915
3685.000000	84.982791
3684.000000	84.962943
3683.000000	84.935630
3682.000000	84.907839
3681.000000	84.880582
3680.000000	84.874025
3679.000000	84.898752
3678.000000	84.953623
3677.000000	85.035138
3676.000000	85.082106
3675.000000	85.063512
3674.000000	85.044582
3673.000000	85.064695
3672.000000	85.120548
3671.000000	85.185760
3670.000000	85.181972
3669.000000	85.096175
3668.000000	85.021929
3667.000000	84.999433
3666.000000	84.981386
3665.000000	84.939173
3664.000000	84.878368
3663.000000	84.813270
3662.000000	84.753482
3661.000000	84.694480
3660.000000	84.649184
3659.000000	84.628598
3658.000000	84.616201
3657.000000	84.577173
3656.000000	84.499652
3655.000000	84.420076
3654.000000	84.356361
3653.000000	84.300696
3652.000000	84.262494
3651.000000	84.231369
3650.000000	84.158700
3649.000000	84.040732
3648.000000	83.944201
3647.000000	83.895666
3646.000000	83.842305
3645.000000	83.749218
3644.000000	83.631695
3643.000000	83.516795
3642.000000	83.407199
3641.000000	83.288223
3640.000000	83.163685
3639.000000	83.045573
3638.000000	82.936931
3637.000000	82.827340
3636.000000	82.709108
3635.000000	82.585671
3634.000000	82.458256
3633.000000	82.332279
3632.000000	82.220869
3631.000000	82.137110
3630.000000	82.045195
3629.000000	81.879344
3628.000000	81.669326
3627.000000	81.503164
3626.000000	81.373582
3625.000000	81.225775
3624.000000	81.051272
3623.000000	80.870301
3622.000000	80.702195
3621.000000	80.547953
3620.000000	80.372736
3619.000000	80.145521
3618.000000	79.903027
3617.000000	79.699937
3616.000000	79.543608
3615.000000	79.407044
3614.000000	79.257775
3613.000000	79.086329
3612.000000	78.915179
3611.000000	78.768743
3610.000000	78.647285
3609.000000	78.534771
3608.000000	78.406095
3607.000000	78.249737
3606.000000	78.076334
3605.000000	77.898686
3604.000000	77.724007
3603.000000	77.542054
3602.000000	77.339871
3601.000000	77.126548
3600.000000	76.918484
3599.000000	76.715831
3598.000000	76.518421
3597.000000	76.323523
3596.000000	76.122996
3595.000000	75.907911
3594.000000	75.672646
3593.000000	75.433118
3592.000000	75.209722
3591.000000	75.006416
3590.000000	74.818564
3589.000000	74.638747
3588.000000	74.448799
3587.000000	74.239738
3586.000000	74.030295
3585.000000	73.842214
3584.000000	73.674042
3583.000000	73.507654
3582.000000	73.333895
3581.000000	73.159582
3580.000000	72.994965
3579.000000	72.838503
3578.000000	72.684510
3577.000000	72.537097
3576.000000	72.400206
3575.000000	72.272063
3574.000000	72.147650
3573.000000	72.027259
3572.000000	71.918291
3571.000000	71.824510
3570.000000	71.750015
3569.000000	71.704934
3568.000000	71.689298
3567.000000	71.683838
3566.000000	71.675427
3565.000000	71.667977
3564.000000	71.666588
3563.000000	71.671829
3562.000000	71.683719
3561.000000	71.705220
3560.000000	71.738072
3559.000000	71.777991
3558.000000	71.819985
3557.000000	71.867663
3556.000000	71.927324
3555.000000	71.996749
3554.000000	72.068145
3553.000000	72.135637
3552.000000	72.198964
3551.000000	72.258486
3550.000000	72.313647
3549.000000	72.370951
3548.000000	72.440272
3547.000000	72.522611
3546.000000	72.608931
3545.000000	72.692209
3544.000000	72.770327
3543.000000	72.841034
3542.000000	72.900976
3541.000000	72.951546
3540.000000	72.996898
3539.000000	73.036641
3538.000000	73.070866
3537.000000	73.102406
3536.000000	73.133021
3535.000000	73.156446
3534.000000	73.165355
3533.000000	73.162778
3532.000000	73.155610
3531.000000	73.143075
3530.000000	73.116173
3529.000000	73.070649
3528.000000	73.011108
3527.000000	72.943160
3526.000000	72.870567
3525.000000	72.798176
3524.000000	72.725673
3523.000000	72.641821
3522.000000	72.534878
3521.000000	72.405940
3520.000000	72.264081
3519.000000	72.109711
3518.000000	71.935571
3517.000000	71.739758
3516.000000	71.528601
3515.000000	71.307353
3514.000000	71.075605
3513.000000	70.833269
3512.000000	70.581796
3511.000000	70.317801
3510.000000	70.035037
3509.000000	69.735009
3508.000000	69.426057
3507.000000	69.111787
3506.000000	68.789274
3505.000000	68.458804
3504.000000	68.126578
3503.000000	67.798259
3502.000000	67.475508
3501.000000	67.159450
3500.000000	66.851232
3499.000000	66.549220
3498.000000	66.252347
3497.000000	65.964618
3496.000000	65.692173
3495.000000	65.437022
3494.000000	65.198750
3493.000000	64.980106
3492.000000	64.784801
3491.000000	64.611751
3490.000000	64.458050
3489.000000	64.326832
3488.000000	64.224634
3487.000000	64.152586
3486.000000	64.107351
3485.000000	64.087008
3484.000000	64.089911
3483.000000	64.111366
3482.000000	64.149515
3481.000000	64.212327
3480.000000	64.309091
3479.000000	64.436896
3478.000000	64.583457
3477.000000	64.741607
3476.000000	64.911670
3475.000000	65.092146
3474.000000	65.278261
3473.000000	65.467919
3472.000000	65.662644
3471.000000	65.863611
3470.000000	66.072228
3469.000000	66.293189
3468.000000	66.529122
3467.000000	66.773784
3466.000000	67.017325
3465.000000	67.255385
3464.000000	67.488216
3463.000000	67.714792
3462.000000	67.935536
3461.000000	68.157715
3460.000000	68.388472
3459.000000	68.625511
3458.000000	68.860605
3457.000000	69.089470
3456.000000	69.314659
3455.000000	69.538268
3454.000000	69.760010
3453.000000	69.981286
3452.000000	70.203766
3451.000000	70.426959
3450.000000	70.649571
3449.000000	70.872513
3448.000000	71.096605
3447.000000	71.319346
3446.000000	71.539230
3445.000000	71.759484
3444.000000	71.982392
3443.000000	72.203170
3442.000000	72.414440
3441.000000	72.615577
3440.000000	72.812467
3439.000000	73.009684
3438.000000	73.208109
3437.000000	73.408390
3436.000000	73.612880
3435.000000	73.820141
3434.000000	74.023327
3433.000000	74.217090
3432.000000	74.402607
3431.000000	74.586653
3430.000000	74.774864
3429.000000	74.967817
3428.000000	75.161676
3427.000000	75.351584
3426.000000	75.536013
3425.000000	75.717509
3424.000000	75.899614
3423.000000	76.083331
3422.000000	76.267891
3421.000000	76.453317
3420.000000	76.640277
3419.000000	76.827882
3418.000000	77.013697
3417.000000	77.196492
3416.000000	77.377338
3415.000000	77.558629
3414.000000	77.742706
3413.000000	77.930485
3412.000000	78.120469
3411.000000	78.310189
3410.000000	78.499661
3409.000000	78.691953
3408.000000	78.887919
3407.000000	79.082710
3406.000000	79.270359
3405.000000	79.449831
3404.000000	79.625900
3403.000000	79.805469
3402.000000	79.995626
3401.000000	80.201218
3400.000000	80.418930
3399.000000	80.636586
3398.000000	80.842312
3397.000000	81.034192
3396.000000	81.218079
3395.000000	81.399334
3394.000000	81.581526
3393.000000	81.769847
3392.000000	81.968094
3391.000000	82.172215
3390.000000	82.372757
3389.000000	82.563998
3388.000000	82.747217
3387.000000	82.925925
3386.000000	83.102751
3385.000000	83.280014
3384.000000	83.459115
3383.000000	83.638849
3382.000000	83.817585
3381.000000	83.996394
3380.000000	84.176560
3379.000000	84.356566
3378.000000	84.534764
3377.000000	84.713327
3376.000000	84.894572
3375.000000	85.075189
3374.000000	85.249506
3373.000000	85.417783
3372.000000	85.587095
3371.000000	85.764546
3370.000000	85.953138
3369.000000	86.152647
3368.000000	86.360241
3367.000000	86.570438
3366.000000	86.778453
3365.000000	86.983379
3364.000000	87.186550
3363.000000	87.389098
3362.000000	87.593456
3361.000000	87.804306
3360.000000	88.023833
3359.000000	88.247852
3358.000000	88.470443
3357.000000	88.690419
3356.000000	88.909384
3355.000000	89.126576
3354.000000	89.340862
3353.000000	89.556365
3352.000000	89.780220
3351.000000	90.014307
3350.000000	90.252409
3349.000000	90.485667
3348.000000	90.708529
3347.000000	90.919586
3346.000000	91.121560
3345.000000	91.319974
3344.000000	91.517829
3343.000000	91.711362
3342.000000	91.893561
3341.000000	92.061949
3340.000000	92.219705
3339.000000	92.368876
3338.000000	92.504643
3337.000000	92.617518
3336.000000	92.698167
3335.000000	92.740260
3334.000000	92.741288
3333.000000	92.699764
3332.000000	92.612586
3331.000000	92.472940
3330.000000	92.272296
3329.000000	92.005322
3328.000000	91.668971
3327.000000	91.260655
3326.000000	90.776610
3325.000000	90.210651
3324.000000	89.555674
3323.000000	88.802027
3322.000000	87.941173
3321.000000	86.966087
3320.000000	85.864997
3319.000000	84.621180
3318.000000	83.212123
3317.000000	81.615556
3316.000000	79.808890
3315.000000	77.765035
3314.000000	75.463338
3313.000000	72.895523
3312.000000	70.069898
3311.000000	67.012676
3310.000000	63.766106
3309.000000	60.393804
3308.000000	56.971032
3307.000000	53.570620
3306.000000	50.259648
3305.000000	47.097811
3304.000000	44.132734
3303.000000	41.398362
3302.000000	38.920308
3301.000000	36.720192
3300.000000	34.815223
3299.000000	33.210045
3298.000000	31.904423
3297.000000	30.898606
3296.000000	30.175486
3295.000000	29.694094
3294.000000	29.392020
3293.000000	29.200403
3292.000000	29.055021
3291.000000	28.897113
3290.000000	28.691729
3289.000000	28.437239
3288.000000	28.157821
3287.000000	27.887482
3286.000000	27.656827
3285.000000	27.487971
3284.000000	27.385276
3283.000000	27.332824
3282.000000	27.305176
3281.000000	27.278728
3280.000000	27.232964
3279.000000	27.149582
3278.000000	27.020485
3277.000000	26.853951
3276.000000	26.667132
3275.000000	26.476796
3274.000000	26.301866
3273.000000	26.168716
3272.000000	26.106169
3271.000000	26.134766
3270.000000	26.266718
3269.000000	26.509321
3268.000000	26.861766
3267.000000	27.314685
3266.000000	27.852726
3265.000000	28.456843
3264.000000	29.097573
3263.000000	29.730253
3262.000000	30.303348
3261.000000	30.768201
3260.000000	31.078688
3259.000000	31.192174
3258.000000	31.082794
3257.000000	30.745258
3256.000000	30.191751
3255.000000	29.441290
3254.000000	28.517689
3253.000000	27.455873
3252.000000	26.289011
3251.000000	25.044245
3250.000000	23.748553
3249.000000	22.435511
3248.000000	21.144521
3247.000000	19.912617
3246.000000	18.776675
3245.000000	17.776818
3244.000000	16.949085
3243.000000	16.310673
3242.000000	15.857373
3241.000000	15.562223
3240.000000	15.374182
3239.000000	15.231152
3238.000000	15.079607
3237.000000	14.891651
3236.000000	14.662544
3235.000000	14.401100
3234.000000	14.126787
3233.000000	13.861140
3232.000000	13.614893
3231.000000	13.386149
3230.000000	13.175489
3229.000000	12.997964
3228.000000	12.874638
3227.000000	12.822744
3226.000000	12.858288
3225.000000	12.998452
3224.000000	13.255073
3223.000000	13.625633
3222.000000	14.098221
3221.000000	14.657081
3220.000000	15.276197
3219.000000	15.917638
3218.000000	16.541323
3217.000000	17.115995
3216.000000	17.619268
3215.000000	18.036777
3214.000000	18.368926
3213.000000	18.633439
3212.000000	18.854882
3211.000000	19.055595
3210.000000	19.259192
3209.000000	19.492399
3208.000000	19.776779
3207.000000	20.122263
3206.000000	20.533104
3205.000000	21.012891
3204.000000	21.560624
3203.000000	22.167306
3202.000000	22.822080
3201.000000	23.517831
3200.000000	24.244967
3199.000000	24.988547
3198.000000	25.734565
3197.000000	26.474503
3196.000000	27.200700
3195.000000	27.902472
3194.000000	28.571063
3193.000000	29.202134
3192.000000	29.789928
3191.000000	30.323215
3190.000000	30.793404
3189.000000	31.199696
3188.000000	31.543858
3187.000000	31.827318
3186.000000	32.054859
3185.000000	32.238377
3184.000000	32.389691
3183.000000	32.515162
3182.000000	32.620909
3181.000000	32.715350
3180.000000	32.805554
3179.000000	32.895035
3178.000000	32.989703
3177.000000	33.100990
3176.000000	33.239282
3175.000000	33.409428
3174.000000	33.615535
3173.000000	33.863735
3172.000000	34.155514
3171.000000	34.486190
3170.000000	34.851784
3169.000000	35.253113
3168.000000	35.690275
3167.000000	36.157295
3166.000000	36.647885
3165.000000	37.158740
3164.000000	37.684859
3163.000000	38.217501
3162.000000	38.749299
3161.000000	39.275725
3160.000000	39.787234
3159.000000	40.265693
3158.000000	40.689280
3157.000000	41.037343
3156.000000	41.284644
3155.000000	41.398966
3154.000000	41.349876
3153.000000	41.116468
3152.000000	40.696426
3151.000000	40.112821
3150.000000	39.420243
3149.000000	38.696366
3148.000000	38.012115
3147.000000	37.408149
3146.000000	36.888944
3145.000000	36.428198
3144.000000	35.977488
3143.000000	35.480483
3142.000000	34.895449
3141.000000	34.207593
3140.000000	33.423174
3139.000000	32.561758
3138.000000	31.655550
3137.000000	30.747674
3136.000000	29.880613
3135.000000	29.088135
3134.000000	28.399014
3133.000000	27.841055
3132.000000	27.433463
3131.000000	27.181716
3130.000000	27.085565
3129.000000	27.141164
3128.000000	27.339182
3127.000000	27.662863
3126.000000	28.094934
3125.000000	28.623926
3124.000000	29.234903
3123.000000	29.908849
3122.000000	30.629502
3121.000000	31.385637
3120.000000	32.165681
3119.000000	32.953783
3118.000000	33.738049
3117.000000	34.513359
3116.000000	35.273432
3115.000000	36.006419
3114.000000	36.701814
3113.000000	37.355280
3112.000000	37.964124
3111.000000	38.525510
3110.000000	39.039570
3109.000000	39.509791
3108.000000	39.935393
3107.000000	40.310347
3106.000000	40.632947
3105.000000	40.908420
3104.000000	41.143155
3103.000000	41.341619
3102.000000	41.513138
3101.000000	41.675375
3100.000000	41.846567
3099.000000	42.039917
3098.000000	42.266976
3097.000000	42.539892
3096.000000	42.864562
3095.000000	43.237131
3094.000000	43.649720
3093.000000	44.095648
3092.000000	44.567244
3091.000000	45.053179
3090.000000	45.542952
3089.000000	46.029359
3088.000000	46.505542
3087.000000	46.964880
3086.000000	47.405264
3085.000000	47.828840
3084.000000	48.235342
3083.000000	48.620948
3082.000000	48.985336
3081.000000	49.334940
3080.000000	49.676398
3079.000000	50.011780
3078.000000	50.342053
3077.000000	50.668838
3076.000000	50.991463
3075.000000	51.306831
3074.000000	51.614921
3073.000000	51.919798
3072.000000	52.222774
3071.000000	52.520620
3070.000000	52.812181
3069.000000	53.101718
3068.000000	53.392946
3067.000000	53.683867
3066.000000	53.970621
3065.000000	54.252252
3064.000000	54.528898
3063.000000	54.799318
3062.000000	55.062622
3061.000000	55.319582
3060.000000	55.570265
3059.000000	55.813459
3058.000000	56.050492
3057.000000	56.285080
3056.000000	56.518057
3055.000000	56.745746
3054.000000	56.965309
3053.000000	57.178649
3052.000000	57.388070
3051.000000	57.592239
3050.000000	57.788514
3049.000000	57.976165
3048.000000	58.155833
3047.000000	58.328223
3046.000000	58.495640
3045.000000	58.661969
3044.000000	58.829123
3043.000000	58.996492
3042.000000	59.164139
3041.000000	59.333047
3040.000000	59.501312
3039.000000	59.663934
3038.000000	59.819110
3037.000000	59.971085
3036.000000	60.125150
3035.000000	60.283076
3034.000000	60.444399
3033.000000	60.608488
3032.000000	60.773333
3031.000000	60.936104
3030.000000	61.096751
3029.000000	61.257751
3028.000000	61.419604
3027.000000	61.580464
3026.000000	61.740788
3025.000000	61.903673
3024.000000	62.069017
3023.000000	62.231977
3022.000000	62.389036
3021.000000	62.541876
3020.000000	62.693558
3019.000000	62.844310
3018.000000	62.993056
3017.000000	63.139497
3016.000000	63.282373
3015.000000	63.418541
3014.000000	63.545356
3013.000000	63.661545
3012.000000	63.764484
3011.000000	63.848598
3010.000000	63.908250
3009.000000	63.938521
3008.000000	63.932286
3007.000000	63.879790
3006.000000	63.771201
3005.000000	63.599306
3004.000000	63.357591
3003.000000	63.040684
3002.000000	62.649980
3001.000000	62.196915
3000.000000	61.700909
2999.000000	61.182234
2998.000000	60.658553
2997.000000	60.147044
2996.000000	59.672639
2995.000000	59.274961
2994.000000	59.000015
2993.000000	58.875614
2992.000000	58.888828
2991.000000	58.992722
2990.000000	59.134052
2989.000000	59.274332
2988.000000	59.391110
2987.000000	59.471948
2986.000000	59.514867
2985.000000	59.527720
2984.000000	59.523622
2983.000000	59.518925
2982.000000	59.535226
2981.000000	59.596398
2980.000000	59.717027
2979.000000	59.895043
2978.000000	60.117513
2977.000000	60.370989
2976.000000	60.647903
2975.000000	60.947350
2974.000000	61.271744
2973.000000	61.617250
2972.000000	61.964795
2971.000000	62.283119
2970.000000	62.539851
2969.000000	62.709149
2968.000000	62.768698
2967.000000	62.699425
2966.000000	62.490128
2965.000000	62.138663
2964.000000	61.647846
2963.000000	61.021122
2962.000000	60.268555
2961.000000	59.411349
2960.000000	58.481072
2959.000000	57.515019
2958.000000	56.550926
2957.000000	55.624238
2956.000000	54.768408
2955.000000	54.023404
2954.000000	53.433620
2953.000000	53.025245
2952.000000	52.780652
2951.000000	52.646049
2950.000000	52.572581
2949.000000	52.545817
2948.000000	52.581593
2947.000000	52.700214
2946.000000	52.905960
2945.000000	53.175587
2944.000000	53.457990
2943.000000	53.697259
2942.000000	53.868850
2941.000000	54.000828
2940.000000	54.161487
2939.000000	54.426699
2938.000000	54.851033
2937.000000	55.451103
2936.000000	56.202874
2935.000000	57.055981
2934.000000	57.955963
2933.000000	58.858172
2932.000000	59.728337
2931.000000	60.542512
2930.000000	61.289511
2929.000000	61.968078
2928.000000	62.579995
2927.000000	63.127909
2926.000000	63.619595
2925.000000	64.065965
2924.000000	64.473225
2923.000000	64.840752
2922.000000	65.167319
2921.000000	65.454384
2920.000000	65.702337
2919.000000	65.910483
2918.000000	66.081216
2917.000000	66.220339
2916.000000	66.332432
2915.000000	66.419924
2914.000000	66.487348
2913.000000	66.540832
2912.000000	66.583685
2911.000000	66.616761
2910.000000	66.643617
2909.000000	66.670470
2908.000000	66.700006
2907.000000	66.730769
2906.000000	66.762511
2905.000000	66.797891
2904.000000	66.836831
2903.000000	66.876082
2902.000000	66.914052
2901.000000	66.950986
2900.000000	66.985530
2899.000000	67.012834
2898.000000	67.029427
2897.000000	67.033584
2896.000000	67.020624
2895.000000	66.982491
2894.000000	66.913597
2893.000000	66.813104
2892.000000	66.680152
2891.000000	66.511973
2890.000000	66.308293
2889.000000	66.073830
2888.000000	65.815376
2887.000000	65.541019
2886.000000	65.263380
2885.000000	64.998306
2884.000000	64.758826
2883.000000	64.552944
2882.000000	64.388184
2881.000000	64.273065
2880.000000	64.211805
2879.000000	64.202500
2878.000000	64.241568
2877.000000	64.326292
2876.000000	64.452059
2875.000000	64.611490
2874.000000	64.796937
2873.000000	64.999923
2872.000000	65.208170
2871.000000	65.408829
2870.000000	65.596914
2869.000000	65.776291
2868.000000	65.952492
2867.000000	66.128654
2866.000000	66.307681
2865.000000	66.491892
2864.000000	66.678614
2863.000000	66.861565
2862.000000	67.038258
2861.000000	67.211575
2860.000000	67.383363
2859.000000	67.552117
2858.000000	67.718470
2857.000000	67.887551
2856.000000	68.063885
2855.000000	68.248214
2854.000000	68.440066
2853.000000	68.637881
2852.000000	68.834680
2851.000000	69.018462
2850.000000	69.179675
2849.000000	69.315306
2848.000000	69.425831
2847.000000	69.513555
2846.000000	69.585489
2845.000000	69.652647
2844.000000	69.723673
2843.000000	69.801794
2842.000000	69.888981
2841.000000	69.989355
2840.000000	70.106213
2839.000000	70.238888
2838.000000	70.384160
2837.000000	70.538269
2836.000000	70.696916
2835.000000	70.856254
2834.000000	71.014774
2833.000000	71.172013
2832.000000	71.325555
2831.000000	71.472035
2830.000000	71.611082
2829.000000	71.745077
2828.000000	71.874935
2827.000000	71.999460
2826.000000	72.118632
2825.000000	72.233807
2824.000000	72.344524
2823.000000	72.448519
2822.000000	72.545301
2821.000000	72.636411
2820.000000	72.721947
2819.000000	72.800433
2818.000000	72.872374
2817.000000	72.940421
2816.000000	73.005662
2815.000000	73.067082
2814.000000	73.125165
2813.000000	73.182795
2812.000000	73.242126
2811.000000	73.303639
2810.000000	73.368262
2809.000000	73.436927
2808.000000	73.507927
2807.000000	73.578177
2806.000000	73.647345
2805.000000	73.717470
2804.000000	73.788410
2803.000000	73.857353
2802.000000	73.923128
2801.000000	73.987490
2800.000000	74.051795
2799.000000	74.115706
2798.000000	74.179248
2797.000000	74.242639
2796.000000	74.303794
2795.000000	74.359448
2794.000000	74.409136
2793.000000	74.454931
2792.000000	74.497428
2791.000000	74.535614
2790.000000	74.570563
2789.000000	74.605230
2788.000000	74.640203
2787.000000	74.673412
2786.000000	74.704597
2785.000000	74.736530
2784.000000	74.771344
2783.000000	74.809386
2782.000000	74.852096
2781.000000	74.901970
2780.000000	74.958710
2779.000000	75.018835
2778.000000	75.079845
2777.000000	75.141616
2776.000000	75.203126
2775.000000	75.261277
2774.000000	75.313980
2773.000000	75.361375
2772.000000	75.403403
2771.000000	75.439426
2770.000000	75.470885
2769.000000	75.501169
2768.000000	75.532025
2767.000000	75.562512
2766.000000	75.591801
2765.000000	75.620136
2764.000000	75.646834
2763.000000	75.670587
2762.000000	75.692171
2761.000000	75.713950
2760.000000	75.736367
2759.000000	75.757642
2758.000000	75.776865
2757.000000	75.793984
2756.000000	75.806669
2755.000000	75.810560
2754.000000	75.803199
2753.000000	75.785181
2752.000000	75.757377
2751.000000	75.720624
2750.000000	75.678711
2749.000000	75.638122
2748.000000	75.603980
2747.000000	75.578916
2746.000000	75.565913
2745.000000	75.568961
2744.000000	75.590213
2743.000000	75.628831
2742.000000	75.683067
2741.000000	75.750653
2740.000000	75.826823
2739.000000	75.905588
2738.000000	75.983299
2737.000000	76.058641
2736.000000	76.129741
2735.000000	76.194224
2734.000000	76.252230
2733.000000	76.306157
2732.000000	76.356972
2731.000000	76.403615
2730.000000	76.446071
2729.000000	76.485676
2728.000000	76.522234
2727.000000	76.553585
2726.000000	76.578330
2725.000000	76.596821
2724.000000	76.609540
2723.000000	76.617418
2722.000000	76.623578
2721.000000	76.631764
2720.000000	76.643076
2719.000000	76.656674
2718.000000	76.673120
2717.000000	76.694173
2716.000000	76.719821
2715.000000	76.748658
2714.000000	76.780961
2713.000000	76.818155
2712.000000	76.859373
2711.000000	76.901752
2710.000000	76.943751
2709.000000	76.985257
2708.000000	77.024902
2707.000000	77.060503
2706.000000	77.092073
2705.000000	77.121432
2704.000000	77.149293
2703.000000	77.175770
2702.000000	77.203121
2701.000000	77.234373
2700.000000	77.269415
2699.000000	77.305536
2698.000000	77.341343
2697.000000	77.376819
2696.000000	77.410007
2695.000000	77.437501
2694.000000	77.458241
2693.000000	77.473664
2692.000000	77.484414
2691.000000	77.490102
2690.000000	77.492267
2689.000000	77.494065
2688.000000	77.496828
2687.000000	77.499981
2686.000000	77.503950
2685.000000	77.509947
2684.000000	77.517239
2683.000000	77.524004
2682.000000	77.530783
2681.000000	77.539820
2680.000000	77.551229
2679.000000	77.563157
2678.000000	77.575528
2677.000000	77.590040
2676.000000	77.606779
2675.000000	77.624416
2674.000000	77.643743
2673.000000	77.667643
2672.000000	77.697247
2671.000000	77.731544
2670.000000	77.770703
2669.000000	77.816255
2668.000000	77.868056
2667.000000	77.924047
2666.000000	77.983304
2665.000000	78.046301
2664.000000	78.112076
2663.000000	78.178447
2662.000000	78.244665
2661.000000	78.310753
2660.000000	78.374549
2659.000000	78.432666
2658.000000	78.484399
2657.000000	78.531760
2656.000000	78.575782
2655.000000	78.615807
2654.000000	78.652318
2653.000000	78.686842
2652.000000	78.719159
2651.000000	78.747395
2650.000000	78.770680
2649.000000	78.789232
2648.000000	78.802142
2647.000000	78.808489
2646.000000	78.810640
2645.000000	78.813298
2644.000000	78.819431
2643.000000	78.829699
2642.000000	78.845106
2641.000000	78.867025
2640.000000	78.894933
2639.000000	78.927223
2638.000000	78.964209
2637.000000	79.007169
2636.000000	79.054829
2635.000000	79.104218
2634.000000	79.154468
2633.000000	79.206821
2632.000000	79.261242
2631.000000	79.316178
2630.000000	79.371602
2629.000000	79.428784
2628.000000	79.487129
2627.000000	79.544175
2626.000000	79.598634
2625.000000	79.650619
2624.000000	79.699332
2623.000000	79.743336
2622.000000	79.782679
2621.000000	79.818042
2620.000000	79.848056
2619.000000	79.870641
2618.000000	79.886346
2617.000000	79.897334
2616.000000	79.903954
2615.000000	79.905094
2614.000000	79.901594
2613.000000	79.896081
2612.000000	79.889629
2611.000000	79.881986
2610.000000	79.874397
2609.000000	79.869064
2608.000000	79.866028
2607.000000	79.863616
2606.000000	79.861737
2605.000000	79.861725
2604.000000	79.863369
2603.000000	79.865206
2602.000000	79.867453
2601.000000	79.871478
2600.000000	79.876786
2599.000000	79.881462
2598.000000	79.885053
2597.000000	79.887858
2596.000000	79.888085
2595.000000	79.883107
2594.000000	79.873363
2593.000000	79.861877
2592.000000	79.850003
2591.000000	79.836798
2590.000000	79.822036
2589.000000	79.806658
2588.000000	79.790613
2587.000000	79.773423
2586.000000	79.756746
2585.000000	79.743387
2584.000000	79.734078
2583.000000	79.728060
2582.000000	79.726505
2581.000000	79.732041
2580.000000	79.745447
2579.000000	79.765918
2578.000000	79.793693
2577.000000	79.829546
2576.000000	79.871820
2575.000000	79.917202
2574.000000	79.964273
2573.000000	80.013060
2572.000000	80.062275
2571.000000	80.110030
2570.000000	80.156716
2569.000000	80.204150
2568.000000	80.252318
2567.000000	80.300189
2566.000000	80.348888
2565.000000	80.400759
2564.000000	80.455996
2563.000000	80.513316
2562.000000	80.573321
2561.000000	80.637781
2560.000000	80.706130
2559.000000	80.776097
2558.000000	80.847027
2557.000000	80.919383
2556.000000	80.991586
2555.000000	81.060686
2554.000000	81.125777
2553.000000	81.187655
2552.000000	81.245816
2551.000000	81.299103
2550.000000	81.348870
2549.000000	81.397890
2548.000000	81.446574
2547.000000	81.493107
2546.000000	81.536724
2545.000000	81.577980
2544.000000	81.616178
2543.000000	81.650079
2542.000000	81.680816
2541.000000	81.711025
2540.000000	81.741614
2539.000000	81.772024
2538.000000	81.803011
2537.000000	81.836036
2536.000000	81.870249
2535.000000	81.903194
2534.000000	81.933922
2533.000000	81.962860
2532.000000	81.989504
2531.000000	82.013185
2530.000000	82.035401
2529.000000	82.058094
2528.000000	82.080311
2527.000000	82.099478
2526.000000	82.114954
2525.000000	82.127471
2524.000000	82.135840
2523.000000	82.137714
2522.000000	82.133171
2521.000000	82.124008
2520.000000	82.110491
2519.000000	82.091518
2518.000000	82.067292
2517.000000	82.038791
2516.000000	82.004760
2515.000000	81.963068
2514.000000	81.914286
2513.000000	81.860991
2512.000000	81.804627
2511.000000	81.746070
2510.000000	81.688715
2509.000000	81.637116
2508.000000	81.592681
2507.000000	81.553855
2506.000000	81.520060
2505.000000	81.491868
2504.000000	81.467862
2503.000000	81.445136
2502.000000	81.422737
2501.000000	81.402025
2500.000000	81.383928
2499.000000	81.369115
2498.000000	81.360753
2497.000000	81.362878
2496.000000	81.376629
2495.000000	81.400507
2494.000000	81.433649
2493.000000	81.476057
2492.000000	81.525553
2491.000000	81.578577
2490.000000	81.633460
2489.000000	81.690143
2488.000000	81.747942
2487.000000	81.806337
2486.000000	81.867441
2485.000000	81.934010
2484.000000	82.005280
2483.000000	82.077949
2482.000000	82.150254
2481.000000	82.222105
2480.000000	82.292348
2479.000000	82.359530
2478.000000	82.424723
2477.000000	82.490015
2476.000000	82.554650
2475.000000	82.615788
2474.000000	82.672604
2473.000000	82.726103
2472.000000	82.775785
2471.000000	82.819666
2470.000000	82.857018
2469.000000	82.888306
2468.000000	82.912591
2467.000000	82.928597
2466.000000	82.937647
2465.000000	82.942288
2464.000000	82.942994
2463.000000	82.938642
2462.000000	82.929761
2461.000000	82.918108
2460.000000	82.903705
2459.000000	82.885977
2458.000000	82.866670
2457.000000	82.848503
2456.000000	82.831551
2455.000000	82.814324
2454.000000	82.797745
2453.000000	82.784520
2452.000000	82.775333
2451.000000	82.769157
2450.000000	82.767029
2449.000000	82.771545
2448.000000	82.783246
2447.000000	82.800879
2446.000000	82.824721
2445.000000	82.856556
2444.000000	82.896137
2443.000000	82.941165
2442.000000	82.990146
2441.000000	83.041911
2440.000000	83.093484
2439.000000	83.141738
2438.000000	83.187043
2437.000000	83.232064
2436.000000	83.277574
2435.000000	83.322857
2434.000000	83.369085
2433.000000	83.418468
2432.000000	83.470375
2431.000000	83.521914
2430.000000	83.571802
2429.000000	83.620118
2428.000000	83.664847
2427.000000	83.702362
2426.000000	83.731438
2425.000000	83.753151
2424.000000	83.767539
2423.000000	83.773942
2422.000000	83.774042
2421.000000	83.771271
2420.000000	83.766976
2419.000000	83.760973
2418.000000	83.755429
2417.000000	83.754307
2416.000000	83.759053
2415.000000	83.768308
2414.000000	83.781614
2413.000000	83.799334
2412.000000	83.818855
2411.000000	83.834874
2410.000000	83.844009
2409.000000	83.845940
2408.000000	83.840326
2407.000000	83.826418
2406.000000	83.806246
2405.000000	83.784143
2404.000000	83.762403
2403.000000	83.740874
2402.000000	83.720439
2401.000000	83.702829
2400.000000	83.685880
2399.000000	83.662591
2398.000000	83.626325
2397.000000	83.573094
2396.000000	83.498951
2395.000000	83.399611
2394.000000	83.274158
2393.000000	83.127065
2392.000000	82.964241
2391.000000	82.791230
2390.000000	82.615757
2389.000000	82.446839
2388.000000	82.291552
2387.000000	82.153300
2386.000000	82.036326
2385.000000	81.948790
2384.000000	81.896536
2383.000000	81.881724
2382.000000	81.903481
2381.000000	81.958849
2380.000000	82.040008
2379.000000	82.129091
2378.000000	82.208040
2377.000000	82.264906
2376.000000	82.291740
2375.000000	82.283699
2374.000000	82.242824
2373.000000	82.184668
2372.000000	82.126873
2371.000000	82.077092
2370.000000	82.034458
2369.000000	82.008906
2368.000000	82.009324
2367.000000	82.025565
2366.000000	82.044790
2365.000000	82.076047
2364.000000	82.122678
2363.000000	82.166515
2362.000000	82.199579
2361.000000	82.219759
2360.000000	82.241941
2359.000000	82.275724
2358.000000	82.300868
2357.000000	82.307721
2356.000000	82.258698
2355.000000	82.125880
2354.000000	81.913038
2353.000000	81.735265
2352.000000	81.772210
2351.000000	82.059918
2350.000000	82.500308
2349.000000	82.939012
2348.000000	83.278202
2347.000000	83.468012
2346.000000	83.456240
2345.000000	83.309900
2344.000000	83.105058
2343.000000	82.934443
2342.000000	82.828912
2341.000000	82.778882
2340.000000	82.770125
2339.000000	82.774303
2338.000000	82.804776
2337.000000	82.863685
2336.000000	82.968243
2335.000000	83.089869
2334.000000	83.216317
2333.000000	83.291938
2332.000000	83.329400
2331.000000	83.306719
2330.000000	83.304487
2329.000000	83.333370
2328.000000	83.406335
2327.000000	83.484009
2326.000000	83.528948
2325.000000	83.534573
2324.000000	83.485108
2323.000000	83.390057
2322.000000	83.259567
2321.000000	83.106408
2320.000000	82.963382
2319.000000	82.836929
2318.000000	82.755079
2317.000000	82.682355
2316.000000	82.608014
2315.000000	82.485658
2314.000000	82.335127
2313.000000	82.148948
2312.000000	81.958585
2311.000000	81.755504
2310.000000	81.559558
2309.000000	81.358396
2308.000000	81.161309
2307.000000	80.960808
2306.000000	80.773162
2305.000000	80.593769
2304.000000	80.428546
2303.000000	80.266092
2302.000000	80.119380
2301.000000	79.985452
2300.000000	79.874390
2299.000000	79.778384
2298.000000	79.704798
2297.000000	79.645544
2296.000000	79.598372
2295.000000	79.554736
2294.000000	79.516305
2293.000000	79.481849
2292.000000	79.447454
2291.000000	79.409777
2290.000000	79.368338
2289.000000	79.324861
2288.000000	79.276688
2287.000000	79.226039
2286.000000	79.178116
2285.000000	79.139054
2284.000000	79.106934
2283.000000	79.080296
2282.000000	79.061149
2281.000000	79.054042
2280.000000	79.060289
2279.000000	79.080890
2278.000000	79.119882
2277.000000	79.178424
2276.000000	79.253869
2275.000000	79.342565
2274.000000	79.446303
2273.000000	79.565906
2272.000000	79.697805
2271.000000	79.837272
2270.000000	79.984031
2269.000000	80.137952
2268.000000	80.295681
2267.000000	80.453315
2266.000000	80.611008
2265.000000	80.768269
2264.000000	80.920271
2263.000000	81.063478
2262.000000	81.198819
2261.000000	81.330511
2260.000000	81.459536
2259.000000	81.588390
2258.000000	81.722619
2257.000000	81.866476
2256.000000	82.019451
2255.000000	82.179072
2254.000000	82.346921
2253.000000	82.523314
2252.000000	82.705928
2251.000000	82.891404
2250.000000	83.080315
2249.000000	83.271742
2248.000000	83.462432
2247.000000	83.649355
2246.000000	83.832900
2245.000000	84.012613
2244.000000	84.184566
2243.000000	84.346096
2242.000000	84.498518
2241.000000	84.643139
2240.000000	84.777810
2239.000000	84.901218
2238.000000	85.015422
2237.000000	85.121608
2236.000000	85.217330
2235.000000	85.300860
2234.000000	85.373983
2233.000000	85.437882
2232.000000	85.490571
2231.000000	85.531796
2230.000000	85.565984
2229.000000	85.597190
2228.000000	85.625390
2227.000000	85.649940
2226.000000	85.672809
2225.000000	85.694546
2224.000000	85.711830
2223.000000	85.721928
2222.000000	85.726067
2221.000000	85.725795
2220.000000	85.720444
2219.000000	85.711264
2218.000000	85.703664
2217.000000	85.702072
2216.000000	85.706376
2215.000000	85.716124
2214.000000	85.733805
2213.000000	85.760733
2212.000000	85.793958
2211.000000	85.830415
2210.000000	85.870306
2209.000000	85.913650
2208.000000	85.957806
2207.000000	86.001285
2206.000000	86.045422
2205.000000	86.089364
2204.000000	86.127962
2203.000000	86.158027
2202.000000	86.182783
2201.000000	86.207580
2200.000000	86.235803
2199.000000	86.271745
2198.000000	86.321904
2197.000000	86.389193
2196.000000	86.469426
2195.000000	86.556524
2194.000000	86.647025
2193.000000	86.736953
2192.000000	86.819795
2191.000000	86.891545
2190.000000	86.953915
2189.000000	87.009466
2188.000000	87.057655
2187.000000	87.098475
2186.000000	87.134955
2185.000000	87.168826
2184.000000	87.197797
2183.000000	87.220340
2182.000000	87.238808
2181.000000	87.254851
2180.000000	87.266285
2179.000000	87.271428
2178.000000	87.272411
2177.000000	87.271132
2176.000000	87.266367
2175.000000	87.257776
2174.000000	87.248497
2173.000000	87.240988
2172.000000	87.234518
2171.000000	87.229428
2170.000000	87.229128
2169.000000	87.235179
2168.000000	87.244765
2167.000000	87.255721
2166.000000	87.269272
2165.000000	87.285114
2164.000000	87.298980
2163.000000	87.308422
2162.000000	87.316267
2161.000000	87.325474
2160.000000	87.335514
2159.000000	87.346649
2158.000000	87.362434
2157.000000	87.384422
2156.000000	87.409292
2155.000000	87.434403
2154.000000	87.461543
2153.000000	87.492234
2152.000000	87.524489
2151.000000	87.557441
2150.000000	87.594189
2149.000000	87.636609
2148.000000	87.681956
2147.000000	87.727765
2146.000000	87.774950
2145.000000	87.823047
2144.000000	87.868041
2143.000000	87.908259
2142.000000	87.947138
2141.000000	87.987566
2140.000000	88.028195
2139.000000	88.067853
2138.000000	88.108027
2137.000000	88.148186
2136.000000	88.184001
2135.000000	88.213121
2134.000000	88.237655
2133.000000	88.258317
2132.000000	88.271836
2131.000000	88.276844
2130.000000	88.276694
2129.000000	88.273385
2128.000000	88.264111
2127.000000	88.246799
2126.000000	88.223602
2125.000000	88.195631
2124.000000	88.159981
2123.000000	88.115438
2122.000000	88.065704
2121.000000	88.013914
2120.000000	87.959534
2119.000000	87.903471
2118.000000	87.850626
2117.000000	87.803949
2116.000000	87.760947
2115.000000	87.719257
2114.000000	87.680348
2113.000000	87.644956
2112.000000	87.610592
2111.000000	87.576908
2110.000000	87.548323
2109.000000	87.528268
2108.000000	87.515734
2107.000000	87.509955
2106.000000	87.512701
2105.000000	87.522963
2104.000000	87.535152
2103.000000	87.545501
2102.000000	87.555253
2101.000000	87.564789
2100.000000	87.571322
2099.000000	87.575175
2098.000000	87.582513
2097.000000	87.598879
2096.000000	87.624838
2095.000000	87.661652
2094.000000	87.713816
2093.000000	87.781858
2092.000000	87.859688
2091.000000	87.942677
2090.000000	88.032056
2089.000000	88.128654
2088.000000	88.228966
2087.000000	88.331051
2086.000000	88.436932
2085.000000	88.545628
2084.000000	88.651125
2083.000000	88.750318
2082.000000	88.845930
2081.000000	88.938889
2080.000000	89.025463
2079.000000	89.104975
2078.000000	89.182653
2077.000000	89.261231
2076.000000	89.336880
2075.000000	89.407656
2074.000000	89.476934
2073.000000	89.545654
2072.000000	89.610077
2071.000000	89.668681
2070.000000	89.725998
2069.000000	89.785325
2068.000000	89.844016
2067.000000	89.899290
2066.000000	89.952268
2065.000000	90.003794
2064.000000	90.052563
2063.000000	90.100377
2062.000000	90.151687
2061.000000	90.205375
2060.000000	90.254384
2059.000000	90.296091
2058.000000	90.335610
2057.000000	90.376181
2056.000000	90.415037
2055.000000	90.451402
2054.000000	90.489621
2053.000000	90.531521
2052.000000	90.574074
2051.000000	90.615837
2050.000000	90.659957
2049.000000	90.708109
2048.000000	90.756748
2047.000000	90.802537
2046.000000	90.847138
2045.000000	90.891717
2044.000000	90.932288
2043.000000	90.965570
2042.000000	90.994583
2041.000000	91.023879
2040.000000	91.054308
2039.000000	91.086778
2038.000000	91.124531
2037.000000	91.167483
2036.000000	91.210264
2035.000000	91.250277
2034.000000	91.291429
2033.000000	91.335818
2032.000000	91.379639
2031.000000	91.421759
2030.000000	91.467396
2029.000000	91.518933
2028.000000	91.570552
2027.000000	91.616538
2026.000000	91.658634
2025.000000	91.698961
2024.000000	91.734852
2023.000000	91.762929
2022.000000	91.786372
2021.000000	91.810358
2020.000000	91.833523
2019.000000	91.850916
2018.000000	91.861988
2017.000000	91.869899
2016.000000	91.876676
2015.000000	91.884870
2014.000000	91.898271
2013.000000	91.915539
2012.000000	91.928274
2011.000000	91.931559
2010.000000	91.931000
2009.000000	91.932829
2008.000000	91.934488
2007.000000	91.932516
2006.000000	91.931391
2005.000000	91.935397
2004.000000	91.941387
2003.000000	91.944662
2002.000000	91.948412
2001.000000	91.956554
2000.000000	91.966623
1999.000000	91.979036
1998.000000	91.997519
1997.000000	92.025448
1996.000000	92.063552
1995.000000	92.108974
1994.000000	92.153430
1993.000000	92.186032
1992.000000	92.202688
1991.000000	92.212216
1990.000000	92.226956
1989.000000	92.248904
1988.000000	92.271173
1987.000000	92.289799
1986.000000	92.309103
1985.000000	92.334111
1984.000000	92.364039
1983.000000	92.395974
1982.000000	92.430020
1981.000000	92.466887
1980.000000	92.506242
1979.000000	92.549410
1978.000000	92.593970
1977.000000	92.636521
1976.000000	92.678336
1975.000000	92.723707
1974.000000	92.772304
1973.000000	92.820611
1972.000000	92.869604
1971.000000	92.922077
1970.000000	92.973086
1969.000000	93.012063
1968.000000	93.034493
1967.000000	93.045913
1966.000000	93.055864
1965.000000	93.072049
1964.000000	93.098049
1963.000000	93.130437
1962.000000	93.160257
1961.000000	93.183881
1960.000000	93.209681
1959.000000	93.245156
1958.000000	93.282631
1957.000000	93.307926
1956.000000	93.318430
1955.000000	93.322144
1954.000000	93.322350
1953.000000	93.315996
1952.000000	93.302492
1951.000000	93.284411
1950.000000	93.265061
1949.000000	93.241490
1948.000000	93.209971
1947.000000	93.176346
1946.000000	93.148617
1945.000000	93.124406
1944.000000	93.093902
1943.000000	93.054939
1942.000000	93.020547
1941.000000	93.008085
1940.000000	93.027323
1939.000000	93.076474
1938.000000	93.142026
1937.000000	93.208781
1936.000000	93.273904
1935.000000	93.343668
1934.000000	93.417454
1933.000000	93.487295
1932.000000	93.548229
1931.000000	93.603806
1930.000000	93.662764
1929.000000	93.719549
1928.000000	93.765057
1927.000000	93.805589
1926.000000	93.852688
1925.000000	93.903443
1924.000000	93.931888
1923.000000	93.932041
1922.000000	93.931669
1921.000000	93.949821
1920.000000	93.974462
1919.000000	93.987229
1918.000000	93.989078
1917.000000	93.993659
1916.000000	94.002900
1915.000000	94.015908
1914.000000	94.034899
1913.000000	94.052057
1912.000000	94.051320
1911.000000	94.030709
1910.000000	94.003943
1909.000000	93.970449
1908.000000	93.921027
1907.000000	93.862560
1906.000000	93.813515
1905.000000	93.776261
1904.000000	93.723919
1903.000000	93.651985
1902.000000	93.587748
1901.000000	93.537094
1900.000000	93.481045
1899.000000	93.420012
1898.000000	93.376976
1897.000000	93.357220
1896.000000	93.331615
1895.000000	93.290643
1894.000000	93.267690
1893.000000	93.283194
1892.000000	93.313423
1891.000000	93.331968
1890.000000	93.341134
1889.000000	93.353497
1888.000000	93.370808
1887.000000	93.400030
1886.000000	93.454918
1885.000000	93.522567
1884.000000	93.568836
1883.000000	93.590303
1882.000000	93.616953
1881.000000	93.652198
1880.000000	93.670332
1879.000000	93.666948
1878.000000	93.665277
1877.000000	93.678532
1876.000000	93.689316
1875.000000	93.686607
1874.000000	93.694961
1873.000000	93.734479
1872.000000	93.786926
1871.000000	93.831623
1870.000000	93.871239
1869.000000	93.909941
1868.000000	93.938133
1867.000000	93.964232
1866.000000	94.022806
1865.000000	94.120162
1864.000000	94.219502
1863.000000	94.298495
1862.000000	94.380130
1861.000000	94.480661
1860.000000	94.576589
1859.000000	94.654090
1858.000000	94.739980
1857.000000	94.849702
1856.000000	94.955011
1855.000000	95.036212
1854.000000	95.113116
1853.000000	95.191311
1852.000000	95.250970
1851.000000	95.295330
1850.000000	95.341437
1849.000000	95.394986
1848.000000	95.444283
1847.000000	95.489249
1846.000000	95.540609
1845.000000	95.585605
1844.000000	95.612647
1843.000000	95.647788
1842.000000	95.715860
1841.000000	95.798848
1840.000000	95.870325
1839.000000	95.920137
1838.000000	95.958377
1837.000000	95.998690
1836.000000	96.035788
1835.000000	96.076378
1834.000000	96.141339
1833.000000	96.233779
1832.000000	96.340470
1831.000000	96.431873
1830.000000	96.480931
1829.000000	96.510533
1828.000000	96.561304
1827.000000	96.640249
1826.000000	96.727979
1825.000000	96.809568
1824.000000	96.882499
1823.000000	96.950288
1822.000000	97.020682
1821.000000	97.099737
1820.000000	97.176010
1819.000000	97.229194
1818.000000	97.272761
1817.000000	97.339537
1816.000000	97.419452
1815.000000	97.485296
1814.000000	97.543573
1813.000000	97.614997
1812.000000	97.683330
1811.000000	97.707815
1810.000000	97.711847
1809.000000	97.747035
1808.000000	97.799397
1807.000000	97.835173
1806.000000	97.873061
1805.000000	97.939466
1804.000000	98.007521
1803.000000	98.049123
1802.000000	98.084782
1801.000000	98.145031
1800.000000	98.217326
1799.000000	98.269921
1798.000000	98.323095
1797.000000	98.399499
1796.000000	98.468759
1795.000000	98.507341
1794.000000	98.534172
1793.000000	98.565748
1792.000000	98.582861
1791.000000	98.569536
1790.000000	98.564907
1789.000000	98.598547
1788.000000	98.643589
1787.000000	98.668906
1786.000000	98.695520
1785.000000	98.756695
1784.000000	98.837315
1783.000000	98.915045
1782.000000	98.983077
1781.000000	99.035335
1780.000000	99.077965
1779.000000	99.118243
1778.000000	99.176520
1777.000000	99.256262
1776.000000	99.345200
1775.000000	99.443604
1774.000000	99.545923
1773.000000	99.638559
1772.000000	99.726508
1771.000000	99.794652
1770.000000	99.826742
1769.000000	99.866210
1768.000000	99.958973
1767.000000	100.083684
1766.000000	100.201776
1765.000000	100.315842
1764.000000	100.444230
1763.000000	100.559896
1762.000000	100.620010
1761.000000	100.658459
1760.000000	100.726189
1759.000000	100.805020
1758.000000	100.864677
1757.000000	100.898896
1756.000000	100.948667
1755.000000	101.016368
1754.000000	101.048669
1753.000000	101.050077
1752.000000	101.084991
1751.000000	101.173537
1750.000000	101.257823
1749.000000	101.289650
1748.000000	101.283361
1747.000000	101.279454
1746.000000	101.271330
1745.000000	101.253439
1744.000000	101.257006
1743.000000	101.279388
1742.000000	101.294609
1741.000000	101.305301
1740.000000	101.326761
1739.000000	101.346966
1738.000000	101.341053
1737.000000	101.305795
1736.000000	101.269751
1735.000000	101.220068
1734.000000	101.172421
1733.000000	101.188640
1732.000000	101.239395
1731.000000	101.248122
1730.000000	101.215668
1729.000000	101.162761
1728.000000	101.118684
1727.000000	101.102636
1726.000000	101.095466
1725.000000	101.084742
1724.000000	101.061406
1723.000000	101.021244
1722.000000	101.003618
1721.000000	101.030001
1720.000000	101.059498
1719.000000	101.016102
1718.000000	100.916857
1717.000000	100.892562
1716.000000	100.924084
1715.000000	100.912357
1714.000000	100.911018
1713.000000	100.989533
1712.000000	101.094196
1711.000000	101.181533
1710.000000	101.306594
1709.000000	101.509436
1708.000000	101.742547
1707.000000	101.945912
1706.000000	102.132596
1705.000000	102.337633
1704.000000	102.508815
1703.000000	102.621842
1702.000000	102.773847
1701.000000	103.005199
1700.000000	103.246604
1699.000000	103.402009
1698.000000	103.502929
1697.000000	103.631995
1696.000000	103.794414
1695.000000	103.954014
1694.000000	104.121236
1693.000000	104.272845
1692.000000	104.389687
1691.000000	104.484513
1690.000000	104.570114
1689.000000	104.644880
1688.000000	104.721365
1687.000000	104.827806
1686.000000	104.978340
1685.000000	105.102927
1684.000000	105.188575
1683.000000	105.320033
1682.000000	105.464803
1681.000000	105.532240
1680.000000	105.578866
1679.000000	105.669668
1678.000000	105.778220
1677.000000	105.852602
1676.000000	105.902603
1675.000000	105.984074
1674.000000	106.067664
1673.000000	106.097678
1672.000000	106.112077
1671.000000	106.152635
1670.000000	106.185718
1669.000000	106.164610
1668.000000	106.132115
1667.000000	106.141353
1666.000000	106.158584
1665.000000	106.137588
1664.000000	106.061051
1663.000000	105.945550
1662.000000	105.801800
1661.000000	105.594130
1660.000000	105.350245
1659.000000	105.136829
1658.000000	104.934122
1657.000000	104.700127
1656.000000	104.442516
1655.000000	104.160094
1654.000000	103.581450
1653.000000	102.660502
1652.000000	101.799232
1651.000000	101.093818
1650.000000	100.288430
1649.000000	99.225022
1648.000000	97.691479
1647.000000	95.569854
1646.000000	93.091100
1645.000000	90.605992
1644.000000	88.201847
1643.000000	85.796640
1642.000000	83.370847
1641.000000	81.033652
1640.000000	79.012300
1639.000000	77.466956
1638.000000	76.436772
1637.000000	75.933241
1636.000000	76.044592
1635.000000	76.795275
1634.000000	77.937796
1633.000000	79.223234
1632.000000	80.590284
1631.000000	82.070732
1630.000000	83.656834
1629.000000	85.281246
1628.000000	86.864744
1627.000000	88.345863
1626.000000	89.686687
1625.000000	90.913685
1624.000000	92.104167
1623.000000	93.283185
1622.000000	94.366242
1621.000000	95.267133
1620.000000	96.039789
1619.000000	96.805029
1618.000000	97.607480
1617.000000	98.403348
1616.000000	99.151158
1615.000000	99.806015
1614.000000	100.293463
1613.000000	100.597064
1612.000000	100.778730
1611.000000	100.874068
1610.000000	100.790308
1609.000000	100.378887
1608.000000	99.572244
1607.000000	98.332254
1606.000000	96.512577
1605.000000	93.917726
1604.000000	90.519089
1603.000000	86.464086
1602.000000	81.990129
1601.000000	77.373466
1600.000000	72.797927
1599.000000	68.182482
1598.000000	63.128850
1597.000000	57.222967
1596.000000	50.488182
1595.000000	43.527989
1594.000000	37.198376
1593.000000	32.141241
1592.000000	28.641483
1591.000000	26.700276
1590.000000	26.051900
1589.000000	26.182505
1588.000000	26.553880
1587.000000	26.807699
1586.000000	26.729122
1585.000000	26.237187
1584.000000	25.480876
1583.000000	24.794390
1582.000000	24.429245
1581.000000	24.403651
1580.000000	24.642112
1579.000000	25.112665
1578.000000	25.759940
1577.000000	26.410886
1576.000000	26.886009
1575.000000	27.181754
1574.000000	27.367556
1573.000000	27.469306
1572.000000	27.597813
1571.000000	28.009956
1570.000000	28.936961
1569.000000	30.335258
1568.000000	32.023715
1567.000000	33.965148
1566.000000	36.154235
1565.000000	38.417865
1564.000000	40.507635
1563.000000	42.332986
1562.000000	43.998249
1561.000000	45.736168
1560.000000	47.877160
1559.000000	50.593581
1558.000000	53.345386
1557.000000	55.543694
1556.000000	57.305393
1555.000000	59.005154
1554.000000	60.731112
1553.000000	62.329303
1552.000000	63.719014
1551.000000	64.973781
1550.000000	66.169224
1549.000000	67.275830
1548.000000	68.261586
1547.000000	69.194181
1546.000000	70.145970
1545.000000	71.092324
1544.000000	71.973277
1543.000000	72.789379
1542.000000	73.598156
1541.000000	74.407158
1540.000000	75.159005
1539.000000	75.854228
1538.000000	76.501791
1537.000000	77.064372
1536.000000	77.567856
1535.000000	78.089186
1534.000000	78.630585
1533.000000	79.130384
1532.000000	79.566617
1531.000000	79.971298
1530.000000	80.392482
1529.000000	80.828420
1528.000000	81.227169
1527.000000	81.587687
1526.000000	81.950507
1525.000000	82.320341
1524.000000	82.675121
1523.000000	83.008508
1522.000000	83.319584
1521.000000	83.602954
1520.000000	83.862307
1519.000000	84.110139
1518.000000	84.341469
1517.000000	84.533077
1516.000000	84.673828
1515.000000	84.802877
1514.000000	84.964007
1513.000000	85.176743
1512.000000	85.417370
1511.000000	85.645266
1510.000000	85.859607
1509.000000	86.090349
1508.000000	86.298530
1507.000000	86.400601
1506.000000	86.492282
1505.000000	86.676410
1504.000000	86.871420
1503.000000	87.026580
1502.000000	87.182125
1501.000000	87.368785
1500.000000	87.579744
1499.000000	87.782406
1498.000000	87.978536
1497.000000	88.232671
1496.000000	88.570871
1495.000000	88.946792
1494.000000	89.330269
1493.000000	89.720586
1492.000000	90.108085
1491.000000	90.468278
1490.000000	90.799780
1489.000000	91.125322
1488.000000	91.427181
1487.000000	91.695689
1486.000000	91.986164
1485.000000	92.291625
1484.000000	92.573006
1483.000000	92.846729
1482.000000	93.132742
1481.000000	93.420070
1480.000000	93.683859
1479.000000	93.943256
1478.000000	94.228987
1477.000000	94.524030
1476.000000	94.774952
1475.000000	94.996385
1474.000000	95.248693
1473.000000	95.525978
1472.000000	95.795623
1471.000000	96.042509
1470.000000	96.252647
1469.000000	96.395671
1468.000000	96.435487
1467.000000	96.324842
1466.000000	95.942325
1465.000000	95.089598
1464.000000	93.663037
1463.000000	91.666690
1462.000000	89.083722
1461.000000	85.900279
1460.000000	82.157203
1459.000000	77.877982
1458.000000	73.022979
1457.000000	68.027529
1456.000000	63.918118
1455.000000	61.083662
1454.000000	58.959725
1453.000000	57.037671
1452.000000	55.303262
1451.000000	54.009724
1450.000000	53.382760
1449.000000	53.539159
1448.000000	54.471863
1447.000000	55.961580
1446.000000	57.688918
1445.000000	59.515654
1444.000000	61.505594
1443.000000	63.662124
1442.000000	65.837730
1441.000000	67.876594
1440.000000	69.716556
1439.000000	71.372807
1438.000000	72.932252
1437.000000	74.530192
1436.000000	76.186286
1435.000000	77.741565
1434.000000	79.099754
1433.000000	80.348086
1432.000000	81.565899
1431.000000	82.696398
1430.000000	83.653511
1429.000000	84.461292
1428.000000	85.180281
1427.000000	85.826674
1426.000000	86.400852
1425.000000	86.932821
1424.000000	87.471352
1423.000000	87.988967
1422.000000	88.440514
1421.000000	88.856876
1420.000000	89.285825
1419.000000	89.688104
1418.000000	90.014726
1417.000000	90.334309
1416.000000	90.707274
1415.000000	91.097375
1414.000000	91.448135
1413.000000	91.764984
1412.000000	92.084039
1411.000000	92.381181
1410.000000	92.611626
1409.000000	92.790992
1408.000000	92.926069
1407.000000	92.946371
1406.000000	92.736726
1405.000000	92.209193
1404.000000	91.367627
1403.000000	90.285702
1402.000000	89.079900
1401.000000	87.888679
1400.000000	86.830030
1399.000000	85.954433
1398.000000	85.253023
1397.000000	84.757422
1396.000000	84.610089
1395.000000	84.988512
1394.000000	85.891389
1393.000000	87.096812
1392.000000	88.348901
1391.000000	89.471529
1390.000000	90.384090
1389.000000	91.110805
1388.000000	91.753440
1387.000000	92.406023
1386.000000	93.079234
1385.000000	93.719851
1384.000000	94.277788
1383.000000	94.717214
1382.000000	95.033180
1381.000000	95.269324
1380.000000	95.479110
1379.000000	95.682557
1378.000000	95.861585
1377.000000	95.974118
1376.000000	95.945973
1375.000000	95.660552
1374.000000	94.979857
1373.000000	93.800923
1372.000000	92.045387
1371.000000	89.608340
1370.000000	86.423953
1369.000000	82.679604
1368.000000	78.959772
1367.000000	75.993037
1366.000000	74.192716
1365.000000	73.488656
1364.000000	73.542145
1363.000000	74.077373
1362.000000	75.060908
1361.000000	76.606028
1360.000000	78.726360
1359.000000	81.219146
1358.000000	83.751265
1357.000000	86.021407
1356.000000	87.880177
1355.000000	89.333639
1354.000000	90.473640
1353.000000	91.411862
1352.000000	92.223660
1351.000000	92.941820
1350.000000	93.578046
1349.000000	94.139030
1348.000000	94.642130
1347.000000	95.103214
1346.000000	95.529772
1345.000000	95.927890
1344.000000	96.305609
1343.000000	96.663807
1342.000000	96.995105
1341.000000	97.293260
1340.000000	97.558529
1339.000000	97.796454
1338.000000	98.013596
1337.000000	98.220638
1336.000000	98.427215
1335.000000	98.633469
1334.000000	98.836528
1333.000000	99.039624
1332.000000	99.245779
1331.000000	99.447312
1330.000000	99.627421
1329.000000	99.770666
1328.000000	99.854496
1327.000000	99.833905
1326.000000	99.629220
1325.000000	99.120396
1324.000000	98.166653
1323.000000	96.627846
1322.000000	94.422242
1321.000000	91.614937
1320.000000	88.466725
1319.000000	85.382037
1318.000000	82.735498
1317.000000	80.702025
1316.000000	79.253551
1315.000000	78.317139
1314.000000	77.897200
1313.000000	78.038813
1312.000000	78.686476
1311.000000	79.614954
1310.000000	80.564632
1309.000000	81.444583
1308.000000	82.388431
1307.000000	83.610256
1306.000000	85.199620
1305.000000	87.050626
1304.000000	88.946922
1303.000000	90.679562
1302.000000	92.121974
1301.000000	93.247773
1300.000000	94.088368
1299.000000	94.676893
1298.000000	95.022430
1297.000000	95.109204
1296.000000	94.904571
1295.000000	94.361787
1294.000000	93.456166
1293.000000	92.228002
1292.000000	90.770801
1291.000000	89.183047
1290.000000	87.506516
1289.000000	85.695617
1288.000000	83.614613
1287.000000	81.072766
1286.000000	77.953475
1285.000000	74.390558
1284.000000	70.838936
1283.000000	67.942765
1282.000000	66.266517
1281.000000	66.051332
1280.000000	67.171563
1279.000000	69.238078
1278.000000	71.736943
1277.000000	74.184955
1276.000000	76.220473
1275.000000	77.649454
1274.000000	78.498347
1273.000000	79.042881
1272.000000	79.718335
1271.000000	80.875193
1270.000000	82.565927
1269.000000	84.559929
1268.000000	86.550537
1267.000000	88.340238
1266.000000	89.878118
1265.000000	91.198555
1264.000000	92.351763
1263.000000	93.370518
1262.000000	94.269991
1261.000000	95.066197
1260.000000	95.781471
1259.000000	96.431187
1258.000000	97.022139
1257.000000	97.560564
1256.000000	98.054633
1255.000000	98.506949
1254.000000	98.913803
1253.000000	99.278502
1252.000000	99.611945
1251.000000	99.921626
1250.000000	100.210148
1249.000000	100.483914
1248.000000	100.755010
1247.000000	101.029894
1246.000000	101.306593
1245.000000	101.585890
1244.000000	101.872667
1243.000000	102.164959
1242.000000	102.453234
1241.000000	102.731963
1240.000000	103.000906
1239.000000	103.254194
1238.000000	103.481575
1237.000000	103.680286
1236.000000	103.853739
1235.000000	103.999503
1234.000000	104.108126
1233.000000	104.176253
1232.000000	104.206353
1231.000000	104.190658
1230.000000	104.110499
1229.000000	103.939938
1228.000000	103.643131
1227.000000	103.155493
1226.000000	102.370471
1225.000000	101.157764
1224.000000	99.366094
1223.000000	96.854888
1222.000000	93.558018
1221.000000	89.541110
1220.000000	85.032822
1219.000000	80.363301
1218.000000	75.853459
1217.000000	71.721181
1216.000000	68.049131
1215.000000	64.810353
1214.000000	61.929490
1213.000000	59.350139
1212.000000	57.070347
1211.000000	55.129885
1210.000000	53.543774
1209.000000	52.298279
1208.000000	51.394311
1207.000000	50.852078
1206.000000	50.690315
1205.000000	50.889281
1204.000000	51.396371
1203.000000	52.136902
1202.000000	53.023536
1201.000000	54.021691
1200.000000	55.186197
1199.000000	56.625783
1198.000000	58.422291
1197.000000	60.579665
1196.000000	63.042368
1195.000000	65.709561
1194.000000	68.449860
1193.000000	71.139998
1192.000000	73.696281
1191.000000	76.068111
1190.000000	78.219736
1189.000000	80.134924
1188.000000	81.820890
1187.000000	83.296826
1186.000000	84.571335
1185.000000	85.652648
1184.000000	86.561364
1183.000000	87.310318
1182.000000	87.897232
1181.000000	88.310924
1180.000000	88.552281
1179.000000	88.641138
1178.000000	88.604143
1177.000000	88.477205
1176.000000	88.301754
1175.000000	88.115041
1174.000000	87.947019
1173.000000	87.826807
1172.000000	87.786116
1171.000000	87.846838
1170.000000	88.011263
1169.000000	88.268943
1168.000000	88.604521
1167.000000	88.986320
1166.000000	89.358734
1165.000000	89.659682
1164.000000	89.847078
1163.000000	89.917716
1162.000000	89.917725
1161.000000	89.940696
1160.000000	90.093645
1159.000000	90.439678
1158.000000	90.971664
1157.000000	91.638845
1156.000000	92.389542
1155.000000	93.184253
1154.000000	93.986475
1153.000000	94.760687
1152.000000	95.470553
1151.000000	96.072242
1150.000000	96.522132
1149.000000	96.805865
1148.000000	96.947782
1147.000000	96.992336
1146.000000	96.982895
1145.000000	96.948955
1144.000000	96.901073
1143.000000	96.811138
1142.000000	96.612532
1141.000000	96.230999
1140.000000	95.598729
1139.000000	94.659667
1138.000000	93.348211
1137.000000	91.586890
1136.000000	89.299682
1135.000000	86.391372
1134.000000	82.763566
1133.000000	78.334982
1132.000000	73.091751
1131.000000	67.158687
1130.000000	60.832260
1129.000000	54.575118
1128.000000	48.946179
1127.000000	44.450566
1126.000000	41.355648
1125.000000	39.642201
1124.000000	39.064136
1123.000000	39.246820
1122.000000	39.771439
1121.000000	40.243309
1120.000000	40.390635
1119.000000	40.066131
1118.000000	39.218672
1117.000000	37.956323
1116.000000	36.634556
1115.000000	35.826041
1114.000000	36.076139
1113.000000	37.645364
1112.000000	40.431455
1111.000000	44.025228
1110.000000	47.840105
1109.000000	51.279630
1108.000000	53.901167
1107.000000	55.492545
1106.000000	56.051874
1105.000000	55.747336
1104.000000	54.922723
1103.000000	54.091058
1102.000000	53.803369
1101.000000	54.434973
1100.000000	56.039458
1099.000000	58.374849
1098.000000	61.069772
1097.000000	63.803649
1096.000000	66.375447
1095.000000	68.683635
1094.000000	70.699140
1093.000000	72.456122
1092.000000	74.030790
1091.000000	75.499045
1090.000000	76.914405
1089.000000	78.319940
1088.000000	79.759360
1087.000000	81.254003
1086.000000	82.788704
1085.000000	84.322892
1084.000000	85.803957
1083.000000	87.177775
1082.000000	88.400844
1081.000000	89.460750
1080.000000	90.371541
1079.000000	91.145567
1078.000000	91.790740
1077.000000	92.313668
1076.000000	92.715441
1075.000000	92.977531
1074.000000	93.052722
1073.000000	92.892122
1072.000000	92.432400
1071.000000	91.580299
1070.000000	90.217701
1069.000000	88.195066
1068.000000	85.361786
1067.000000	81.566965
1066.000000	76.712036
1065.000000	70.853975
1064.000000	64.257130
1063.000000	57.390529
1062.000000	50.797430
1061.000000	44.909094
1060.000000	39.893669
1059.000000	35.623491
1058.000000	31.782676
1057.000000	28.142714
1056.000000	24.834209
1055.000000	22.337918
1054.000000	21.254328
1053.000000	21.949145
1052.000000	24.377001
1051.000000	28.123779
1050.000000	32.557039
1049.000000	37.095895
1048.000000	41.367247
1047.000000	45.217239
1046.000000	48.640526
1045.000000	51.700445
1044.000000	54.476922
1043.000000	57.019190
1042.000000	59.332173
1041.000000	61.403308
1040.000000	63.245829
1039.000000	64.887018
1038.000000	66.350540
1037.000000	67.662569
1036.000000	68.851490
1035.000000	69.942912
1034.000000	70.946480
1033.000000	71.869322
1032.000000	72.730038
1031.000000	73.544911
1030.000000	74.320835
1029.000000	75.063222
1028.000000	75.784666
1027.000000	76.497734
1026.000000	77.206784
1025.000000	77.917085
1024.000000	78.637172
1023.000000	79.364732
1022.000000	80.082535
1021.000000	80.767984
1020.000000	81.400832
1019.000000	81.949180
1018.000000	82.358229
1017.000000	82.563280
1016.000000	82.476048
1015.000000	81.981760
1014.000000	80.945525
1013.000000	79.240534
1012.000000	76.802821
1011.000000	73.658224
1010.000000	69.965347
1009.000000	66.032353
1008.000000	62.271527
1007.000000	59.105828
1006.000000	56.886663
1005.000000	55.830154
1004.000000	55.954617
1003.000000	57.031706
1002.000000	58.602879
1001.000000	60.136236
1000.000000	61.186895
999.000000	61.449414
998.000000	60.763689
997.000000	59.179970
996.000000	57.039687
995.000000	54.910873
994.000000	53.334872
993.000000	52.576857
992.000000	52.587257
991.000000	53.168220
990.000000	54.164861
989.000000	55.537923
988.000000	57.315267
987.000000	59.465137
986.000000	61.844055
985.000000	64.253612
984.000000	66.529728
983.000000	68.589100
982.000000	70.411515
981.000000	72.013690
980.000000	73.427920
979.000000	74.686730
978.000000	75.807039
977.000000	76.799387
976.000000	77.677698
975.000000	78.453749
974.000000	79.138550
973.000000	79.743827
972.000000	80.288417
971.000000	80.792269
970.000000	81.268016
969.000000	81.727159
968.000000	82.180746
967.000000	82.633042
966.000000	83.078032
965.000000	83.506403
964.000000	83.913476
963.000000	84.294920
962.000000	84.644993
961.000000	84.963443
960.000000	85.257264
959.000000	85.533970
958.000000	85.797192
957.000000	86.052128
956.000000	86.307414
955.000000	86.566646
954.000000	86.826023
953.000000	87.081895
952.000000	87.334374
951.000000	87.581232
950.000000	87.815257
949.000000	88.032104
948.000000	88.233090
947.000000	88.418627
946.000000	88.586779
945.000000	88.739908
944.000000	88.886247
943.000000	89.031971
942.000000	89.178833
941.000000	89.331334
940.000000	89.497301
939.000000	89.678919
938.000000	89.870072
937.000000	90.064484
936.000000	90.259089
935.000000	90.447863
934.000000	90.621554
933.000000	90.776571
932.000000	90.917409
931.000000	91.048988
930.000000	91.173414
929.000000	91.295402
928.000000	91.422709
927.000000	91.558966
926.000000	91.702818
925.000000	91.854108
924.000000	92.013703
923.000000	92.176823
922.000000	92.334126
921.000000	92.480207
920.000000	92.614109
919.000000	92.733345
918.000000	92.836032
917.000000	92.928087
916.000000	93.020008
915.000000	93.116674
914.000000	93.218126
913.000000	93.328887
912.000000	93.456598
911.000000	93.601495
910.000000	93.755788
909.000000	93.912891
908.000000	94.068859
907.000000	94.215410
906.000000	94.341485
905.000000	94.442226
904.000000	94.519990
903.000000	94.579720
902.000000	94.627405
901.000000	94.668488
900.000000	94.693246
899.000000	94.663876
898.000000	94.531390
897.000000	94.266741
896.000000	93.886542
895.000000	93.454149
894.000000	93.043042
893.000000	92.668285
892.000000	92.233255
891.000000	91.580600
890.000000	90.642715
889.000000	89.545644
888.000000	88.534543
887.000000	87.801581
886.000000	87.397996
885.000000	87.287101
884.000000	87.422645
883.000000	87.735086
882.000000	88.104913
881.000000	88.417871
880.000000	88.662890
879.000000	88.953681
878.000000	89.429361
877.000000	90.143566
876.000000	91.028908
875.000000	91.948391
874.000000	92.780718
873.000000	93.471807
872.000000	94.028763
871.000000	94.479358
870.000000	94.844514
869.000000	95.131598
868.000000	95.335687
867.000000	95.435839
866.000000	95.403776
865.000000	95.230840
864.000000	94.944283
863.000000	94.608091
862.000000	94.309957
861.000000	94.136317
860.000000	94.138141
859.000000	94.309001
858.000000	94.596489
857.000000	94.938947
856.000000	95.293913
855.000000	95.638591
854.000000	95.963622
853.000000	96.267789
852.000000	96.549495
851.000000	96.800423
850.000000	97.012898
849.000000	97.191362
848.000000	97.348843
847.000000	97.494348
846.000000	97.630717
845.000000	97.762746
844.000000	97.895836
843.000000	98.029017
842.000000	98.158370
841.000000	98.284827
840.000000	98.410660
839.000000	98.530551
838.000000	98.636098
837.000000	98.726979
836.000000	98.808303
835.000000	98.881168
834.000000	98.945538
833.000000	99.009228
832.000000	99.083242
831.000000	99.169938
830.000000	99.265498
829.000000	99.370860
828.000000	99.489713
827.000000	99.617985
826.000000	99.745747
825.000000	99.866810
824.000000	99.976312
823.000000	100.063976
822.000000	100.123352
821.000000	100.163831
820.000000	100.202033
819.000000	100.244871
818.000000	100.289827
817.000000	100.335938
816.000000	100.379357
815.000000	100.401489
814.000000	100.370415
813.000000	100.250003
812.000000	100.004177
811.000000	99.606181
810.000000	99.071270
809.000000	98.483878
808.000000	97.975387
807.000000	97.659234
806.000000	97.577399
805.000000	97.692108
804.000000	97.915658
803.000000	98.153955
802.000000	98.340086
801.000000	98.442217
800.000000	98.444115
799.000000	98.326651
798.000000	98.065896
797.000000	97.638890
796.000000	97.016957
795.000000	96.165111
794.000000	95.065771
793.000000	93.741393
792.000000	92.261936
791.000000	90.736502
790.000000	89.300163
789.000000	88.086214
788.000000	87.187810
787.000000	86.634682
786.000000	86.403811
785.000000	86.443933
784.000000	86.680219
783.000000	87.016153
782.000000	87.349751
781.000000	87.603073
780.000000	87.742624
779.000000	87.786064
778.000000	87.806595
777.000000	87.913456
776.000000	88.203228
775.000000	88.717017
774.000000	89.436538
773.000000	90.308424
772.000000	91.261443
771.000000	92.219465
770.000000	93.123844
769.000000	93.946819
768.000000	94.678954
767.000000	95.312182
766.000000	95.845838
765.000000	96.296022
764.000000	96.685951
763.000000	97.032670
762.000000	97.352368
761.000000	97.665803
760.000000	97.983410
759.000000	98.295100
758.000000	98.583947
757.000000	98.840684
756.000000	99.055979
755.000000	99.213049
754.000000	99.303356
753.000000	99.338667
752.000000	99.337418
751.000000	99.310994
750.000000	99.272483
749.000000	99.243385
748.000000	99.235428
747.000000	99.236644
746.000000	99.227034
745.000000	99.193958
744.000000	99.121634
743.000000	98.983853
742.000000	98.764520
741.000000	98.474426
740.000000	98.136762
739.000000	97.772632
738.000000	97.410241
737.000000	97.084220
736.000000	96.804242
735.000000	96.536638
734.000000	96.232396
733.000000	95.859016
732.000000	95.398877
731.000000	94.848510
730.000000	94.245031
729.000000	93.675221
728.000000	93.235791
727.000000	92.986944
726.000000	92.948053
725.000000	93.113642
724.000000	93.445661
723.000000	93.871104
722.000000	94.324255
721.000000	94.788867
720.000000	95.281167
719.000000	95.803627
718.000000	96.335261
717.000000	96.848870
716.000000	97.313290
715.000000	97.693403
714.000000	97.970346
713.000000	98.151633
712.000000	98.249245
711.000000	98.267980
710.000000	98.230426
709.000000	98.185852
708.000000	98.176400
707.000000	98.213818
706.000000	98.300891
705.000000	98.453578
704.000000	98.675732
703.000000	98.933507
702.000000	99.189551
701.000000	99.432885
700.000000	99.650330
699.000000	99.808976
698.000000	99.889146
697.000000	99.912211
696.000000	99.902341
695.000000	99.851140
694.000000	99.764404
693.000000	99.690732
692.000000	99.666100
691.000000	99.677768
690.000000	99.711430
689.000000	99.796004
688.000000	99.943477
687.000000	100.091498
686.000000	100.180638
685.000000	100.223350
684.000000	100.240268
683.000000	100.202784
682.000000	100.099569
681.000000	99.993654
680.000000	99.937824
679.000000	99.913460
678.000000	99.911960
677.000000	99.975921
676.000000	100.128189
675.000000	100.332562
674.000000	100.574816
673.000000	100.930929
672.000000	101.493131
671.000000	102.243215
670.000000	103.080400
669.000000	103.555910
668.000000	102.977482
667.000000	101.913169
666.000000	101.427080
665.000000	101.353830
664.000000	101.328084
663.000000	101.324952
662.000000	101.420664
661.000000	101.592371
660.000000	101.769488
659.000000	101.937241
658.000000	102.096312
657.000000	102.193364
656.000000	102.195683
655.000000	102.159559
654.000000	102.124770
653.000000	102.054524
652.000000	101.942593
651.000000	101.854111
650.000000	101.815691
649.000000	101.773077
648.000000	101.711293
647.000000	101.695623
646.000000	101.752448
645.000000	101.826058
644.000000	101.877174
643.000000	101.931632
642.000000	102.002331
641.000000	102.040463
640.000000	102.013118
639.000000	101.951188
638.000000	101.878435
637.000000	101.775653
636.000000	101.649429
635.000000	101.556282
634.000000	101.530076
633.000000	101.548678
632.000000	101.594625
631.000000	101.685407
630.000000	101.814988
629.000000	101.927834
628.000000	101.985278
627.000000	101.999877
626.000000	101.981825
625.000000	101.914735
624.000000	101.801288
623.000000	101.686006
622.000000	101.605036
621.000000	101.552920
620.000000	101.518037
619.000000	101.506421
618.000000	101.518933
617.000000	101.544305
616.000000	101.585529
615.000000	101.652906
614.000000	101.721985
613.000000	101.744631
612.000000	101.708806
611.000000	101.644304
610.000000	101.569130
609.000000	101.469952
608.000000	101.345106
607.000000	101.219313
606.000000	101.102010
605.000000	100.981352
604.000000	100.859059
603.000000	100.752447
602.000000	100.653099
601.000000	100.517739
600.000000	100.306111
599.000000	99.996934
598.000000	99.560422
597.000000	98.957472
596.000000	98.184285
595.000000	97.279201
594.000000	96.261315
593.000000	95.085797
592.000000	93.672707
591.000000	91.984645
590.000000	90.106798
589.000000	88.292356
588.000000	86.896734
587.000000	86.167941
586.000000	86.059184
585.000000	86.309542
584.000000	86.741105
583.000000	87.376392
582.000000	88.265108
581.000000	89.328401
580.000000	90.412965
579.000000	91.410615
578.000000	92.261328
577.000000	92.928104
576.000000	93.428806
575.000000	93.837190
574.000000	94.202716
573.000000	94.513756
572.000000	94.755823
571.000000	94.939870
570.000000	95.054607
569.000000	95.041582
568.000000	94.857254
567.000000	94.491830
566.000000	93.900297
565.000000	92.982990
564.000000	91.675555
563.000000	90.044569
562.000000	88.266887
561.000000	86.551183
560.000000	85.077787
559.000000	83.925710
558.000000	83.009486
557.000000	82.175238
556.000000	81.435884
555.000000	81.040206
554.000000	81.258164
553.000000	82.140608
552.000000	83.512302
551.000000	85.097727
550.000000	86.605065
549.000000	87.821783
548.000000	88.708405
547.000000	89.363739
546.000000	89.881675
545.000000	90.285075
544.000000	90.587223
543.000000	90.824328
542.000000	91.000591
541.000000	91.065208
540.000000	90.989181
539.000000	90.802906
538.000000	90.539158
537.000000	90.203104
536.000000	89.823319
535.000000	89.471128
534.000000	89.193033
533.000000	88.983574
532.000000	88.835090
531.000000	88.766816
530.000000	88.769261
529.000000	88.771354
528.000000	88.691937
527.000000	88.487088
526.000000	88.115870
525.000000	87.528354
524.000000	86.723898
523.000000	85.757410
522.000000	84.683766
521.000000	83.540227
520.000000	82.392167
519.000000	81.329286
518.000000	80.380676
517.000000	79.491225
516.000000	78.620572
515.000000	77.797996
514.000000	77.061020
513.000000	76.426953
512.000000	75.949477
511.000000	75.738738
510.000000	75.865948
509.000000	76.299953
508.000000	76.979266
507.000000	77.877865
506.000000	78.963533
505.000000	80.174208
504.000000	81.478015
503.000000	82.880594
502.000000	84.325687
501.000000	85.672034
500.000000	86.812242
499.000000	87.742885
498.000000	88.488125
497.000000	89.052078
496.000000	89.465303
495.000000	89.800888
494.000000	90.118106
493.000000	90.420652
492.000000	90.712042
491.000000	91.030866
490.000000	91.383807
489.000000	91.715842
488.000000	91.966392
487.000000	92.113498
486.000000	92.118374
485.000000	91.871973
484.000000	91.260715
483.000000	90.247317
482.000000	88.867575
481.000000	87.215221
480.000000	85.491963
479.000000	83.981572
478.000000	82.862796
477.000000	82.089149
476.000000	81.496201
475.000000	80.969301
474.000000	80.457957
473.000000	79.969423
472.000000	79.651499
471.000000	79.756704
470.000000	80.401942
469.000000	81.464988
468.000000	82.763632
467.000000	84.184246
466.000000	85.624360
465.000000	86.967045
464.000000	88.148674
463.000000	89.197932
462.000000	90.153869
461.000000	90.995304
460.000000	91.697430
459.000000	92.280304
458.000000	92.756042
457.000000	93.109453
456.000000	93.366428
455.000000	93.589174
454.000000	93.796421
453.000000	93.953929
452.000000	94.065377
451.000000	94.208233
450.000000	94.421643
449.000000	94.656370
448.000000	94.864906
447.000000	95.059634
446.000000	95.246861
445.000000	95.386505
444.000000	95.446268
443.000000	95.450576
442.000000	95.431379
441.000000	95.385418
440.000000	95.327454
439.000000	95.305348
438.000000	95.329678
437.000000	95.349299
436.000000	95.339664
435.000000	95.336762
434.000000	95.328549
433.000000	95.206707
432.000000	94.889210
431.000000	94.420602
430.000000	93.903299
429.000000	93.378684
428.000000	92.873919
427.000000	92.484943
426.000000	92.275497
425.000000	92.175574
424.000000	92.114860
423.000000	92.164992
422.000000	92.397047
421.000000	92.720496
420.000000	93.005099
419.000000	93.299508
418.000000	93.730814
417.000000	94.224933
416.000000	94.650682
415.000000	95.008473
414.000000	95.316226
413.000000	95.513077
412.000000	95.558841
411.000000	95.523985
410.000000	95.493547
409.000000	95.433301
408.000000	95.310759
407.000000	95.234463
406.000000	95.297354
405.000000	95.406132
404.000000	95.472471
403.000000	95.582304
402.000000	95.850192
401.000000	96.181578
400.000000	96.426772
