PE IR       SUBTECH     SPECTRUM    ASCII       PEDS        4.00        
   -1
23Ms154-cis.asc
24/10/17
15:36:47.00
24/10/17
15:36:47.00
Administrator
Sample 1290 By Administrator Date Thursday, October 17 2024
400.000000
#HDR
-1
-1
#GR
cm-1
%T
1.0
0.0
4000.000000
-1.000000
3601
8
96.793640
31.787979
#DATA
4000.000000	87.233038
3999.000000	87.225549
3998.000000	87.221969
3997.000000	87.220725
3996.000000	87.219383
3995.000000	87.217248
3994.000000	87.215777
3993.000000	87.216214
3992.000000	87.217695
3991.000000	87.218512
3990.000000	87.218682
3989.000000	87.220244
3988.000000	87.225134
3987.000000	87.233873
3986.000000	87.246550
3985.000000	87.263395
3984.000000	87.283878
3983.000000	87.306169
3982.000000	87.328473
3981.000000	87.350545
3980.000000	87.373538
3979.000000	87.398608
3978.000000	87.425730
3977.000000	87.453651
3976.000000	87.481049
3975.000000	87.506665
3974.000000	87.529737
3973.000000	87.551180
3972.000000	87.572913
3971.000000	87.596156
3970.000000	87.619906
3969.000000	87.642975
3968.000000	87.665277
3967.000000	87.687809
3966.000000	87.711827
3965.000000	87.737939
3964.000000	87.765914
3963.000000	87.794784
3962.000000	87.824485
3961.000000	87.856628
3960.000000	87.892473
3959.000000	87.931177
3958.000000	87.969730
3957.000000	88.007402
3956.000000	88.045577
3955.000000	88.085006
3954.000000	88.124736
3953.000000	88.161539
3952.000000	88.191835
3951.000000	88.212985
3950.000000	88.226649
3949.000000	88.239103
3948.000000	88.257538
3947.000000	88.287280
3946.000000	88.328001
3945.000000	88.370343
3944.000000	88.400263
3943.000000	88.411687
3942.000000	88.415150
3941.000000	88.426494
3940.000000	88.450463
3939.000000	88.481655
3938.000000	88.511761
3937.000000	88.539032
3936.000000	88.567522
3935.000000	88.598466
3934.000000	88.629012
3933.000000	88.654986
3932.000000	88.677792
3931.000000	88.699602
3930.000000	88.718162
3929.000000	88.734604
3928.000000	88.754503
3927.000000	88.779860
3926.000000	88.798531
3925.000000	88.798189
3924.000000	88.787904
3923.000000	88.785343
3922.000000	88.791856
3921.000000	88.796918
3920.000000	88.797478
3919.000000	88.802015
3918.000000	88.812892
3917.000000	88.823906
3916.000000	88.833507
3915.000000	88.846121
3914.000000	88.862183
3913.000000	88.879031
3912.000000	88.896288
3911.000000	88.921365
3910.000000	88.954558
3909.000000	88.993327
3908.000000	89.035290
3907.000000	89.072805
3906.000000	89.088300
3905.000000	89.063536
3904.000000	89.013149
3903.000000	88.979457
3902.000000	88.986556
3901.000000	89.022169
3900.000000	89.059338
3899.000000	89.088542
3898.000000	89.119212
3897.000000	89.156022
3896.000000	89.194022
3895.000000	89.234538
3894.000000	89.277826
3893.000000	89.319263
3892.000000	89.342447
3891.000000	89.343290
3890.000000	89.336520
3889.000000	89.346354
3888.000000	89.386795
3887.000000	89.441093
3886.000000	89.481534
3885.000000	89.511603
3884.000000	89.546643
3883.000000	89.582693
3882.000000	89.598753
3881.000000	89.583545
3880.000000	89.557876
3879.000000	89.551368
3878.000000	89.572236
3877.000000	89.614271
3876.000000	89.656710
3875.000000	89.669165
3874.000000	89.647786
3873.000000	89.629591
3872.000000	89.643559
3871.000000	89.666115
3870.000000	89.667488
3869.000000	89.671500
3868.000000	89.705686
3867.000000	89.758080
3866.000000	89.790043
3865.000000	89.785164
3864.000000	89.771926
3863.000000	89.776596
3862.000000	89.791946
3861.000000	89.818940
3860.000000	89.860896
3859.000000	89.917985
3858.000000	89.993228
3857.000000	90.097428
3856.000000	90.213052
3855.000000	90.254099
3854.000000	90.192062
3853.000000	90.152119
3852.000000	90.186715
3851.000000	90.210947
3850.000000	90.179588
3849.000000	90.124193
3848.000000	90.089179
3847.000000	90.093717
3846.000000	90.124999
3845.000000	90.164519
3844.000000	90.197442
3843.000000	90.214689
3842.000000	90.223838
3841.000000	90.243669
3840.000000	90.264606
3839.000000	90.275928
3838.000000	90.290474
3837.000000	90.316977
3836.000000	90.341206
3835.000000	90.349919
3834.000000	90.352971
3833.000000	90.362917
3832.000000	90.377299
3831.000000	90.394991
3830.000000	90.421040
3829.000000	90.458263
3828.000000	90.496186
3827.000000	90.516524
3826.000000	90.514018
3825.000000	90.516275
3824.000000	90.549587
3823.000000	90.601079
3822.000000	90.626072
3821.000000	90.615356
3820.000000	90.608667
3819.000000	90.632389
3818.000000	90.682693
3817.000000	90.726100
3816.000000	90.746553
3815.000000	90.771067
3814.000000	90.812815
3813.000000	90.841684
3812.000000	90.834425
3811.000000	90.812417
3810.000000	90.817834
3809.000000	90.861698
3808.000000	90.910016
3807.000000	90.932347
3806.000000	90.939566
3805.000000	90.961740
3804.000000	91.008158
3803.000000	91.058122
3802.000000	91.073190
3801.000000	91.068623
3800.000000	91.078689
3799.000000	91.092008
3798.000000	91.089736
3797.000000	91.071104
3796.000000	91.059543
3795.000000	91.076219
3794.000000	91.117475
3793.000000	91.158675
3792.000000	91.186757
3791.000000	91.209922
3790.000000	91.236450
3789.000000	91.262822
3788.000000	91.284904
3787.000000	91.304590
3786.000000	91.322987
3785.000000	91.334712
3784.000000	91.338297
3783.000000	91.344922
3782.000000	91.361107
3781.000000	91.376056
3780.000000	91.375183
3779.000000	91.368440
3778.000000	91.377912
3777.000000	91.409606
3776.000000	91.445336
3775.000000	91.468381
3774.000000	91.483142
3773.000000	91.504722
3772.000000	91.531575
3771.000000	91.547342
3770.000000	91.551701
3769.000000	91.563961
3768.000000	91.591200
3767.000000	91.624666
3766.000000	91.653268
3765.000000	91.671352
3764.000000	91.688218
3763.000000	91.719149
3762.000000	91.760679
3761.000000	91.792555
3760.000000	91.806765
3759.000000	91.823550
3758.000000	91.848326
3757.000000	91.869946
3756.000000	91.892907
3755.000000	91.931039
3754.000000	91.980979
3753.000000	92.015566
3752.000000	92.029523
3751.000000	92.059968
3750.000000	92.115083
3749.000000	92.151363
3748.000000	92.160333
3747.000000	92.188955
3746.000000	92.241725
3745.000000	92.275514
3744.000000	92.312327
3743.000000	92.374965
3742.000000	92.409899
3741.000000	92.388019
3740.000000	92.342321
3739.000000	92.334858
3738.000000	92.383546
3737.000000	92.440848
3736.000000	92.465143
3735.000000	92.465641
3734.000000	92.478927
3733.000000	92.516031
3732.000000	92.561675
3731.000000	92.597839
3730.000000	92.617905
3729.000000	92.633097
3728.000000	92.652002
3727.000000	92.666478
3726.000000	92.677053
3725.000000	92.692517
3724.000000	92.709824
3723.000000	92.716896
3722.000000	92.714962
3721.000000	92.719398
3720.000000	92.737134
3719.000000	92.768048
3718.000000	92.799510
3717.000000	92.825106
3716.000000	92.854975
3715.000000	92.893646
3714.000000	92.930540
3713.000000	92.950695
3712.000000	92.958397
3711.000000	92.973721
3710.000000	93.006130
3709.000000	93.053982
3708.000000	93.106079
3707.000000	93.149332
3706.000000	93.185273
3705.000000	93.223099
3704.000000	93.264264
3703.000000	93.297454
3702.000000	93.318472
3701.000000	93.337945
3700.000000	93.362266
3699.000000	93.389974
3698.000000	93.415208
3697.000000	93.432669
3696.000000	93.448202
3695.000000	93.470547
3694.000000	93.496734
3693.000000	93.520932
3692.000000	93.538410
3691.000000	93.544180
3690.000000	93.542830
3689.000000	93.563745
3688.000000	93.620912
3687.000000	93.678176
3686.000000	93.701669
3685.000000	93.692274
3684.000000	93.669338
3683.000000	93.658933
3682.000000	93.678683
3681.000000	93.712669
3680.000000	93.732929
3679.000000	93.737633
3678.000000	93.755533
3677.000000	93.781547
3676.000000	93.787176
3675.000000	93.794078
3674.000000	93.816305
3673.000000	93.840136
3672.000000	93.861523
3671.000000	93.870531
3670.000000	93.872028
3669.000000	93.895223
3668.000000	93.935177
3667.000000	93.961646
3666.000000	93.966074
3665.000000	93.962788
3664.000000	93.967562
3663.000000	93.986670
3662.000000	94.008678
3661.000000	94.016151
3660.000000	94.013492
3659.000000	94.016384
3658.000000	94.032605
3657.000000	94.051430
3656.000000	94.068522
3655.000000	94.086787
3654.000000	94.101058
3653.000000	94.108461
3652.000000	94.106195
3651.000000	94.084186
3650.000000	94.053751
3649.000000	94.053136
3648.000000	94.093865
3647.000000	94.147395
3646.000000	94.184187
3645.000000	94.201261
3644.000000	94.212066
3643.000000	94.227621
3642.000000	94.244747
3641.000000	94.260525
3640.000000	94.277412
3639.000000	94.291985
3638.000000	94.299040
3637.000000	94.301000
3636.000000	94.307898
3635.000000	94.316125
3634.000000	94.311358
3633.000000	94.294133
3632.000000	94.281598
3631.000000	94.276430
3630.000000	94.253283
3629.000000	94.222747
3628.000000	94.232047
3627.000000	94.265243
3626.000000	94.267432
3625.000000	94.228503
3624.000000	94.176370
3623.000000	94.139160
3622.000000	94.121147
3621.000000	94.099150
3620.000000	94.048787
3619.000000	93.974215
3618.000000	93.893756
3617.000000	93.814888
3616.000000	93.739714
3615.000000	93.662853
3614.000000	93.574341
3613.000000	93.478065
3612.000000	93.391595
3611.000000	93.324800
3610.000000	93.273192
3609.000000	93.227353
3608.000000	93.179431
3607.000000	93.125206
3606.000000	93.061818
3605.000000	92.990517
3604.000000	92.917348
3603.000000	92.843954
3602.000000	92.768955
3601.000000	92.692950
3600.000000	92.621309
3599.000000	92.554570
3598.000000	92.485861
3597.000000	92.409603
3596.000000	92.328687
3595.000000	92.242074
3594.000000	92.149522
3593.000000	92.056662
3592.000000	91.969760
3591.000000	91.895492
3590.000000	91.837430
3589.000000	91.791025
3588.000000	91.749855
3587.000000	91.716305
3586.000000	91.692702
3585.000000	91.672978
3584.000000	91.649098
3583.000000	91.617020
3582.000000	91.578004
3581.000000	91.535050
3580.000000	91.489567
3579.000000	91.438711
3578.000000	91.380384
3577.000000	91.317605
3576.000000	91.254772
3575.000000	91.193459
3574.000000	91.130929
3573.000000	91.065404
3572.000000	90.994672
3571.000000	90.917935
3570.000000	90.836817
3569.000000	90.750949
3568.000000	90.657050
3567.000000	90.558029
3566.000000	90.461239
3565.000000	90.367043
3564.000000	90.271863
3563.000000	90.174398
3562.000000	90.074500
3561.000000	89.971809
3560.000000	89.865170
3559.000000	89.753714
3558.000000	89.637594
3557.000000	89.518633
3556.000000	89.397645
3555.000000	89.272393
3554.000000	89.137892
3553.000000	88.992326
3552.000000	88.840568
3551.000000	88.687872
3550.000000	88.534028
3549.000000	88.375925
3548.000000	88.210958
3547.000000	88.038212
3546.000000	87.857173
3545.000000	87.669279
3544.000000	87.478019
3543.000000	87.285722
3542.000000	87.091339
3541.000000	86.893184
3540.000000	86.689700
3539.000000	86.477057
3538.000000	86.249913
3537.000000	86.006390
3536.000000	85.750965
3535.000000	85.487281
3534.000000	85.215515
3533.000000	84.934208
3532.000000	84.642788
3531.000000	84.338677
3530.000000	84.015991
3529.000000	83.671584
3528.000000	83.309260
3527.000000	82.935411
3526.000000	82.551858
3525.000000	82.156171
3524.000000	81.746137
3523.000000	81.321346
3522.000000	80.881759
3521.000000	80.427791
3520.000000	79.959674
3519.000000	79.475049
3518.000000	78.971077
3517.000000	78.448895
3516.000000	77.913088
3515.000000	77.365374
3514.000000	76.804445
3513.000000	76.228978
3512.000000	75.636246
3511.000000	75.019882
3510.000000	74.376242
3509.000000	73.712706
3508.000000	73.042538
3507.000000	72.370064
3506.000000	71.685739
3505.000000	70.977549
3504.000000	70.243788
3503.000000	69.493411
3502.000000	68.737572
3501.000000	67.983570
3500.000000	67.232533
3499.000000	66.478673
3498.000000	65.713695
3497.000000	64.935024
3496.000000	64.147875
3495.000000	63.358647
3494.000000	62.571235
3493.000000	61.789819
3492.000000	61.018147
3491.000000	60.254551
3490.000000	59.493783
3489.000000	58.735959
3488.000000	57.989584
3487.000000	57.264283
3486.000000	56.564046
3485.000000	55.886979
3484.000000	55.226139
3483.000000	54.571239
3482.000000	53.917347
3481.000000	53.273100
3480.000000	52.653866
3479.000000	52.065180
3478.000000	51.498322
3477.000000	50.941433
3476.000000	50.388010
3475.000000	49.835644
3474.000000	49.283994
3473.000000	48.737093
3472.000000	48.202848
3471.000000	47.688962
3470.000000	47.204718
3469.000000	46.764774
3468.000000	46.384470
3467.000000	46.071188
3466.000000	45.824520
3465.000000	45.644206
3464.000000	45.531019
3463.000000	45.482783
3462.000000	45.498309
3461.000000	45.582810
3460.000000	45.742744
3459.000000	45.973962
3458.000000	46.260769
3457.000000	46.586553
3456.000000	46.937791
3455.000000	47.299711
3454.000000	47.656432
3453.000000	47.994580
3452.000000	48.303118
3451.000000	48.569120
3450.000000	48.776597
3449.000000	48.911291
3448.000000	48.963955
3447.000000	48.931264
3446.000000	48.818820
3445.000000	48.638727
3444.000000	48.401573
3443.000000	48.112847
3442.000000	47.777994
3441.000000	47.410424
3440.000000	47.028841
3439.000000	46.649698
3438.000000	46.288375
3437.000000	45.963495
3436.000000	45.693092
3435.000000	45.485966
3434.000000	45.341130
3433.000000	45.254905
3432.000000	45.227984
3431.000000	45.265045
3430.000000	45.373433
3429.000000	45.562827
3428.000000	45.839021
3427.000000	46.201618
3426.000000	46.646825
3425.000000	47.172350
3424.000000	47.777519
3423.000000	48.456816
3422.000000	49.201906
3421.000000	50.005922
3420.000000	50.862119
3419.000000	51.760878
3418.000000	52.689394
3417.000000	53.636460
3416.000000	54.593367
3415.000000	55.551772
3414.000000	56.505052
3413.000000	57.449199
3412.000000	58.379551
3411.000000	59.288413
3410.000000	60.168736
3409.000000	61.018407
3408.000000	61.837706
3407.000000	62.623150
3406.000000	63.368594
3405.000000	64.071696
3404.000000	64.735358
3403.000000	65.365302
3402.000000	65.969577
3401.000000	66.557816
3400.000000	67.135478
3399.000000	67.697416
3398.000000	68.232857
3397.000000	68.736611
3396.000000	69.211041
3395.000000	69.660246
3394.000000	70.087387
3393.000000	70.498541
3392.000000	70.902555
3391.000000	71.304226
3390.000000	71.702091
3389.000000	72.092596
3388.000000	72.473681
3387.000000	72.844010
3386.000000	73.202555
3385.000000	73.550565
3384.000000	73.890710
3383.000000	74.224165
3382.000000	74.551234
3381.000000	74.873767
3380.000000	75.194193
3379.000000	75.512557
3378.000000	75.827885
3377.000000	76.141640
3376.000000	76.455540
3375.000000	76.767229
3374.000000	77.071794
3373.000000	77.367590
3372.000000	77.657187
3371.000000	77.943128
3370.000000	78.226534
3369.000000	78.508946
3368.000000	78.791694
3367.000000	79.073628
3366.000000	79.352211
3365.000000	79.626597
3364.000000	79.897285
3363.000000	80.163919
3362.000000	80.426285
3361.000000	80.686109
3360.000000	80.944842
3359.000000	81.200297
3358.000000	81.448511
3357.000000	81.688313
3356.000000	81.920989
3355.000000	82.147077
3354.000000	82.366850
3353.000000	82.583382
3352.000000	82.801486
3351.000000	83.022946
3350.000000	83.245140
3349.000000	83.463967
3348.000000	83.675742
3347.000000	83.877435
3346.000000	84.068361
3345.000000	84.251540
3344.000000	84.430984
3343.000000	84.607237
3342.000000	84.778427
3341.000000	84.944822
3340.000000	85.109295
3339.000000	85.273467
3338.000000	85.435581
3337.000000	85.592586
3336.000000	85.741682
3335.000000	85.880201
3334.000000	86.006582
3333.000000	86.121361
3332.000000	86.225901
3331.000000	86.319699
3330.000000	86.400578
3329.000000	86.467492
3328.000000	86.520745
3327.000000	86.560314
3326.000000	86.585091
3325.000000	86.593116
3324.000000	86.581574
3323.000000	86.545779
3322.000000	86.481672
3321.000000	86.388112
3320.000000	86.264564
3319.000000	86.108601
3318.000000	85.915685
3317.000000	85.682086
3316.000000	85.404276
3315.000000	85.075569
3314.000000	84.688129
3313.000000	84.234809
3312.000000	83.709117
3311.000000	83.103942
3310.000000	82.411050
3309.000000	81.626432
3308.000000	80.747852
3307.000000	79.771323
3306.000000	78.691537
3305.000000	77.500907
3304.000000	76.191922
3303.000000	74.754146
3302.000000	73.178064
3301.000000	71.461638
3300.000000	69.607747
3299.000000	67.625608
3298.000000	65.535480
3297.000000	63.373718
3296.000000	61.189117
3295.000000	59.031328
3294.000000	56.947510
3293.000000	54.984334
3292.000000	53.180519
3291.000000	51.552943
3290.000000	50.096060
3289.000000	48.787884
3288.000000	47.597140
3287.000000	46.488877
3286.000000	45.430563
3285.000000	44.403804
3284.000000	43.402660
3283.000000	42.429966
3282.000000	41.501021
3281.000000	40.644177
3280.000000	39.896253
3279.000000	39.291247
3278.000000	38.858293
3277.000000	38.624923
3276.000000	38.606922
3275.000000	38.801261
3274.000000	39.186559
3273.000000	39.727361
3272.000000	40.377062
3271.000000	41.074399
3270.000000	41.751001
3269.000000	42.342641
3268.000000	42.793619
3267.000000	43.059815
3266.000000	43.117956
3265.000000	42.970355
3264.000000	42.639946
3263.000000	42.164166
3262.000000	41.590554
3261.000000	40.977914
3260.000000	40.386731
3259.000000	39.867707
3258.000000	39.461904
3257.000000	39.203061
3256.000000	39.111138
3255.000000	39.186756
3254.000000	39.416047
3253.000000	39.776037
3252.000000	40.238030
3251.000000	40.764590
3250.000000	41.316304
3249.000000	41.861957
3248.000000	42.376495
3247.000000	42.837668
3246.000000	43.227498
3245.000000	43.536817
3244.000000	43.764256
3243.000000	43.913942
3242.000000	43.995015
3241.000000	44.022054
3240.000000	44.009717
3239.000000	43.966392
3238.000000	43.899108
3237.000000	43.816999
3236.000000	43.728897
3235.000000	43.640725
3234.000000	43.556733
3233.000000	43.480538
3232.000000	43.408214
3231.000000	43.325243
3230.000000	43.215698
3229.000000	43.070608
3228.000000	42.885820
3227.000000	42.655798
3226.000000	42.375748
3225.000000	42.046911
3224.000000	41.673014
3223.000000	41.256606
3222.000000	40.802128
3221.000000	40.320320
3220.000000	39.825322
3219.000000	39.328355
3218.000000	38.838593
3217.000000	38.364203
3216.000000	37.907651
3215.000000	37.463908
3214.000000	37.027449
3213.000000	36.597460
3212.000000	36.172551
3211.000000	35.746218
3210.000000	35.313014
3209.000000	34.875869
3208.000000	34.442293
3207.000000	34.017846
3206.000000	33.608430
3205.000000	33.223471
3204.000000	32.872493
3203.000000	32.560968
3202.000000	32.293919
3201.000000	32.079828
3200.000000	31.924321
3199.000000	31.827211
3198.000000	31.787979
3197.000000	31.809927
3196.000000	31.895796
3195.000000	32.040848
3194.000000	32.239098
3193.000000	32.488223
3192.000000	32.784380
3191.000000	33.120055
3190.000000	33.487978
3189.000000	33.886012
3188.000000	34.312025
3187.000000	34.758340
3186.000000	35.217657
3185.000000	35.687679
3184.000000	36.167274
3183.000000	36.652178
3182.000000	37.138477
3181.000000	37.626086
3180.000000	38.113699
3179.000000	38.595559
3178.000000	39.066960
3177.000000	39.528683
3176.000000	39.981978
3175.000000	40.423861
3174.000000	40.851045
3173.000000	41.263846
3172.000000	41.662827
3171.000000	42.045118
3170.000000	42.408948
3169.000000	42.757208
3168.000000	43.092445
3167.000000	43.413308
3166.000000	43.718031
3165.000000	44.007972
3164.000000	44.283678
3163.000000	44.541469
3162.000000	44.778451
3161.000000	44.995381
3160.000000	45.192676
3159.000000	45.367827
3158.000000	45.519656
3157.000000	45.652346
3156.000000	45.770973
3155.000000	45.878234
3154.000000	45.978719
3153.000000	46.081003
3152.000000	46.191923
3151.000000	46.311809
3150.000000	46.438979
3149.000000	46.574755
3148.000000	46.720696
3147.000000	46.875202
3146.000000	47.036757
3145.000000	47.206542
3144.000000	47.384262
3143.000000	47.565630
3142.000000	47.746993
3141.000000	47.928742
3140.000000	48.110606
3139.000000	48.287686
3138.000000	48.454686
3137.000000	48.609994
3136.000000	48.751689
3135.000000	48.873207
3134.000000	48.967466
3133.000000	49.030113
3132.000000	49.056352
3131.000000	49.037551
3130.000000	48.964124
3129.000000	48.830707
3128.000000	48.633986
3127.000000	48.372801
3126.000000	48.052968
3125.000000	47.687805
3124.000000	47.293240
3123.000000	46.883186
3122.000000	46.472515
3121.000000	46.077711
3120.000000	45.709573
3119.000000	45.369153
3118.000000	45.053582
3117.000000	44.761899
3116.000000	44.491961
3115.000000	44.237598
3114.000000	43.992532
3113.000000	43.753942
3112.000000	43.519353
3111.000000	43.285061
3110.000000	43.051908
3109.000000	42.827078
3108.000000	42.617780
3107.000000	42.427490
3106.000000	42.260140
3105.000000	42.123895
3104.000000	42.025774
3103.000000	41.968792
3102.000000	41.957824
3101.000000	42.001854
3100.000000	42.109115
3099.000000	42.281005
3098.000000	42.515837
3097.000000	42.813829
3096.000000	43.172428
3095.000000	43.585060
3094.000000	44.045125
3093.000000	44.549071
3092.000000	45.093053
3091.000000	45.668784
3090.000000	46.268166
3089.000000	46.885404
3088.000000	47.513366
3087.000000	48.143080
3086.000000	48.768696
3085.000000	49.389810
3084.000000	50.005270
3083.000000	50.609684
3082.000000	51.198609
3081.000000	51.772870
3080.000000	52.334637
3079.000000	52.883117
3078.000000	53.417096
3077.000000	53.936799
3076.000000	54.441179
3075.000000	54.926484
3074.000000	55.390701
3073.000000	55.836223
3072.000000	56.265270
3071.000000	56.677332
3070.000000	57.072531
3069.000000	57.454192
3068.000000	57.825403
3067.000000	58.185357
3066.000000	58.532565
3065.000000	58.868217
3064.000000	59.194058
3063.000000	59.510003
3062.000000	59.815532
3061.000000	60.111779
3060.000000	60.399641
3059.000000	60.678435
3058.000000	60.948815
3057.000000	61.213768
3056.000000	61.475250
3055.000000	61.731912
3054.000000	61.982237
3053.000000	62.227607
3052.000000	62.469936
3051.000000	62.708980
3050.000000	62.943531
3049.000000	63.173137
3048.000000	63.397172
3047.000000	63.614478
3046.000000	63.826009
3045.000000	64.035284
3044.000000	64.244495
3043.000000	64.452767
3042.000000	64.659257
3041.000000	64.865038
3040.000000	65.069910
3039.000000	65.270523
3038.000000	65.464325
3037.000000	65.652829
3036.000000	65.839331
3035.000000	66.025529
3034.000000	66.212001
3033.000000	66.399450
3032.000000	66.587260
3031.000000	66.773546
3030.000000	66.958136
3029.000000	67.142626
3028.000000	67.326454
3027.000000	67.506184
3026.000000	67.680205
3025.000000	67.850747
3024.000000	68.019079
3023.000000	68.182240
3022.000000	68.336471
3021.000000	68.480611
3020.000000	68.613916
3019.000000	68.732403
3018.000000	68.830374
3017.000000	68.903582
3016.000000	68.949410
3015.000000	68.967418
3014.000000	68.962722
3013.000000	68.948586
3012.000000	68.943156
3011.000000	68.964144
3010.000000	69.025716
3009.000000	69.135408
3008.000000	69.290022
3007.000000	69.475415
3006.000000	69.672236
3005.000000	69.861173
3004.000000	70.022530
3003.000000	70.133988
3002.000000	70.172162
3001.000000	70.116136
3000.000000	69.953418
2999.000000	69.689227
2998.000000	69.357426
2997.000000	69.021374
2996.000000	68.758179
2995.000000	68.634761
2994.000000	68.686702
2993.000000	68.908383
2992.000000	69.255350
2991.000000	69.663376
2990.000000	70.074142
2989.000000	70.451264
2988.000000	70.780001
2987.000000	71.058586
2986.000000	71.292570
2985.000000	71.490054
2984.000000	71.656726
2983.000000	71.793375
2982.000000	71.899413
2981.000000	71.974986
2980.000000	72.018326
2979.000000	72.023584
2978.000000	71.984240
2977.000000	71.899553
2976.000000	71.776378
2975.000000	71.629153
2974.000000	71.479236
2973.000000	71.351010
2972.000000	71.263675
2971.000000	71.223296
2970.000000	71.220321
2969.000000	71.229675
2968.000000	71.212325
2967.000000	71.125019
2966.000000	70.938938
2965.000000	70.655117
2964.000000	70.304353
2963.000000	69.934293
2962.000000	69.594738
2961.000000	69.325678
2960.000000	69.150982
2959.000000	69.078888
2958.000000	69.108942
2957.000000	69.234828
2956.000000	69.441471
2955.000000	69.704687
2954.000000	69.996227
2953.000000	70.288101
2952.000000	70.551091
2951.000000	70.758008
2950.000000	70.893390
2949.000000	70.961450
2948.000000	70.981456
2947.000000	70.973242
2946.000000	70.941237
2945.000000	70.860503
2944.000000	70.676708
2943.000000	70.332410
2942.000000	69.817817
2941.000000	69.209728
2940.000000	68.662998
2939.000000	68.349645
2938.000000	68.379805
2937.000000	68.754974
2936.000000	69.376897
2935.000000	70.104613
2934.000000	70.817630
2933.000000	71.448504
2932.000000	71.977654
2931.000000	72.413737
2930.000000	72.777826
2929.000000	73.091731
2928.000000	73.371329
2927.000000	73.624827
2926.000000	73.857534
2925.000000	74.074429
2924.000000	74.278095
2923.000000	74.467858
2922.000000	74.643326
2921.000000	74.806261
2920.000000	74.957411
2919.000000	75.095004
2918.000000	75.217282
2917.000000	75.324533
2916.000000	75.417419
2915.000000	75.495749
2914.000000	75.560234
2913.000000	75.613079
2912.000000	75.655863
2911.000000	75.688869
2910.000000	75.712742
2909.000000	75.728074
2908.000000	75.732047
2907.000000	75.716930
2906.000000	75.672614
2905.000000	75.588084
2904.000000	75.449263
2903.000000	75.241965
2902.000000	74.959033
2901.000000	74.605555
2900.000000	74.201477
2899.000000	73.781275
2898.000000	73.392386
2897.000000	73.086417
2896.000000	72.902289
2895.000000	72.854081
2894.000000	72.932564
2893.000000	73.112929
2892.000000	73.362297
2891.000000	73.646343
2890.000000	73.937407
2889.000000	74.217919
2888.000000	74.478046
2887.000000	74.712614
2886.000000	74.920614
2885.000000	75.104680
2884.000000	75.267170
2883.000000	75.408713
2882.000000	75.530713
2881.000000	75.636891
2880.000000	75.730951
2879.000000	75.814729
2878.000000	75.889948
2877.000000	75.959639
2876.000000	76.026569
2875.000000	76.091703
2874.000000	76.155539
2873.000000	76.218984
2872.000000	76.282484
2871.000000	76.346834
2870.000000	76.415631
2869.000000	76.494472
2868.000000	76.586229
2867.000000	76.688795
2866.000000	76.797917
2865.000000	76.909507
2864.000000	77.018624
2863.000000	77.119985
2862.000000	77.211671
2861.000000	77.296150
2860.000000	77.376303
2859.000000	77.452635
2858.000000	77.525589
2857.000000	77.597802
2856.000000	77.672215
2855.000000	77.750043
2854.000000	77.831783
2853.000000	77.917542
2852.000000	78.004662
2851.000000	78.087485
2850.000000	78.161490
2849.000000	78.226177
2848.000000	78.283177
2847.000000	78.334082
2846.000000	78.381541
2845.000000	78.429759
2844.000000	78.481583
2843.000000	78.536481
2842.000000	78.592898
2841.000000	78.651095
2840.000000	78.712210
2839.000000	78.776226
2838.000000	78.842495
2837.000000	78.911072
2836.000000	78.982371
2835.000000	79.056586
2834.000000	79.134235
2833.000000	79.215980
2832.000000	79.301074
2831.000000	79.387152
2830.000000	79.472155
2829.000000	79.555100
2828.000000	79.634731
2827.000000	79.709434
2826.000000	79.779219
2825.000000	79.846067
2824.000000	79.911590
2823.000000	79.975904
2822.000000	80.039363
2821.000000	80.103318
2820.000000	80.168121
2819.000000	80.232099
2818.000000	80.293440
2817.000000	80.351515
2816.000000	80.405667
2815.000000	80.454486
2814.000000	80.497508
2813.000000	80.536272
2812.000000	80.572910
2811.000000	80.609020
2810.000000	80.646228
2809.000000	80.685982
2808.000000	80.727938
2807.000000	80.770098
2806.000000	80.811255
2805.000000	80.851700
2804.000000	80.891019
2803.000000	80.927272
2802.000000	80.959348
2801.000000	80.988513
2800.000000	81.016824
2799.000000	81.045550
2798.000000	81.075797
2797.000000	81.108711
2796.000000	81.143974
2795.000000	81.179630
2794.000000	81.214171
2793.000000	81.247401
2792.000000	81.278864
2791.000000	81.307399
2790.000000	81.332981
2789.000000	81.357039
2788.000000	81.380089
2787.000000	81.400948
2786.000000	81.419340
2785.000000	81.437509
2784.000000	81.458233
2783.000000	81.482933
2782.000000	81.512546
2781.000000	81.548154
2780.000000	81.589325
2779.000000	81.633398
2778.000000	81.677690
2777.000000	81.721375
2776.000000	81.764467
2775.000000	81.806592
2774.000000	81.847838
2773.000000	81.889269
2772.000000	81.931469
2771.000000	81.973775
2770.000000	82.015628
2769.000000	82.057306
2768.000000	82.098479
2767.000000	82.137401
2766.000000	82.172502
2765.000000	82.203547
2764.000000	82.230667
2763.000000	82.253774
2762.000000	82.273675
2761.000000	82.292406
2760.000000	82.311518
2759.000000	82.331040
2758.000000	82.350649
2757.000000	82.370308
2756.000000	82.389121
2755.000000	82.405147
2754.000000	82.417331
2753.000000	82.426777
2752.000000	82.435708
2751.000000	82.446374
2750.000000	82.461116
2749.000000	82.481513
2748.000000	82.506435
2747.000000	82.532242
2746.000000	82.555679
2745.000000	82.575725
2744.000000	82.592741
2743.000000	82.607554
2742.000000	82.621639
2741.000000	82.636167
2740.000000	82.649957
2739.000000	82.659980
2738.000000	82.664934
2737.000000	82.667496
2736.000000	82.672904
2735.000000	82.686859
2734.000000	82.714603
2733.000000	82.758924
2732.000000	82.817446
2731.000000	82.883231
2730.000000	82.949134
2729.000000	83.011117
2728.000000	83.067484
2727.000000	83.117189
2726.000000	83.160081
2725.000000	83.197152
2724.000000	83.229263
2723.000000	83.256596
2722.000000	83.279709
2721.000000	83.299731
2720.000000	83.317215
2719.000000	83.331968
2718.000000	83.344518
2717.000000	83.356493
2716.000000	83.369094
2715.000000	83.382742
2714.000000	83.398375
2713.000000	83.417295
2712.000000	83.439310
2711.000000	83.462835
2710.000000	83.487385
2709.000000	83.514297
2708.000000	83.544347
2707.000000	83.576189
2706.000000	83.607735
2705.000000	83.637334
2704.000000	83.662974
2703.000000	83.682149
2702.000000	83.693494
2701.000000	83.697127
2700.000000	83.693186
2699.000000	83.681641
2698.000000	83.664194
2697.000000	83.644819
2696.000000	83.627298
2695.000000	83.613563
2694.000000	83.604610
2693.000000	83.600876
2692.000000	83.600921
2691.000000	83.601601
2690.000000	83.600748
2689.000000	83.598610
2688.000000	83.596230
2687.000000	83.594055
2686.000000	83.592929
2685.000000	83.594699
2684.000000	83.600807
2683.000000	83.611648
2682.000000	83.627717
2681.000000	83.649897
2680.000000	83.677680
2679.000000	83.708470
2678.000000	83.739491
2677.000000	83.768987
2676.000000	83.795288
2675.000000	83.816482
2674.000000	83.831909
2673.000000	83.842713
2672.000000	83.850389
2671.000000	83.855967
2670.000000	83.861004
2669.000000	83.867854
2668.000000	83.878250
2667.000000	83.892891
2666.000000	83.912618
2665.000000	83.938201
2664.000000	83.968384
2663.000000	83.999833
2662.000000	84.029520
2661.000000	84.055757
2660.000000	84.076825
2659.000000	84.090673
2658.000000	84.096733
2657.000000	84.096599
2656.000000	84.092310
2655.000000	84.085547
2654.000000	84.079109
2653.000000	84.077213
2652.000000	84.083346
2651.000000	84.099027
2650.000000	84.124775
2649.000000	84.160120
2648.000000	84.202101
2647.000000	84.245595
2646.000000	84.286256
2645.000000	84.322261
2644.000000	84.353036
2643.000000	84.378546
2642.000000	84.400633
2641.000000	84.423135
2640.000000	84.449431
2639.000000	84.480712
2638.000000	84.516683
2637.000000	84.556013
2636.000000	84.595456
2635.000000	84.630493
2634.000000	84.658189
2633.000000	84.678432
2632.000000	84.692152
2631.000000	84.700213
2630.000000	84.704508
2629.000000	84.708345
2628.000000	84.714400
2627.000000	84.723236
2626.000000	84.734275
2625.000000	84.746407
2624.000000	84.757288
2623.000000	84.763943
2622.000000	84.765145
2621.000000	84.762098
2620.000000	84.756197
2619.000000	84.747884
2618.000000	84.738142
2617.000000	84.728971
2616.000000	84.721207
2615.000000	84.713094
2614.000000	84.702072
2613.000000	84.686701
2612.000000	84.666200
2611.000000	84.640208
2610.000000	84.610267
2609.000000	84.580391
2608.000000	84.555120
2607.000000	84.537876
2606.000000	84.531308
2605.000000	84.537609
2604.000000	84.557143
2603.000000	84.587676
2602.000000	84.625875
2601.000000	84.668047
2600.000000	84.709663
2599.000000	84.746064
2598.000000	84.774669
2597.000000	84.795867
2596.000000	84.811478
2595.000000	84.823901
2594.000000	84.836840
2593.000000	84.854618
2592.000000	84.879453
2591.000000	84.910414
2590.000000	84.945145
2589.000000	84.980880
2588.000000	85.013498
2587.000000	85.037959
2586.000000	85.051442
2585.000000	85.055268
2584.000000	85.053404
2583.000000	85.050575
2582.000000	85.052190
2581.000000	85.063832
2580.000000	85.089071
2579.000000	85.128200
2578.000000	85.179042
2577.000000	85.237780
2576.000000	85.298733
2575.000000	85.355671
2574.000000	85.404931
2573.000000	85.446377
2572.000000	85.481489
2571.000000	85.512078
2570.000000	85.541090
2569.000000	85.572403
2568.000000	85.608375
2567.000000	85.648478
2566.000000	85.690796
2565.000000	85.733428
2564.000000	85.773855
2563.000000	85.809011
2562.000000	85.837259
2561.000000	85.859405
2560.000000	85.877314
2559.000000	85.892754
2558.000000	85.908201
2557.000000	85.926843
2556.000000	85.950531
2555.000000	85.978681
2554.000000	86.009760
2553.000000	86.042603
2552.000000	86.075759
2551.000000	86.107179
2550.000000	86.135647
2549.000000	86.161538
2548.000000	86.185500
2547.000000	86.207630
2546.000000	86.228536
2545.000000	86.249875
2544.000000	86.272669
2543.000000	86.296044
2542.000000	86.318158
2541.000000	86.337265
2540.000000	86.351593
2539.000000	86.359403
2538.000000	86.360276
2537.000000	86.355426
2536.000000	86.345947
2535.000000	86.332040
2534.000000	86.313941
2533.000000	86.292570
2532.000000	86.268655
2531.000000	86.242218
2530.000000	86.213849
2529.000000	86.185126
2528.000000	86.157386
2527.000000	86.131218
2526.000000	86.107477
2525.000000	86.087407
2524.000000	86.071015
2523.000000	86.056443
2522.000000	86.041379
2521.000000	86.023902
2520.000000	86.001817
2519.000000	85.972932
2518.000000	85.936826
2517.000000	85.895307
2516.000000	85.850478
2515.000000	85.803930
2514.000000	85.757942
2513.000000	85.715720
2512.000000	85.679566
2511.000000	85.650233
2510.000000	85.628377
2509.000000	85.614976
2508.000000	85.609794
2507.000000	85.610881
2506.000000	85.617075
2505.000000	85.629091
2504.000000	85.647694
2503.000000	85.672492
2502.000000	85.702657
2501.000000	85.737546
2500.000000	85.775194
2499.000000	85.811782
2498.000000	85.843693
2497.000000	85.868888
2496.000000	85.886184
2495.000000	85.894979
2494.000000	85.896652
2493.000000	85.894514
2492.000000	85.891618
2491.000000	85.889545
2490.000000	85.889891
2489.000000	85.895079
2488.000000	85.906366
2487.000000	85.922377
2486.000000	85.940518
2485.000000	85.958715
2484.000000	85.975162
2483.000000	85.988074
2482.000000	85.996910
2481.000000	86.003051
2480.000000	86.008558
2479.000000	86.015177
2478.000000	86.025011
2477.000000	86.040515
2476.000000	86.062893
2475.000000	86.091474
2474.000000	86.124947
2473.000000	86.162209
2472.000000	86.201469
2471.000000	86.240332
2470.000000	86.277698
2469.000000	86.314229
2468.000000	86.350606
2467.000000	86.386462
2466.000000	86.421607
2465.000000	86.456665
2464.000000	86.491675
2463.000000	86.525298
2462.000000	86.556174
2461.000000	86.583923
2460.000000	86.608109
2459.000000	86.627815
2458.000000	86.642769
2457.000000	86.653815
2456.000000	86.661589
2455.000000	86.665875
2454.000000	86.667250
2453.000000	86.667917
2452.000000	86.670256
2451.000000	86.675521
2450.000000	86.684396
2449.000000	86.697410
2448.000000	86.714146
2447.000000	86.733428
2446.000000	86.754927
2445.000000	86.779590
2444.000000	86.807680
2443.000000	86.837861
2442.000000	86.868659
2441.000000	86.899336
2440.000000	86.928838
2439.000000	86.955473
2438.000000	86.978681
2437.000000	86.999818
2436.000000	87.020379
2435.000000	87.040434
2434.000000	87.059342
2433.000000	87.076390
2432.000000	87.089773
2431.000000	87.096729
2430.000000	87.095475
2429.000000	87.086317
2428.000000	87.070185
2427.000000	87.047414
2426.000000	87.019240
2425.000000	86.988610
2424.000000	86.958627
2423.000000	86.931039
2422.000000	86.907009
2421.000000	86.887940
2420.000000	86.874306
2419.000000	86.864915
2418.000000	86.858225
2417.000000	86.853421
2416.000000	86.849453
2415.000000	86.844825
2414.000000	86.839253
2413.000000	86.834045
2412.000000	86.829653
2411.000000	86.824075
2410.000000	86.814497
2409.000000	86.799004
2408.000000	86.775965
2407.000000	86.743367
2406.000000	86.700811
2405.000000	86.650873
2404.000000	86.597587
2403.000000	86.545005
2402.000000	86.498099
2401.000000	86.462953
2400.000000	86.443628
2399.000000	86.439540
2398.000000	86.446462
2397.000000	86.458767
2396.000000	86.469523
2395.000000	86.471112
2394.000000	86.458382
2393.000000	86.431146
2392.000000	86.392467
2391.000000	86.346644
2390.000000	86.300367
2389.000000	86.262710
2388.000000	86.242726
2387.000000	86.245370
2386.000000	86.272056
2385.000000	86.323735
2384.000000	86.398183
2383.000000	86.490008
2382.000000	86.591322
2381.000000	86.694597
2380.000000	86.793466
2379.000000	86.878740
2378.000000	86.942380
2377.000000	86.982086
2376.000000	87.000245
2375.000000	87.000173
2374.000000	86.987722
2373.000000	86.972033
2372.000000	86.961419
2371.000000	86.956625
2370.000000	86.951607
2369.000000	86.947103
2368.000000	86.950330
2367.000000	86.963137
2366.000000	86.981693
2365.000000	87.011357
2364.000000	87.068078
2363.000000	87.143025
2362.000000	87.224406
2361.000000	87.311707
2360.000000	87.391625
2359.000000	87.456121
2358.000000	87.486000
2357.000000	87.474160
2356.000000	87.429328
2355.000000	87.348116
2354.000000	87.260629
2353.000000	87.207253
2352.000000	87.247077
2351.000000	87.364089
2350.000000	87.462342
2349.000000	87.478522
2348.000000	87.421349
2347.000000	87.386613
2346.000000	87.420284
2345.000000	87.484274
2344.000000	87.525903
2343.000000	87.511164
2342.000000	87.487968
2341.000000	87.472026
2340.000000	87.465865
2339.000000	87.459001
2338.000000	87.452449
2337.000000	87.453859
2336.000000	87.461117
2335.000000	87.476204
2334.000000	87.495629
2333.000000	87.512337
2332.000000	87.504148
2331.000000	87.468626
2330.000000	87.392593
2329.000000	87.319900
2328.000000	87.242165
2327.000000	87.190218
2326.000000	87.152958
2325.000000	87.138837
2324.000000	87.138129
2323.000000	87.129813
2322.000000	87.109347
2321.000000	87.067582
2320.000000	87.015617
2319.000000	86.962661
2318.000000	86.918832
2317.000000	86.894450
2316.000000	86.878330
2315.000000	86.870580
2314.000000	86.849232
2313.000000	86.816133
2312.000000	86.752858
2311.000000	86.675273
2310.000000	86.581895
2309.000000	86.492360
2308.000000	86.398435
2307.000000	86.307438
2306.000000	86.211668
2305.000000	86.116868
2304.000000	86.016055
2303.000000	85.912909
2302.000000	85.804062
2301.000000	85.697422
2300.000000	85.590826
2299.000000	85.494139
2298.000000	85.407652
2297.000000	85.340268
2296.000000	85.286489
2295.000000	85.248847
2294.000000	85.222021
2293.000000	85.206653
2292.000000	85.196748
2291.000000	85.191885
2290.000000	85.192663
2289.000000	85.201896
2288.000000	85.221403
2287.000000	85.253769
2286.000000	85.303839
2285.000000	85.372370
2284.000000	85.455483
2283.000000	85.544459
2282.000000	85.632475
2281.000000	85.711966
2280.000000	85.776885
2279.000000	85.823604
2278.000000	85.855116
2277.000000	85.877462
2276.000000	85.896851
2275.000000	85.920118
2274.000000	85.953872
2273.000000	86.002850
2272.000000	86.065962
2271.000000	86.139838
2270.000000	86.221230
2269.000000	86.307052
2268.000000	86.392885
2267.000000	86.475367
2266.000000	86.554134
2265.000000	86.631418
2264.000000	86.708544
2263.000000	86.787508
2262.000000	86.870916
2261.000000	86.959763
2260.000000	87.052078
2259.000000	87.143355
2258.000000	87.230734
2257.000000	87.310836
2256.000000	87.380382
2255.000000	87.437370
2254.000000	87.483538
2253.000000	87.522857
2252.000000	87.558355
2251.000000	87.593694
2250.000000	87.633175
2249.000000	87.680306
2248.000000	87.735066
2247.000000	87.794834
2246.000000	87.856054
2245.000000	87.914887
2244.000000	87.966555
2243.000000	88.007530
2242.000000	88.037240
2241.000000	88.057198
2240.000000	88.069078
2239.000000	88.074947
2238.000000	88.078119
2237.000000	88.081696
2236.000000	88.087295
2235.000000	88.095591
2234.000000	88.107441
2233.000000	88.122606
2232.000000	88.138910
2231.000000	88.153853
2230.000000	88.166469
2229.000000	88.176510
2228.000000	88.183325
2227.000000	88.186991
2226.000000	88.189396
2225.000000	88.192844
2224.000000	88.198267
2223.000000	88.205992
2222.000000	88.216693
2221.000000	88.230390
2220.000000	88.245404
2219.000000	88.259899
2218.000000	88.273328
2217.000000	88.285562
2216.000000	88.295959
2215.000000	88.304788
2214.000000	88.314332
2213.000000	88.327211
2212.000000	88.344590
2211.000000	88.366860
2210.000000	88.394433
2209.000000	88.426320
2208.000000	88.459309
2207.000000	88.490072
2206.000000	88.516978
2205.000000	88.538809
2204.000000	88.553274
2203.000000	88.558574
2202.000000	88.555290
2201.000000	88.545428
2200.000000	88.530907
2199.000000	88.514336
2198.000000	88.499841
2197.000000	88.491157
2196.000000	88.489729
2195.000000	88.495671
2194.000000	88.509286
2193.000000	88.529963
2192.000000	88.554848
2191.000000	88.580414
2190.000000	88.604643
2189.000000	88.626797
2188.000000	88.646516
2187.000000	88.664840
2186.000000	88.684768
2185.000000	88.709092
2184.000000	88.738293
2183.000000	88.771447
2182.000000	88.807738
2181.000000	88.845477
2180.000000	88.881101
2179.000000	88.910857
2178.000000	88.932823
2177.000000	88.946443
2176.000000	88.951619
2175.000000	88.949858
2174.000000	88.944930
2173.000000	88.940700
2172.000000	88.938888
2171.000000	88.939777
2170.000000	88.943622
2169.000000	88.949894
2168.000000	88.956366
2167.000000	88.960540
2166.000000	88.961236
2165.000000	88.957852
2164.000000	88.949567
2163.000000	88.936887
2162.000000	88.922831
2161.000000	88.911263
2160.000000	88.904930
2159.000000	88.905879
2158.000000	88.916001
2157.000000	88.935300
2156.000000	88.960762
2155.000000	88.988228
2154.000000	89.014436
2153.000000	89.036393
2152.000000	89.050960
2151.000000	89.057002
2150.000000	89.056962
2149.000000	89.054846
2148.000000	89.053606
2147.000000	89.055489
2146.000000	89.062869
2145.000000	89.076701
2144.000000	89.095234
2143.000000	89.115508
2142.000000	89.134896
2141.000000	89.150514
2140.000000	89.159001
2139.000000	89.158699
2138.000000	89.151040
2137.000000	89.138834
2136.000000	89.124471
2135.000000	89.110607
2134.000000	89.100597
2133.000000	89.096408
2132.000000	89.096938
2131.000000	89.099380
2130.000000	89.101005
2129.000000	89.098836
2128.000000	89.089738
2127.000000	89.072705
2126.000000	89.050040
2125.000000	89.025309
2124.000000	89.001628
2123.000000	88.982926
2122.000000	88.974478
2121.000000	88.980118
2120.000000	89.000012
2119.000000	89.031795
2118.000000	89.071832
2117.000000	89.114224
2116.000000	89.151203
2115.000000	89.176967
2114.000000	89.190575
2113.000000	89.194314
2112.000000	89.191208
2111.000000	89.185235
2110.000000	89.181400
2109.000000	89.183244
2108.000000	89.191078
2107.000000	89.203577
2106.000000	89.219459
2105.000000	89.236447
2104.000000	89.250578
2103.000000	89.258487
2102.000000	89.259210
2101.000000	89.252761
2100.000000	89.238965
2099.000000	89.218758
2098.000000	89.195120
2097.000000	89.170919
2096.000000	89.147249
2095.000000	89.125708
2094.000000	89.109793
2093.000000	89.101892
2092.000000	89.100848
2091.000000	89.104316
2090.000000	89.111929
2089.000000	89.124575
2088.000000	89.142292
2087.000000	89.164828
2086.000000	89.192216
2085.000000	89.222834
2084.000000	89.252730
2083.000000	89.278495
2082.000000	89.298872
2081.000000	89.312622
2080.000000	89.317284
2079.000000	89.311695
2078.000000	89.297923
2077.000000	89.278677
2076.000000	89.254835
2075.000000	89.227529
2074.000000	89.199091
2073.000000	89.170448
2072.000000	89.139505
2071.000000	89.103617
2070.000000	89.062987
2069.000000	89.019347
2068.000000	88.972662
2067.000000	88.921175
2066.000000	88.863897
2065.000000	88.802020
2064.000000	88.738410
2063.000000	88.676937
2062.000000	88.620311
2061.000000	88.567036
2060.000000	88.512167
2059.000000	88.452427
2058.000000	88.389016
2057.000000	88.324480
2056.000000	88.259892
2055.000000	88.196890
2054.000000	88.139470
2053.000000	88.091524
2052.000000	88.054105
2051.000000	88.026032
2050.000000	88.005808
2049.000000	87.991317
2048.000000	87.978550
2047.000000	87.963580
2046.000000	87.946275
2045.000000	87.929384
2044.000000	87.914815
2043.000000	87.903430
2042.000000	87.897564
2041.000000	87.900885
2040.000000	87.915479
2039.000000	87.941427
2038.000000	87.977760
2037.000000	88.021142
2036.000000	88.065594
2035.000000	88.106579
2034.000000	88.144485
2033.000000	88.182023
2032.000000	88.220533
2031.000000	88.261578
2030.000000	88.308847
2029.000000	88.365184
2028.000000	88.428621
2027.000000	88.494542
2026.000000	88.559618
2025.000000	88.621126
2024.000000	88.674810
2023.000000	88.716879
2022.000000	88.749365
2021.000000	88.779034
2020.000000	88.810285
2019.000000	88.842547
2018.000000	88.875023
2017.000000	88.910505
2016.000000	88.953439
2015.000000	89.006708
2014.000000	89.069781
2013.000000	89.137433
2012.000000	89.200687
2011.000000	89.252792
2010.000000	89.294321
2009.000000	89.330187
2008.000000	89.363720
2007.000000	89.397480
2006.000000	89.436259
2005.000000	89.484375
2004.000000	89.541232
2003.000000	89.602041
2002.000000	89.663207
2001.000000	89.721194
2000.000000	89.770848
1999.000000	89.808621
1998.000000	89.834677
1997.000000	89.854389
1996.000000	89.876475
1995.000000	89.906806
1994.000000	89.943535
1993.000000	89.980187
1992.000000	90.014479
1991.000000	90.051961
1990.000000	90.098393
1989.000000	90.151664
1988.000000	90.203866
1987.000000	90.248679
1986.000000	90.285777
1985.000000	90.318737
1984.000000	90.351072
1983.000000	90.384943
1982.000000	90.422216
1981.000000	90.463994
1980.000000	90.511401
1979.000000	90.564987
1978.000000	90.621152
1977.000000	90.674399
1976.000000	90.722508
1975.000000	90.766384
1974.000000	90.805636
1973.000000	90.839584
1972.000000	90.872240
1971.000000	90.910227
1970.000000	90.954127
1969.000000	90.996314
1968.000000	91.027906
1967.000000	91.046195
1966.000000	91.055797
1965.000000	91.063764
1964.000000	91.073709
1963.000000	91.082417
1962.000000	91.082181
1961.000000	91.069701
1960.000000	91.051143
1959.000000	91.034860
1958.000000	91.022277
1957.000000	91.010288
1956.000000	90.999422
1955.000000	90.993929
1954.000000	90.995075
1953.000000	91.001512
1952.000000	91.012959
1951.000000	91.029987
1950.000000	91.052000
1949.000000	91.074830
1948.000000	91.094925
1947.000000	91.114232
1946.000000	91.135830
1945.000000	91.156299
1944.000000	91.165460
1943.000000	91.156004
1942.000000	91.133810
1941.000000	91.114167
1940.000000	91.108961
1939.000000	91.119645
1938.000000	91.137546
1937.000000	91.151676
1936.000000	91.158107
1935.000000	91.158888
1934.000000	91.154096
1933.000000	91.142212
1932.000000	91.123525
1931.000000	91.103018
1930.000000	91.088614
1929.000000	91.081457
1928.000000	91.080902
1927.000000	91.091361
1926.000000	91.118205
1925.000000	91.154503
1924.000000	91.177787
1923.000000	91.175918
1922.000000	91.162480
1921.000000	91.155051
1920.000000	91.154532
1919.000000	91.151338
1918.000000	91.143133
1917.000000	91.137668
1916.000000	91.137904
1915.000000	91.143255
1914.000000	91.154858
1913.000000	91.169165
1912.000000	91.175711
1911.000000	91.168450
1910.000000	91.151920
1909.000000	91.130588
1908.000000	91.107233
1907.000000	91.088290
1906.000000	91.084984
1905.000000	91.100688
1904.000000	91.123111
1903.000000	91.145506
1902.000000	91.174418
1901.000000	91.210001
1900.000000	91.243115
1899.000000	91.271532
1898.000000	91.303955
1897.000000	91.342641
1896.000000	91.374097
1895.000000	91.393314
1894.000000	91.417434
1893.000000	91.460471
1892.000000	91.512460
1891.000000	91.553471
1890.000000	91.574197
1889.000000	91.579824
1888.000000	91.579025
1887.000000	91.580454
1886.000000	91.592728
1885.000000	91.614001
1884.000000	91.633359
1883.000000	91.651277
1882.000000	91.681018
1881.000000	91.723498
1880.000000	91.764060
1879.000000	91.793467
1878.000000	91.816311
1877.000000	91.838558
1876.000000	91.855571
1875.000000	91.865158
1874.000000	91.880667
1873.000000	91.915088
1872.000000	91.963292
1871.000000	92.011402
1870.000000	92.049343
1869.000000	92.071734
1868.000000	92.077291
1867.000000	92.074389
1866.000000	92.080835
1865.000000	92.103418
1864.000000	92.129546
1863.000000	92.148494
1862.000000	92.168064
1861.000000	92.198030
1860.000000	92.232677
1859.000000	92.264909
1858.000000	92.301111
1857.000000	92.345183
1856.000000	92.384693
1855.000000	92.408840
1854.000000	92.423692
1853.000000	92.434482
1852.000000	92.441862
1851.000000	92.453352
1850.000000	92.478082
1849.000000	92.515564
1848.000000	92.554787
1847.000000	92.590610
1846.000000	92.625313
1845.000000	92.652273
1844.000000	92.665080
1843.000000	92.671579
1842.000000	92.678552
1841.000000	92.686301
1840.000000	92.697414
1839.000000	92.710928
1838.000000	92.725747
1837.000000	92.744239
1836.000000	92.768543
1835.000000	92.804227
1834.000000	92.854449
1833.000000	92.911046
1832.000000	92.960887
1831.000000	92.984084
1830.000000	92.970186
1829.000000	92.945550
1828.000000	92.942249
1827.000000	92.963398
1826.000000	92.992314
1825.000000	93.018860
1824.000000	93.046944
1823.000000	93.081324
1822.000000	93.121777
1821.000000	93.167251
1820.000000	93.210054
1819.000000	93.233994
1818.000000	93.236126
1817.000000	93.232320
1816.000000	93.233781
1815.000000	93.241552
1814.000000	93.256469
1813.000000	93.280882
1812.000000	93.304866
1811.000000	93.309614
1810.000000	93.302254
1809.000000	93.303007
1808.000000	93.305486
1807.000000	93.293706
1806.000000	93.277897
1805.000000	93.279782
1804.000000	93.294814
1803.000000	93.300970
1802.000000	93.288864
1801.000000	93.274411
1800.000000	93.274130
1799.000000	93.287683
1798.000000	93.314455
1797.000000	93.348234
1796.000000	93.369512
1795.000000	93.369867
1794.000000	93.359512
1793.000000	93.350627
1792.000000	93.343235
1791.000000	93.333252
1790.000000	93.332197
1789.000000	93.354574
1788.000000	93.394052
1787.000000	93.428865
1786.000000	93.447228
1785.000000	93.453103
1784.000000	93.450250
1783.000000	93.443879
1782.000000	93.435372
1781.000000	93.425080
1780.000000	93.419681
1779.000000	93.427204
1778.000000	93.453856
1777.000000	93.492012
1776.000000	93.529753
1775.000000	93.561889
1774.000000	93.579674
1773.000000	93.575177
1772.000000	93.570958
1771.000000	93.585625
1770.000000	93.608492
1769.000000	93.637558
1768.000000	93.680560
1767.000000	93.731211
1766.000000	93.777785
1765.000000	93.824594
1764.000000	93.877896
1763.000000	93.917125
1762.000000	93.913190
1761.000000	93.886836
1760.000000	93.874853
1759.000000	93.878752
1758.000000	93.881741
1757.000000	93.873984
1756.000000	93.878810
1755.000000	93.909515
1754.000000	93.946442
1753.000000	93.979043
1752.000000	94.014427
1751.000000	94.049242
1750.000000	94.064582
1749.000000	94.052931
1748.000000	94.041062
1747.000000	94.062495
1746.000000	94.108407
1745.000000	94.153966
1744.000000	94.193149
1743.000000	94.221755
1742.000000	94.232951
1741.000000	94.233914
1740.000000	94.242310
1739.000000	94.262158
1738.000000	94.276397
1737.000000	94.279038
1736.000000	94.282850
1735.000000	94.276065
1734.000000	94.263126
1733.000000	94.281700
1732.000000	94.310501
1731.000000	94.317965
1730.000000	94.313467
1729.000000	94.302803
1728.000000	94.293075
1727.000000	94.294679
1726.000000	94.300779
1725.000000	94.301444
1724.000000	94.291490
1723.000000	94.277845
1722.000000	94.280173
1721.000000	94.307322
1720.000000	94.347015
1719.000000	94.364223
1718.000000	94.343899
1717.000000	94.333183
1716.000000	94.333156
1715.000000	94.307512
1714.000000	94.286112
1713.000000	94.303959
1712.000000	94.336676
1711.000000	94.358301
1710.000000	94.381046
1709.000000	94.417636
1708.000000	94.454467
1707.000000	94.471759
1706.000000	94.478369
1705.000000	94.499227
1704.000000	94.523984
1703.000000	94.535296
1702.000000	94.549702
1701.000000	94.569644
1700.000000	94.598390
1699.000000	94.619548
1698.000000	94.620738
1697.000000	94.633809
1696.000000	94.670182
1695.000000	94.713595
1694.000000	94.745217
1693.000000	94.755639
1692.000000	94.765918
1691.000000	94.790125
1690.000000	94.815918
1689.000000	94.825738
1688.000000	94.830109
1687.000000	94.850221
1686.000000	94.884090
1685.000000	94.873777
1684.000000	94.814043
1683.000000	94.792493
1682.000000	94.797431
1681.000000	94.769225
1680.000000	94.724980
1679.000000	94.696210
1678.000000	94.683106
1677.000000	94.664609
1676.000000	94.631465
1675.000000	94.609245
1674.000000	94.597959
1673.000000	94.564540
1672.000000	94.509201
1671.000000	94.451546
1670.000000	94.389552
1669.000000	94.319507
1668.000000	94.263013
1667.000000	94.236662
1666.000000	94.226576
1665.000000	94.210398
1664.000000	94.170571
1663.000000	94.114566
1662.000000	94.058833
1661.000000	93.987179
1660.000000	93.892037
1659.000000	93.802584
1658.000000	93.725554
1657.000000	93.644846
1656.000000	93.552741
1655.000000	93.437352
1654.000000	93.186178
1653.000000	92.820251
1652.000000	92.537498
1651.000000	92.287947
1650.000000	91.952920
1649.000000	91.503550
1648.000000	90.817830
1647.000000	89.786083
1646.000000	88.497100
1645.000000	87.077983
1644.000000	85.493856
1643.000000	83.640817
1642.000000	81.466909
1641.000000	79.019872
1640.000000	76.491014
1639.000000	74.109205
1638.000000	71.997957
1637.000000	70.196004
1636.000000	68.867874
1635.000000	68.325278
1634.000000	68.603204
1633.000000	69.437962
1632.000000	70.597796
1631.000000	71.961503
1630.000000	73.454117
1629.000000	75.015089
1628.000000	76.580432
1627.000000	78.068193
1626.000000	79.427451
1625.000000	80.694861
1624.000000	81.934215
1623.000000	83.125896
1622.000000	84.172177
1621.000000	85.021400
1620.000000	85.729641
1619.000000	86.382065
1618.000000	87.019165
1617.000000	87.639832
1616.000000	88.226652
1615.000000	88.731885
1614.000000	89.123734
1613.000000	89.434409
1612.000000	89.710260
1611.000000	89.951755
1610.000000	90.118368
1609.000000	90.185889
1608.000000	90.169036
1607.000000	90.078393
1606.000000	89.886053
1605.000000	89.557621
1604.000000	89.088740
1603.000000	88.470060
1602.000000	87.681828
1601.000000	86.751849
1600.000000	85.772405
1599.000000	84.843598
1598.000000	84.018670
1597.000000	83.319130
1596.000000	82.758894
1595.000000	82.326833
1594.000000	81.969972
1593.000000	81.628538
1592.000000	81.277950
1591.000000	80.912266
1590.000000	80.512135
1589.000000	80.057362
1588.000000	79.552158
1587.000000	79.000393
1586.000000	78.377397
1585.000000	77.654729
1584.000000	76.851868
1583.000000	76.011582
1582.000000	75.139821
1581.000000	74.232147
1580.000000	73.317614
1579.000000	72.387410
1578.000000	71.287004
1577.000000	69.775951
1576.000000	67.878425
1575.000000	66.013346
1574.000000	64.472189
1573.000000	63.178651
1572.000000	61.973982
1571.000000	60.780276
1570.000000	59.632415
1569.000000	58.673321
1568.000000	58.057789
1567.000000	57.830014
1566.000000	57.903663
1565.000000	58.152608
1564.000000	58.528836
1563.000000	59.060274
1562.000000	59.770600
1561.000000	60.640152
1560.000000	61.687649
1559.000000	62.942566
1558.000000	64.254611
1557.000000	65.365141
1556.000000	66.257856
1555.000000	67.078915
1554.000000	67.860669
1553.000000	68.542746
1552.000000	69.119035
1551.000000	69.654125
1550.000000	70.205687
1549.000000	70.788684
1548.000000	71.422807
1547.000000	72.157548
1546.000000	73.011078
1545.000000	73.918438
1544.000000	74.794237
1543.000000	75.620953
1542.000000	76.435431
1541.000000	77.248480
1540.000000	78.035797
1539.000000	78.799508
1538.000000	79.495275
1537.000000	80.073773
1536.000000	80.585981
1535.000000	81.115191
1534.000000	81.672176
1533.000000	82.212413
1532.000000	82.712907
1531.000000	83.188776
1530.000000	83.665114
1529.000000	84.136453
1528.000000	84.570569
1527.000000	84.956637
1526.000000	85.302044
1525.000000	85.613692
1524.000000	85.906328
1523.000000	86.199913
1522.000000	86.483242
1521.000000	86.730849
1520.000000	86.948203
1519.000000	87.154940
1518.000000	87.354143
1517.000000	87.527200
1516.000000	87.670883
1515.000000	87.818288
1514.000000	87.990952
1513.000000	88.192063
1512.000000	88.416080
1511.000000	88.646317
1510.000000	88.869201
1509.000000	89.064017
1508.000000	89.181230
1507.000000	89.183051
1506.000000	89.214539
1505.000000	89.365180
1504.000000	89.539071
1503.000000	89.696135
1502.000000	89.855019
1501.000000	90.013028
1500.000000	90.165281
1499.000000	90.309630
1498.000000	90.434806
1497.000000	90.541734
1496.000000	90.647979
1495.000000	90.758401
1494.000000	90.862043
1493.000000	90.958989
1492.000000	91.058969
1491.000000	91.154525
1490.000000	91.222949
1489.000000	91.269988
1488.000000	91.317793
1487.000000	91.373627
1486.000000	91.430138
1485.000000	91.447703
1484.000000	91.397091
1483.000000	91.273776
1482.000000	91.058708
1481.000000	90.738290
1480.000000	90.330160
1479.000000	89.837370
1478.000000	89.187198
1477.000000	88.288192
1476.000000	87.132201
1475.000000	85.774400
1474.000000	84.211757
1473.000000	82.455042
1472.000000	80.748815
1471.000000	79.405330
1470.000000	78.493794
1469.000000	77.926109
1468.000000	77.651317
1467.000000	77.684977
1466.000000	78.067365
1465.000000	78.784197
1464.000000	79.702045
1463.000000	80.601412
1462.000000	81.315336
1461.000000	81.785415
1460.000000	81.990073
1459.000000	81.866714
1458.000000	81.301956
1457.000000	80.379188
1456.000000	79.516337
1455.000000	78.985010
1454.000000	78.710198
1453.000000	78.574442
1452.000000	78.525297
1451.000000	78.536549
1450.000000	78.599073
1449.000000	78.726721
1448.000000	78.928052
1447.000000	79.181354
1446.000000	79.456212
1445.000000	79.758186
1444.000000	80.125725
1443.000000	80.580149
1442.000000	81.128909
1441.000000	81.787981
1440.000000	82.573234
1439.000000	83.475976
1438.000000	84.468193
1437.000000	85.487541
1436.000000	86.414610
1435.000000	87.138319
1434.000000	87.667389
1433.000000	88.098403
1432.000000	88.490775
1431.000000	88.835609
1430.000000	89.117371
1429.000000	89.361795
1428.000000	89.595646
1427.000000	89.819249
1426.000000	90.018326
1425.000000	90.181204
1424.000000	90.320298
1423.000000	90.454902
1422.000000	90.600162
1421.000000	90.760768
1420.000000	90.917218
1419.000000	91.027990
1418.000000	91.085729
1417.000000	91.139766
1416.000000	91.226697
1415.000000	91.337990
1414.000000	91.448907
1413.000000	91.551544
1412.000000	91.654818
1411.000000	91.756486
1410.000000	91.848605
1409.000000	91.945241
1408.000000	92.059623
1407.000000	92.178742
1406.000000	92.273841
1405.000000	92.329506
1404.000000	92.361678
1403.000000	92.383384
1402.000000	92.380029
1401.000000	92.316589
1400.000000	92.154795
1399.000000	91.898452
1398.000000	91.626680
1397.000000	91.444218
1396.000000	91.404188
1395.000000	91.486755
1394.000000	91.615273
1393.000000	91.724451
1392.000000	91.815162
1391.000000	91.925345
1390.000000	92.083741
1389.000000	92.291560
1388.000000	92.525857
1387.000000	92.759968
1386.000000	92.982582
1385.000000	93.194096
1384.000000	93.393470
1383.000000	93.566282
1382.000000	93.697179
1381.000000	93.784127
1380.000000	93.829363
1379.000000	93.831831
1378.000000	93.789241
1377.000000	93.683978
1376.000000	93.441518
1375.000000	92.901378
1374.000000	91.844144
1373.000000	90.101607
1372.000000	87.671188
1371.000000	84.790620
1370.000000	81.968556
1369.000000	79.887959
1368.000000	79.083484
1367.000000	79.563939
1366.000000	80.822672
1365.000000	82.199052
1364.000000	83.153413
1363.000000	83.378428
1362.000000	82.902898
1361.000000	82.124089
1360.000000	81.615138
1359.000000	81.826369
1358.000000	82.875398
1357.000000	84.512117
1356.000000	86.300144
1355.000000	87.878971
1354.000000	89.105067
1353.000000	90.017346
1352.000000	90.709304
1351.000000	91.255717
1350.000000	91.704480
1349.000000	92.079411
1348.000000	92.391719
1347.000000	92.651411
1346.000000	92.869869
1345.000000	93.055305
1344.000000	93.215977
1343.000000	93.363690
1342.000000	93.507581
1341.000000	93.641625
1340.000000	93.749033
1339.000000	93.826547
1338.000000	93.889767
1337.000000	93.954244
1336.000000	94.021070
1335.000000	94.079417
1334.000000	94.110977
1333.000000	94.080894
1332.000000	93.931834
1331.000000	93.597463
1330.000000	93.026955
1329.000000	92.204447
1328.000000	91.134605
1327.000000	89.814644
1326.000000	88.239717
1325.000000	86.479884
1324.000000	84.780131
1323.000000	83.515899
1322.000000	82.963396
1321.000000	83.099329
1320.000000	83.641149
1319.000000	84.270654
1318.000000	84.822809
1317.000000	85.291604
1316.000000	85.721613
1315.000000	86.141078
1314.000000	86.570317
1313.000000	87.050154
1312.000000	87.632506
1311.000000	88.337555
1310.000000	89.122955
1309.000000	89.896850
1308.000000	90.558061
1307.000000	91.035157
1306.000000	91.300164
1305.000000	91.349093
1304.000000	91.184065
1303.000000	90.807116
1302.000000	90.224679
1301.000000	89.468325
1300.000000	88.622124
1299.000000	87.829900
1298.000000	87.247282
1297.000000	86.957836
1296.000000	86.922930
1295.000000	87.000794
1294.000000	87.011928
1293.000000	86.803396
1292.000000	86.285133
1291.000000	85.432630
1290.000000	84.258976
1289.000000	82.801136
1288.000000	81.161566
1287.000000	79.564500
1286.000000	78.320900
1285.000000	77.686177
1284.000000	77.728593
1283.000000	78.323855
1282.000000	79.277240
1281.000000	80.439826
1280.000000	81.713198
1279.000000	82.972334
1278.000000	84.036499
1277.000000	84.746586
1276.000000	85.054053
1275.000000	85.030103
1274.000000	84.816018
1273.000000	84.582314
1272.000000	84.506387
1271.000000	84.732372
1270.000000	85.310146
1269.000000	86.167865
1268.000000	87.154003
1267.000000	88.116534
1266.000000	88.961764
1265.000000	89.667963
1264.000000	90.261467
1263.000000	90.779679
1262.000000	91.246744
1261.000000	91.669915
1260.000000	92.045333
1259.000000	92.363695
1258.000000	92.618725
1257.000000	92.811205
1256.000000	92.949141
1255.000000	93.046488
1254.000000	93.121116
1253.000000	93.193045
1252.000000	93.278345
1251.000000	93.384362
1250.000000	93.509617
1249.000000	93.646001
1248.000000	93.782098
1247.000000	93.905536
1246.000000	94.005982
1245.000000	94.079027
1244.000000	94.127054
1243.000000	94.157345
1242.000000	94.179192
1241.000000	94.201004
1240.000000	94.227481
1239.000000	94.257662
1238.000000	94.286445
1237.000000	94.306972
1236.000000	94.311860
1235.000000	94.295106
1234.000000	94.254350
1233.000000	94.192309
1232.000000	94.114599
1231.000000	94.025713
1230.000000	93.927442
1229.000000	93.816811
1228.000000	93.685021
1227.000000	93.517085
1226.000000	93.292947
1225.000000	92.992764
1224.000000	92.596028
1223.000000	92.082188
1222.000000	91.431328
1221.000000	90.623364
1220.000000	89.646574
1219.000000	88.502014
1218.000000	87.207336
1217.000000	85.799476
1216.000000	84.336259
1215.000000	82.897482
1214.000000	81.581304
1213.000000	80.495108
1212.000000	79.738330
1211.000000	79.373082
1210.000000	79.384035
1209.000000	79.678375
1208.000000	80.121150
1207.000000	80.568804
1206.000000	80.896795
1205.000000	81.016369
1204.000000	80.882089
1203.000000	80.489630
1202.000000	79.875894
1201.000000	79.130306
1200.000000	78.399491
1199.000000	77.858893
1198.000000	77.652793
1197.000000	77.842583
1196.000000	78.402421
1195.000000	79.242071
1194.000000	80.245757
1193.000000	81.313401
1192.000000	82.376092
1191.000000	83.392575
1190.000000	84.336626
1189.000000	85.195689
1188.000000	85.973168
1187.000000	86.681372
1186.000000	87.332289
1185.000000	87.937542
1184.000000	88.508358
1183.000000	89.045310
1182.000000	89.535369
1181.000000	89.956793
1180.000000	90.291524
1179.000000	90.534004
1178.000000	90.689243
1177.000000	90.772116
1176.000000	90.801000
1175.000000	90.792487
1174.000000	90.759342
1173.000000	90.703362
1172.000000	90.612226
1171.000000	90.452927
1170.000000	90.173431
1169.000000	89.716457
1168.000000	89.034276
1167.000000	88.113568
1166.000000	86.999384
1165.000000	85.807328
1164.000000	84.708683
1163.000000	83.883858
1162.000000	83.457865
1161.000000	83.464111
1160.000000	83.850971
1159.000000	84.504775
1158.000000	85.289638
1157.000000	86.081280
1156.000000	86.788467
1155.000000	87.357406
1154.000000	87.765236
1153.000000	88.015598
1152.000000	88.131057
1151.000000	88.140202
1150.000000	88.063836
1149.000000	87.915051
1148.000000	87.690022
1147.000000	87.361673
1146.000000	86.879964
1145.000000	86.172571
1144.000000	85.163317
1143.000000	83.778922
1142.000000	81.973595
1141.000000	79.773345
1140.000000	77.302339
1139.000000	74.767921
1138.000000	72.377628
1137.000000	70.247506
1136.000000	68.366034
1135.000000	66.640801
1134.000000	64.997129
1133.000000	63.505822
1132.000000	62.435499
1131.000000	62.142601
1130.000000	62.883558
1129.000000	64.647457
1128.000000	67.147928
1127.000000	69.937056
1126.000000	72.549806
1125.000000	74.621711
1124.000000	75.926014
1123.000000	76.347746
1122.000000	75.858094
1121.000000	74.515329
1120.000000	72.432084
1119.000000	69.770860
1118.000000	66.799117
1117.000000	63.966617
1116.000000	61.882755
1115.000000	61.104330
1114.000000	61.840064
1113.000000	63.822595
1112.000000	66.443584
1111.000000	68.995461
1110.000000	70.930896
1109.000000	72.049973
1108.000000	72.539526
1107.000000	72.822504
1106.000000	73.286753
1105.000000	74.077387
1104.000000	75.075073
1103.000000	76.004804
1102.000000	76.544679
1101.000000	76.434461
1100.000000	75.588209
1099.000000	74.201488
1098.000000	72.762122
1097.000000	71.880143
1096.000000	71.999663
1095.000000	73.176572
1094.000000	75.079951
1093.000000	77.214695
1092.000000	79.189728
1091.000000	80.825442
1090.000000	82.111209
1089.000000	83.114797
1088.000000	83.917073
1087.000000	84.583794
1086.000000	85.161373
1085.000000	85.679701
1084.000000	86.153506
1083.000000	86.589104
1082.000000	86.984055
1081.000000	87.333860
1080.000000	87.636069
1079.000000	87.885087
1078.000000	88.074569
1077.000000	88.194641
1076.000000	88.230164
1075.000000	88.157993
1074.000000	87.939434
1073.000000	87.530496
1072.000000	86.863562
1071.000000	85.833934
1070.000000	84.294042
1069.000000	82.040240
1068.000000	78.865441
1067.000000	74.664619
1066.000000	69.613400
1065.000000	64.301992
1064.000000	59.629886
1063.000000	56.396738
1062.000000	54.800550
1061.000000	54.250165
1060.000000	53.717688
1059.000000	52.443039
1058.000000	50.446299
1057.000000	48.543010
1056.000000	47.827208
1055.000000	48.952898
1054.000000	51.796560
1053.000000	55.641386
1052.000000	59.672940
1051.000000	63.353701
1050.000000	66.472322
1049.000000	69.039436
1048.000000	71.165311
1047.000000	72.974199
1046.000000	74.550159
1045.000000	75.935370
1044.000000	77.148068
1043.000000	78.204578
1042.000000	79.121996
1041.000000	79.907606
1040.000000	80.572426
1039.000000	81.129158
1038.000000	81.588430
1037.000000	81.959354
1036.000000	82.253248
1035.000000	82.489677
1034.000000	82.687371
1033.000000	82.860136
1032.000000	83.021461
1031.000000	83.183153
1030.000000	83.350397
1029.000000	83.518194
1028.000000	83.675849
1027.000000	83.810679
1026.000000	83.905037
1025.000000	83.940714
1024.000000	83.906946
1023.000000	83.803481
1022.000000	83.637371
1021.000000	83.413777
1020.000000	83.135468
1019.000000	82.795736
1018.000000	82.367351
1017.000000	81.804317
1016.000000	81.050243
1015.000000	80.064285
1014.000000	78.850350
1013.000000	77.484963
1012.000000	76.123859
1011.000000	74.953709
1010.000000	74.096357
1009.000000	73.529537
1008.000000	73.104265
1007.000000	72.665604
1006.000000	72.214361
1005.000000	71.962608
1004.000000	72.212480
1003.000000	73.130863
1002.000000	74.598521
1001.000000	76.281851
1000.000000	77.826526
999.000000	79.002561
998.000000	79.729123
997.000000	80.030154
996.000000	79.996813
995.000000	79.770763
994.000000	79.530636
993.000000	79.461261
992.000000	79.704583
991.000000	80.300868
990.000000	81.162604
989.000000	82.124019
988.000000	83.034504
987.000000	83.814682
986.000000	84.453296
985.000000	84.976879
984.000000	85.424363
983.000000	85.831303
982.000000	86.219752
981.000000	86.595648
980.000000	86.955358
979.000000	87.293521
978.000000	87.600382
977.000000	87.863701
976.000000	88.076121
975.000000	88.239659
974.000000	88.364492
973.000000	88.464128
972.000000	88.555388
971.000000	88.656512
970.000000	88.780393
969.000000	88.930716
968.000000	89.103521
967.000000	89.289943
966.000000	89.476558
965.000000	89.647428
964.000000	89.790014
963.000000	89.898861
962.000000	89.975195
961.000000	90.025756
960.000000	90.062605
959.000000	90.101439
958.000000	90.156412
957.000000	90.236226
956.000000	90.344158
955.000000	90.478335
954.000000	90.630483
953.000000	90.786728
952.000000	90.931995
951.000000	91.054168
950.000000	91.145459
949.000000	91.203753
948.000000	91.234718
947.000000	91.251689
946.000000	91.271448
945.000000	91.308949
944.000000	91.374716
943.000000	91.473205
942.000000	91.600661
941.000000	91.745056
940.000000	91.889526
939.000000	92.016873
938.000000	92.112921
937.000000	92.169566
936.000000	92.188090
935.000000	92.179884
934.000000	92.163178
933.000000	92.157386
932.000000	92.178626
931.000000	92.237128
930.000000	92.334475
929.000000	92.461601
928.000000	92.600580
927.000000	92.730430
926.000000	92.833151
925.000000	92.896891
924.000000	92.917675
923.000000	92.901404
922.000000	92.864031
921.000000	92.827624
920.000000	92.813666
919.000000	92.837401
918.000000	92.904433
917.000000	93.008970
916.000000	93.134495
915.000000	93.258219
914.000000	93.357982
913.000000	93.417977
912.000000	93.430106
911.000000	93.395302
910.000000	93.322104
909.000000	93.219899
908.000000	93.090292
907.000000	92.920304
906.000000	92.684550
905.000000	92.349418
904.000000	91.884972
903.000000	91.295032
902.000000	90.652028
901.000000	90.098916
900.000000	89.793949
899.000000	89.823481
898.000000	90.149727
897.000000	90.646217
896.000000	91.178202
895.000000	91.662984
894.000000	92.078469
893.000000	92.433568
892.000000	92.742404
891.000000	93.012395
890.000000	93.242808
889.000000	93.426637
888.000000	93.556034
887.000000	93.622477
886.000000	93.612568
885.000000	93.505782
884.000000	93.284250
883.000000	92.960870
882.000000	92.591691
881.000000	92.249070
880.000000	91.968545
879.000000	91.724426
878.000000	91.470116
877.000000	91.209222
876.000000	91.023923
875.000000	91.019956
874.000000	91.241550
873.000000	91.634449
872.000000	92.086613
871.000000	92.499199
870.000000	92.827200
869.000000	93.074925
868.000000	93.268010
867.000000	93.432558
866.000000	93.586557
865.000000	93.738102
864.000000	93.884746
863.000000	94.017435
862.000000	94.126837
861.000000	94.206633
860.000000	94.254014
859.000000	94.269185
858.000000	94.257976
857.000000	94.232921
856.000000	94.210223
855.000000	94.205542
854.000000	94.230540
853.000000	94.290233
852.000000	94.380724
851.000000	94.489011
850.000000	94.595826
849.000000	94.680082
848.000000	94.724426
847.000000	94.721691
846.000000	94.678492
845.000000	94.612524
844.000000	94.546143
843.000000	94.501706
842.000000	94.498152
841.000000	94.545577
840.000000	94.639891
839.000000	94.762875
838.000000	94.888076
837.000000	94.987888
836.000000	95.039545
835.000000	95.032274
834.000000	94.972968
833.000000	94.883735
832.000000	94.792808
831.000000	94.727556
830.000000	94.711190
829.000000	94.757185
828.000000	94.861953
827.000000	95.004227
826.000000	95.153485
825.000000	95.278762
824.000000	95.353653
823.000000	95.363033
822.000000	95.311687
821.000000	95.224068
820.000000	95.132901
819.000000	95.067113
818.000000	95.045772
817.000000	95.075210
816.000000	95.146539
815.000000	95.237468
814.000000	95.319196
813.000000	95.362535
812.000000	95.342867
811.000000	95.246954
810.000000	95.079156
809.000000	94.857733
808.000000	94.601120
807.000000	94.320451
806.000000	94.017785
805.000000	93.682657
804.000000	93.287651
803.000000	92.788552
802.000000	92.137934
801.000000	91.294389
800.000000	90.227498
799.000000	88.926676
798.000000	87.406717
797.000000	85.710331
796.000000	83.899872
795.000000	82.050202
794.000000	80.244125
793.000000	78.569984
792.000000	77.118408
791.000000	75.975113
790.000000	75.209452
789.000000	74.856455
788.000000	74.909571
787.000000	75.315707
786.000000	75.986888
785.000000	76.822864
784.000000	77.723965
783.000000	78.599564
782.000000	79.371771
781.000000	79.983138
780.000000	80.400227
779.000000	80.616151
778.000000	80.651873
777.000000	80.548805
776.000000	80.349543
775.000000	80.082308
774.000000	79.769172
773.000000	79.447847
772.000000	79.186257
771.000000	79.072882
770.000000	79.189844
769.000000	79.579805
768.000000	80.226309
767.000000	81.060927
766.000000	81.996665
765.000000	82.964293
764.000000	83.922654
763.000000	84.851748
762.000000	85.743307
761.000000	86.592381
760.000000	87.386419
759.000000	88.102724
758.000000	88.719869
757.000000	89.228261
756.000000	89.630899
755.000000	89.942987
754.000000	90.197336
753.000000	90.439314
752.000000	90.707990
751.000000	91.022353
750.000000	91.382063
749.000000	91.770614
748.000000	92.152174
747.000000	92.477915
746.000000	92.708636
745.000000	92.830981
744.000000	92.854181
743.000000	92.804021
742.000000	92.724858
741.000000	92.672900
740.000000	92.692738
739.000000	92.799796
738.000000	92.982557
737.000000	93.207846
736.000000	93.419626
735.000000	93.551072
734.000000	93.555987
733.000000	93.428407
732.000000	93.193738
731.000000	92.896659
730.000000	92.599646
729.000000	92.369040
728.000000	92.246236
727.000000	92.229891
726.000000	92.283085
725.000000	92.350667
724.000000	92.365121
723.000000	92.249010
722.000000	91.927632
721.000000	91.347538
720.000000	90.494093
719.000000	89.409703
718.000000	88.199891
717.000000	87.012150
716.000000	85.995408
715.000000	85.265201
714.000000	84.889945
713.000000	84.881271
712.000000	85.182216
711.000000	85.680535
710.000000	86.260666
709.000000	86.846666
708.000000	87.403077
707.000000	87.922802
706.000000	88.424993
705.000000	88.948436
704.000000	89.520858
703.000000	90.133106
702.000000	90.754738
701.000000	91.355202
700.000000	91.894771
699.000000	92.326370
698.000000	92.626434
697.000000	92.816431
696.000000	92.939793
695.000000	93.029163
694.000000	93.118545
693.000000	93.252673
692.000000	93.452159
691.000000	93.692832
690.000000	93.935326
689.000000	94.159491
688.000000	94.348175
687.000000	94.467080
686.000000	94.504220
685.000000	94.496224
684.000000	94.482158
683.000000	94.468130
682.000000	94.463244
681.000000	94.503780
680.000000	94.598022
679.000000	94.697815
678.000000	94.763893
677.000000	94.795599
676.000000	94.796706
675.000000	94.763899
674.000000	94.724009
673.000000	94.765026
672.000000	95.004456
671.000000	95.504177
670.000000	96.201187
669.000000	96.793640
668.000000	96.760842
667.000000	96.133310
666.000000	95.495732
665.000000	95.053284
664.000000	94.761774
663.000000	94.600706
662.000000	94.551041
661.000000	94.577733
660.000000	94.637129
659.000000	94.719412
658.000000	94.821523
657.000000	94.901076
656.000000	94.916570
655.000000	94.885721
654.000000	94.830545
653.000000	94.734825
652.000000	94.608800
651.000000	94.516485
650.000000	94.495483
649.000000	94.510074
648.000000	94.526083
647.000000	94.558774
646.000000	94.606835
645.000000	94.618033
644.000000	94.553145
643.000000	94.427978
642.000000	94.269788
641.000000	94.079466
640.000000	93.873013
639.000000	93.708625
638.000000	93.627202
637.000000	93.609739
636.000000	93.623587
635.000000	93.657208
634.000000	93.686050
633.000000	93.658089
632.000000	93.543945
631.000000	93.365501
630.000000	93.153399
629.000000	92.915785
628.000000	92.673520
627.000000	92.476744
626.000000	92.350728
625.000000	92.270161
624.000000	92.204166
623.000000	92.146313
622.000000	92.081677
621.000000	91.969525
620.000000	91.785189
619.000000	91.538592
618.000000	91.236276
617.000000	90.867470
616.000000	90.451402
615.000000	90.048721
614.000000	89.693955
613.000000	89.359304
612.000000	89.006130
611.000000	88.625715
610.000000	88.205888
609.000000	87.703764
608.000000	87.090576
607.000000	86.382808
606.000000	85.595207
605.000000	84.712754
604.000000	83.734721
603.000000	82.701073
602.000000	81.638025
601.000000	80.524042
600.000000	79.345321
599.000000	78.139344
598.000000	76.937982
597.000000	75.719462
596.000000	74.465955
595.000000	73.213808
594.000000	71.998177
593.000000	70.801964
592.000000	69.619948
591.000000	68.512052
590.000000	67.531978
589.000000	66.659477
588.000000	65.856382
587.000000	65.120069
586.000000	64.422365
585.000000	63.670099
584.000000	62.796468
583.000000	61.835652
582.000000	60.857963
581.000000	59.910273
580.000000	59.076350
579.000000	58.517124
578.000000	58.355388
577.000000	58.589557
576.000000	59.156594
575.000000	59.981449
574.000000	60.931009
573.000000	61.817893
572.000000	62.534484
571.000000	63.135932
570.000000	63.756364
569.000000	64.489008
568.000000	65.366915
567.000000	66.374353
566.000000	67.422286
565.000000	68.384069
564.000000	69.203261
563.000000	69.922328
562.000000	70.589574
561.000000	71.202687
560.000000	71.763637
559.000000	72.309636
558.000000	72.851835
557.000000	73.348572
556.000000	73.772913
555.000000	74.155433
554.000000	74.526649
553.000000	74.879294
552.000000	75.220608
551.000000	75.602066
550.000000	76.056861
549.000000	76.555963
548.000000	77.061029
547.000000	77.566205
546.000000	78.056375
545.000000	78.481427
544.000000	78.812185
543.000000	79.074729
542.000000	79.302543
541.000000	79.500910
540.000000	79.687848
539.000000	79.916180
538.000000	80.217278
537.000000	80.562960
536.000000	80.912196
535.000000	81.253626
534.000000	81.571556
533.000000	81.824432
532.000000	81.980739
531.000000	82.052107
530.000000	82.067332
529.000000	82.037267
528.000000	81.963286
527.000000	81.859873
526.000000	81.729608
525.000000	81.545930
524.000000	81.294334
523.000000	80.994502
522.000000	80.672850
521.000000	80.339614
520.000000	79.999794
519.000000	79.636256
518.000000	79.148930
517.000000	78.371114
516.000000	77.198274
515.000000	75.684083
514.000000	74.002603
513.000000	72.373318
512.000000	71.034049
511.000000	70.207783
510.000000	70.004568
509.000000	70.375549
508.000000	71.196137
507.000000	72.333151
506.000000	73.630892
505.000000	74.933061
504.000000	76.159330
503.000000	77.308558
502.000000	78.368574
501.000000	79.294585
500.000000	80.084601
499.000000	80.805780
498.000000	81.511292
497.000000	82.187945
496.000000	82.799454
495.000000	83.334330
494.000000	83.796595
493.000000	84.175400
492.000000	84.466822
491.000000	84.702209
490.000000	84.916484
489.000000	85.125763
488.000000	85.345485
487.000000	85.607147
486.000000	85.926269
485.000000	86.273252
484.000000	86.604715
483.000000	86.901255
482.000000	87.147156
481.000000	87.304314
480.000000	87.351793
479.000000	87.323300
478.000000	87.263302
477.000000	87.188162
476.000000	87.111844
475.000000	87.055476
474.000000	86.989797
473.000000	86.809736
472.000000	86.429420
471.000000	85.885490
470.000000	85.271072
469.000000	84.651706
468.000000	84.101359
467.000000	83.706487
466.000000	83.448943
465.000000	83.169949
464.000000	82.711775
463.000000	82.075687
462.000000	81.438420
461.000000	81.038863
460.000000	81.092124
459.000000	81.718345
458.000000	82.807188
457.000000	84.001662
456.000000	84.987838
455.000000	85.718908
454.000000	86.271690
453.000000	86.682116
452.000000	86.986081
451.000000	87.277675
450.000000	87.595061
449.000000	87.841551
448.000000	87.876534
447.000000	87.630599
446.000000	87.113833
445.000000	86.387718
444.000000	85.594372
443.000000	84.960363
442.000000	84.662908
441.000000	84.710139
440.000000	85.029790
439.000000	85.569437
438.000000	86.250760
437.000000	86.926032
436.000000	87.460021
435.000000	87.818806
434.000000	88.023376
433.000000	88.077169
432.000000	87.994225
431.000000	87.838083
430.000000	87.674553
429.000000	87.515902
428.000000	87.381248
427.000000	87.346292
426.000000	87.445094
425.000000	87.580010
424.000000	87.625843
423.000000	87.583672
422.000000	87.518221
421.000000	87.414495
420.000000	87.211884
419.000000	86.965532
418.000000	86.809198
417.000000	86.725852
416.000000	86.647492
415.000000	86.622263
414.000000	86.701610
413.000000	86.832694
412.000000	86.948167
411.000000	87.064258
410.000000	87.206508
409.000000	87.300017
408.000000	87.280799
407.000000	87.215219
406.000000	87.177170
405.000000	87.120564
404.000000	87.035636
403.000000	87.052679
402.000000	87.276682
401.000000	87.592714
400.000000	87.839116
