PE IR       SUBTECH     SPECTRUM    ASCII       PEDS        4.00        
   -1
23ms038-cis.asc
24/10/21
15:45:43.00
24/10/21
15:45:43.00
Administrator
Sample 1318 By Administrator Date Monday, October 21 2024
400.000000
#HDR
-1
-1
#GR
cm-1
%T
1.0
0.0
4000.000000
-1.000000
3601
8
85.456860
6.426675
#DATA
4000.000000	57.617481
3999.000000	57.603785
3998.000000	57.592684
3997.000000	57.584229
3996.000000	57.578442
3995.000000	57.575139
3994.000000	57.573835
3993.000000	57.573950
3992.000000	57.575103
3991.000000	57.577357
3990.000000	57.581138
3989.000000	57.587102
3988.000000	57.596323
3987.000000	57.610175
3986.000000	57.629769
3985.000000	57.655241
3984.000000	57.685492
3983.000000	57.718758
3982.000000	57.753492
3981.000000	57.789143
3980.000000	57.826114
3979.000000	57.864957
3978.000000	57.905791
3977.000000	57.948062
3976.000000	57.990803
3975.000000	58.033122
3974.000000	58.074530
3973.000000	58.114793
3972.000000	58.153534
3971.000000	58.190439
3970.000000	58.225562
3969.000000	58.259312
3968.000000	58.292716
3967.000000	58.327498
3966.000000	58.365574
3965.000000	58.408209
3964.000000	58.455303
3963.000000	58.505550
3962.000000	58.557634
3961.000000	58.610944
3960.000000	58.665303
3959.000000	58.720752
3958.000000	58.777156
3957.000000	58.833887
3956.000000	58.890329
3955.000000	58.946435
3954.000000	59.002537
3953.000000	59.058520
3952.000000	59.113169
3951.000000	59.164561
3950.000000	59.210655
3949.000000	59.250661
3948.000000	59.286910
3947.000000	59.323604
3946.000000	59.363319
3945.000000	59.405108
3944.000000	59.445680
3943.000000	59.482399
3942.000000	59.516042
3941.000000	59.550471
3940.000000	59.588983
3939.000000	59.632263
3938.000000	59.678780
3937.000000	59.726299
3936.000000	59.773061
3935.000000	59.817768
3934.000000	59.859462
3933.000000	59.896966
3932.000000	59.929268
3931.000000	59.957126
3930.000000	59.982824
3929.000000	60.009092
3928.000000	60.036770
3927.000000	60.063939
3926.000000	60.088052
3925.000000	60.107515
3924.000000	60.122046
3923.000000	60.133296
3922.000000	60.144440
3921.000000	60.157857
3920.000000	60.172968
3919.000000	60.186788
3918.000000	60.197927
3917.000000	60.208492
3916.000000	60.221330
3915.000000	60.237468
3914.000000	60.257109
3913.000000	60.280399
3912.000000	60.306410
3911.000000	60.333662
3910.000000	60.362442
3909.000000	60.394604
3908.000000	60.430984
3907.000000	60.468390
3906.000000	60.499838
3905.000000	60.519721
3904.000000	60.528565
3903.000000	60.534281
3902.000000	60.546285
3901.000000	60.568234
3900.000000	60.598255
3899.000000	60.633478
3898.000000	60.672920
3897.000000	60.718731
3896.000000	60.772626
3895.000000	60.833137
3894.000000	60.895263
3893.000000	60.951813
3892.000000	60.998184
3891.000000	61.038343
3890.000000	61.080267
3889.000000	61.126401
3888.000000	61.172635
3887.000000	61.214986
3886.000000	61.254047
3885.000000	61.293264
3884.000000	61.334250
3883.000000	61.375614
3882.000000	61.411820
3881.000000	61.436252
3880.000000	61.449135
3879.000000	61.459467
3878.000000	61.475386
3877.000000	61.496300
3876.000000	61.516487
3875.000000	61.533719
3874.000000	61.550048
3873.000000	61.566461
3872.000000	61.580228
3871.000000	61.590586
3870.000000	61.603165
3869.000000	61.624746
3868.000000	61.656606
3867.000000	61.694698
3866.000000	61.734521
3865.000000	61.771579
3864.000000	61.800699
3863.000000	61.822715
3862.000000	61.845398
3861.000000	61.873228
3860.000000	61.907420
3859.000000	61.951283
3858.000000	62.008616
3857.000000	62.076470
3856.000000	62.140384
3855.000000	62.183134
3854.000000	62.194397
3853.000000	62.182889
3852.000000	62.174849
3851.000000	62.185760
3850.000000	62.212095
3849.000000	62.245792
3848.000000	62.282608
3847.000000	62.321973
3846.000000	62.364527
3845.000000	62.407901
3844.000000	62.447755
3843.000000	62.483835
3842.000000	62.518633
3841.000000	62.552483
3840.000000	62.583900
3839.000000	62.610524
3838.000000	62.633101
3837.000000	62.657528
3836.000000	62.688271
3835.000000	62.723491
3834.000000	62.757061
3833.000000	62.786300
3832.000000	62.815233
3831.000000	62.848497
3830.000000	62.886755
3829.000000	62.927338
3828.000000	62.966449
3827.000000	63.003354
3826.000000	63.040548
3825.000000	63.078954
3824.000000	63.116736
3823.000000	63.152739
3822.000000	63.186993
3821.000000	63.220307
3820.000000	63.254879
3819.000000	63.291915
3818.000000	63.327525
3817.000000	63.356919
3816.000000	63.381626
3815.000000	63.406421
3814.000000	63.433404
3813.000000	63.462334
3812.000000	63.492896
3811.000000	63.524832
3810.000000	63.558634
3809.000000	63.594502
3808.000000	63.631997
3807.000000	63.671560
3806.000000	63.714157
3805.000000	63.759284
3804.000000	63.803702
3803.000000	63.841994
3802.000000	63.871776
3801.000000	63.896200
3800.000000	63.920025
3799.000000	63.945942
3798.000000	63.971679
3797.000000	63.994274
3796.000000	64.015357
3795.000000	64.040368
3794.000000	64.072394
3793.000000	64.109938
3792.000000	64.148820
3791.000000	64.185778
3790.000000	64.220761
3789.000000	64.255588
3788.000000	64.290877
3787.000000	64.325075
3786.000000	64.356299
3785.000000	64.384292
3784.000000	64.410331
3783.000000	64.435042
3782.000000	64.458785
3781.000000	64.482431
3780.000000	64.506322
3779.000000	64.529817
3778.000000	64.553543
3777.000000	64.578863
3776.000000	64.606662
3775.000000	64.637662
3774.000000	64.671915
3773.000000	64.708024
3772.000000	64.744476
3771.000000	64.782149
3770.000000	64.822095
3769.000000	64.863962
3768.000000	64.907493
3767.000000	64.952101
3766.000000	64.996747
3765.000000	65.041271
3764.000000	65.085645
3763.000000	65.129651
3762.000000	65.174297
3761.000000	65.221493
3760.000000	65.270134
3759.000000	65.315229
3758.000000	65.357150
3757.000000	65.401084
3756.000000	65.448108
3755.000000	65.495338
3754.000000	65.541036
3753.000000	65.587287
3752.000000	65.633594
3751.000000	65.674483
3750.000000	65.712665
3749.000000	65.758067
3748.000000	65.812238
3747.000000	65.866702
3746.000000	65.916185
3745.000000	65.965518
3744.000000	66.019377
3743.000000	66.075194
3742.000000	66.129253
3741.000000	66.179369
3740.000000	66.224786
3739.000000	66.266369
3738.000000	66.310213
3737.000000	66.363711
3736.000000	66.423071
3735.000000	66.475322
3734.000000	66.514487
3733.000000	66.549838
3732.000000	66.591935
3731.000000	66.640665
3730.000000	66.689833
3729.000000	66.733641
3728.000000	66.771019
3727.000000	66.805170
3726.000000	66.837993
3725.000000	66.868018
3724.000000	66.894859
3723.000000	66.920558
3722.000000	66.945596
3721.000000	66.969515
3720.000000	66.993265
3719.000000	67.018286
3718.000000	67.047603
3717.000000	67.083712
3716.000000	67.125277
3715.000000	67.170167
3714.000000	67.219892
3713.000000	67.277542
3712.000000	67.342118
3711.000000	67.408428
3710.000000	67.474321
3709.000000	67.538960
3708.000000	67.600201
3707.000000	67.658038
3706.000000	67.713336
3705.000000	67.767523
3704.000000	67.821412
3703.000000	67.875833
3702.000000	67.929618
3701.000000	67.980536
3700.000000	68.027785
3699.000000	68.071670
3698.000000	68.113238
3697.000000	68.154289
3696.000000	68.194734
3695.000000	68.233008
3694.000000	68.270300
3693.000000	68.309517
3692.000000	68.351685
3691.000000	68.393673
3690.000000	68.432298
3689.000000	68.469040
3688.000000	68.508729
3687.000000	68.551510
3686.000000	68.591642
3685.000000	68.625272
3684.000000	68.653233
3683.000000	68.679282
3682.000000	68.706963
3681.000000	68.738431
3680.000000	68.772816
3679.000000	68.806224
3678.000000	68.834162
3677.000000	68.860956
3676.000000	68.894956
3675.000000	68.934272
3674.000000	68.969790
3673.000000	68.995848
3672.000000	69.014162
3671.000000	69.035188
3670.000000	69.066284
3669.000000	69.102711
3668.000000	69.138502
3667.000000	69.171639
3666.000000	69.200111
3665.000000	69.224444
3664.000000	69.247657
3663.000000	69.272045
3662.000000	69.298267
3661.000000	69.324653
3660.000000	69.348359
3659.000000	69.368793
3658.000000	69.388834
3657.000000	69.412756
3656.000000	69.440138
3655.000000	69.465553
3654.000000	69.483796
3653.000000	69.495072
3652.000000	69.506618
3651.000000	69.526989
3650.000000	69.555696
3649.000000	69.585533
3648.000000	69.617509
3647.000000	69.654667
3646.000000	69.692500
3645.000000	69.725688
3644.000000	69.755339
3643.000000	69.786004
3642.000000	69.820107
3641.000000	69.855309
3640.000000	69.887888
3639.000000	69.917174
3638.000000	69.943480
3637.000000	69.965934
3636.000000	69.983231
3635.000000	69.996557
3634.000000	70.006497
3633.000000	70.009267
3632.000000	70.000892
3631.000000	69.985233
3630.000000	69.974499
3629.000000	69.973550
3628.000000	69.973032
3627.000000	69.963568
3626.000000	69.940749
3625.000000	69.902742
3624.000000	69.851155
3623.000000	69.790284
3622.000000	69.724291
3621.000000	69.656469
3620.000000	69.587018
3619.000000	69.512511
3618.000000	69.430640
3617.000000	69.341470
3616.000000	69.244081
3615.000000	69.139492
3614.000000	69.031210
3613.000000	68.921406
3612.000000	68.810696
3611.000000	68.700094
3610.000000	68.592323
3609.000000	68.490529
3608.000000	68.394056
3607.000000	68.299218
3606.000000	68.203271
3605.000000	68.105192
3604.000000	68.005038
3603.000000	67.904077
3602.000000	67.803313
3601.000000	67.704048
3600.000000	67.607440
3599.000000	67.512861
3598.000000	67.419638
3597.000000	67.327603
3596.000000	67.236797
3595.000000	67.147652
3594.000000	67.059912
3593.000000	66.971572
3592.000000	66.881001
3591.000000	66.787644
3590.000000	66.694430
3589.000000	66.607267
3588.000000	66.529602
3587.000000	66.459041
3586.000000	66.390866
3585.000000	66.320938
3584.000000	66.246216
3583.000000	66.166169
3582.000000	66.082572
3581.000000	65.997991
3580.000000	65.914035
3579.000000	65.830538
3578.000000	65.746223
3577.000000	65.659598
3576.000000	65.569893
3575.000000	65.476555
3574.000000	65.379286
3573.000000	65.277026
3572.000000	65.168855
3571.000000	65.053364
3570.000000	64.929335
3569.000000	64.798837
3568.000000	64.666699
3567.000000	64.535740
3566.000000	64.404818
3565.000000	64.270932
3564.000000	64.130569
3563.000000	63.982078
3562.000000	63.825567
3561.000000	63.661549
3560.000000	63.490650
3559.000000	63.313631
3558.000000	63.131301
3557.000000	62.943913
3556.000000	62.750953
3555.000000	62.550728
3554.000000	62.341496
3553.000000	62.123129
3552.000000	61.897834
3551.000000	61.667667
3550.000000	61.431325
3549.000000	61.185708
3548.000000	60.929504
3547.000000	60.664047
3546.000000	60.391353
3545.000000	60.112836
3544.000000	59.828942
3543.000000	59.538714
3542.000000	59.239920
3541.000000	58.930157
3540.000000	58.607946
3539.000000	58.271757
3538.000000	57.919900
3537.000000	57.552258
3536.000000	57.170994
3535.000000	56.778282
3534.000000	56.373366
3533.000000	55.953808
3532.000000	55.517851
3531.000000	55.064227
3530.000000	54.590662
3529.000000	54.095576
3528.000000	53.580116
3527.000000	53.046121
3526.000000	52.492711
3525.000000	51.917887
3524.000000	51.322881
3523.000000	50.711624
3522.000000	50.086500
3521.000000	49.446087
3520.000000	48.787523
3519.000000	48.109049
3518.000000	47.410571
3517.000000	46.693642
3516.000000	45.960982
3515.000000	45.215429
3514.000000	44.459050
3513.000000	43.692476
3512.000000	42.913910
3511.000000	42.119617
3510.000000	41.308536
3509.000000	40.487473
3508.000000	39.666426
3507.000000	38.846873
3506.000000	38.019060
3505.000000	37.173262
3504.000000	36.311317
3503.000000	35.445044
3502.000000	34.586091
3501.000000	33.739117
3500.000000	32.901837
3499.000000	32.068028
3498.000000	31.232914
3497.000000	30.397919
3496.000000	29.569572
3495.000000	28.753304
3494.000000	27.951029
3493.000000	27.164887
3492.000000	26.398039
3491.000000	25.650520
3490.000000	24.919399
3489.000000	24.205323
3488.000000	23.515518
3487.000000	22.857721
3486.000000	22.233866
3485.000000	21.640685
3484.000000	21.071553
3483.000000	20.518482
3482.000000	19.977989
3481.000000	19.456395
3480.000000	18.964660
3479.000000	18.505501
3478.000000	18.070438
3477.000000	17.649388
3476.000000	17.237693
3475.000000	16.834122
3474.000000	16.437624
3473.000000	16.048777
3472.000000	15.670835
3471.000000	15.308218
3470.000000	14.968514
3469.000000	14.664575
3468.000000	14.409329
3467.000000	14.207200
3466.000000	14.053715
3465.000000	13.943584
3464.000000	13.874174
3463.000000	13.843578
3462.000000	13.852434
3461.000000	13.906275
3460.000000	14.010727
3459.000000	14.162975
3458.000000	14.352371
3457.000000	14.568910
3456.000000	14.804867
3455.000000	15.050317
3454.000000	15.293448
3453.000000	15.524997
3452.000000	15.737493
3451.000000	15.920619
3450.000000	16.061848
3449.000000	16.152690
3448.000000	16.190216
3447.000000	16.172905
3446.000000	16.101058
3445.000000	15.978690
3444.000000	15.811662
3443.000000	15.605190
3442.000000	15.365308
3441.000000	15.102783
3440.000000	14.830454
3439.000000	14.558693
3438.000000	14.298219
3437.000000	14.064071
3436.000000	13.870944
3435.000000	13.724899
3434.000000	13.623452
3433.000000	13.562557
3432.000000	13.541530
3431.000000	13.562423
3430.000000	13.630593
3429.000000	13.754934
3428.000000	13.940890
3427.000000	14.187220
3426.000000	14.490506
3425.000000	14.851145
3424.000000	15.272373
3423.000000	15.753598
3422.000000	16.292956
3421.000000	16.890856
3420.000000	17.546139
3419.000000	18.252025
3418.000000	18.997686
3417.000000	19.775018
3416.000000	20.578364
3415.000000	21.400783
3414.000000	22.236247
3413.000000	23.081488
3412.000000	23.932703
3411.000000	24.782150
3410.000000	25.621794
3409.000000	26.448233
3408.000000	27.259820
3407.000000	28.050940
3406.000000	28.813918
3405.000000	29.544700
3404.000000	30.243288
3403.000000	30.912090
3402.000000	31.557049
3401.000000	32.187667
3400.000000	32.810653
3399.000000	33.423240
3398.000000	34.016766
3397.000000	34.585419
3396.000000	35.128343
3395.000000	35.647004
3394.000000	36.144670
3393.000000	36.628258
3392.000000	37.105810
3391.000000	37.580481
3390.000000	38.050309
3389.000000	38.512275
3388.000000	38.964860
3387.000000	39.407779
3386.000000	39.841877
3385.000000	40.269331
3384.000000	40.691267
3383.000000	41.106673
3382.000000	41.515245
3381.000000	41.919759
3380.000000	42.323548
3379.000000	42.727136
3378.000000	43.129628
3377.000000	43.531719
3376.000000	43.934298
3375.000000	44.335282
3374.000000	44.730502
3373.000000	45.117396
3372.000000	45.496395
3371.000000	45.869741
3370.000000	46.241181
3369.000000	46.615152
3368.000000	46.993793
3367.000000	47.375034
3366.000000	47.754835
3365.000000	48.130364
3364.000000	48.499880
3363.000000	48.861772
3362.000000	49.216078
3361.000000	49.565487
3360.000000	49.912719
3359.000000	50.257845
3358.000000	50.599695
3357.000000	50.938561
3356.000000	51.274834
3355.000000	51.606659
3354.000000	51.931373
3353.000000	52.248823
3352.000000	52.561455
3351.000000	52.871306
3350.000000	53.178521
3349.000000	53.482125
3348.000000	53.780609
3347.000000	54.072495
3346.000000	54.357548
3345.000000	54.637269
3344.000000	54.912841
3343.000000	55.183014
3342.000000	55.445431
3341.000000	55.699123
3340.000000	55.944853
3339.000000	56.183752
3338.000000	56.416358
3337.000000	56.642721
3336.000000	56.861738
3335.000000	57.071020
3334.000000	57.268456
3333.000000	57.452815
3332.000000	57.622793
3331.000000	57.775850
3330.000000	57.909150
3329.000000	58.021549
3328.000000	58.112700
3327.000000	58.182049
3326.000000	58.228401
3325.000000	58.249694
3324.000000	58.242684
3323.000000	58.202314
3322.000000	58.123680
3321.000000	58.003579
3320.000000	57.838336
3319.000000	57.623861
3318.000000	57.354954
3317.000000	57.027259
3316.000000	56.635908
3315.000000	56.173258
3314.000000	55.631241
3313.000000	55.001702
3312.000000	54.275505
3311.000000	53.443093
3310.000000	52.494485
3309.000000	51.425348
3308.000000	50.233739
3307.000000	48.916452
3306.000000	47.470879
3305.000000	45.892978
3304.000000	44.181235
3303.000000	42.333353
3302.000000	40.350782
3301.000000	38.244957
3300.000000	36.034997
3299.000000	33.747959
3298.000000	31.421985
3297.000000	29.108354
3296.000000	26.863938
3295.000000	24.738741
3294.000000	22.772179
3293.000000	20.995903
3292.000000	19.431187
3291.000000	18.076717
3290.000000	16.913977
3289.000000	15.913341
3288.000000	15.041152
3287.000000	14.264824
3286.000000	13.555224
3285.000000	12.896074
3284.000000	12.279002
3283.000000	11.699859
3282.000000	11.162379
3281.000000	10.678776
3280.000000	10.265529
3279.000000	9.935561
3278.000000	9.699751
3277.000000	9.572047
3276.000000	9.562537
3275.000000	9.671258
3274.000000	9.888956
3273.000000	10.199747
3272.000000	10.580834
3271.000000	10.997943
3270.000000	11.410622
3269.000000	11.779351
3268.000000	12.067337
3267.000000	12.242863
3266.000000	12.288203
3265.000000	12.204723
3264.000000	12.007693
3263.000000	11.721171
3262.000000	11.375587
3261.000000	11.009027
3260.000000	10.658740
3259.000000	10.353327
3258.000000	10.114982
3257.000000	9.963176
3256.000000	9.910122
3255.000000	9.956132
3254.000000	10.093951
3253.000000	10.311972
3252.000000	10.594592
3251.000000	10.919238
3250.000000	11.262524
3249.000000	11.607097
3248.000000	11.938092
3247.000000	12.240152
3246.000000	12.500113
3245.000000	12.711110
3244.000000	12.870030
3243.000000	12.975827
3242.000000	13.031900
3241.000000	13.048076
3240.000000	13.035405
3239.000000	12.999812
3238.000000	12.945918
3237.000000	12.879987
3236.000000	12.808126
3235.000000	12.734860
3234.000000	12.665426
3233.000000	12.605544
3232.000000	12.553589
3231.000000	12.497820
3230.000000	12.425748
3229.000000	12.331953
3228.000000	12.214820
3227.000000	12.070782
3226.000000	11.897046
3225.000000	11.696267
3224.000000	11.472459
3223.000000	11.227074
3222.000000	10.962496
3221.000000	10.686309
3220.000000	10.407845
3219.000000	10.132609
3218.000000	9.864168
3217.000000	9.606855
3216.000000	9.362681
3215.000000	9.128944
3214.000000	8.902821
3213.000000	8.684517
3212.000000	8.472978
3211.000000	8.263252
3210.000000	8.051923
3209.000000	7.841706
3208.000000	7.636746
3207.000000	7.438132
3206.000000	7.247826
3205.000000	7.071516
3204.000000	6.913989
3203.000000	6.775392
3202.000000	6.655898
3201.000000	6.559879
3200.000000	6.490577
3199.000000	6.446608
3198.000000	6.426675
3197.000000	6.433148
3196.000000	6.467864
3195.000000	6.527486
3194.000000	6.609034
3193.000000	6.713678
3192.000000	6.841511
3191.000000	6.988598
3190.000000	7.151213
3189.000000	7.329825
3188.000000	7.524328
3187.000000	7.730007
3186.000000	7.943116
3185.000000	8.164571
3184.000000	8.395348
3183.000000	8.632529
3182.000000	8.873507
3181.000000	9.119804
3180.000000	9.372151
3179.000000	9.626902
3178.000000	9.880674
3177.000000	10.133968
3176.000000	10.386886
3175.000000	10.635806
3174.000000	10.878043
3173.000000	11.115183
3172.000000	11.348561
3171.000000	11.575663
3170.000000	11.794540
3169.000000	12.007085
3168.000000	12.214378
3167.000000	12.413684
3166.000000	12.602892
3165.000000	12.783825
3164.000000	12.957662
3163.000000	13.121259
3162.000000	13.271870
3161.000000	13.410390
3160.000000	13.537432
3159.000000	13.650685
3158.000000	13.749013
3157.000000	13.835698
3156.000000	13.913799
3155.000000	13.983500
3154.000000	14.047153
3153.000000	14.111779
3152.000000	14.183138
3151.000000	14.261037
3150.000000	14.343888
3149.000000	14.433308
3148.000000	14.530884
3147.000000	14.634887
3146.000000	14.743999
3145.000000	14.860161
3144.000000	14.984190
3143.000000	15.112964
3142.000000	15.243590
3141.000000	15.376566
3140.000000	15.511703
3139.000000	15.645196
3138.000000	15.773779
3137.000000	15.897267
3136.000000	16.014033
3135.000000	16.117857
3134.000000	16.202708
3133.000000	16.265657
3132.000000	16.302863
3131.000000	16.306808
3130.000000	16.270086
3129.000000	16.189901
3128.000000	16.064572
3127.000000	15.892529
3126.000000	15.677435
3125.000000	15.429675
3124.000000	15.161397
3123.000000	14.881811
3122.000000	14.600824
3121.000000	14.330546
3120.000000	14.078927
3119.000000	13.846218
3118.000000	13.630531
3117.000000	13.432632
3116.000000	13.251985
3115.000000	13.083801
3114.000000	12.923216
3113.000000	12.768795
3112.000000	12.618722
3111.000000	12.468946
3110.000000	12.319141
3109.000000	12.175253
3108.000000	12.043015
3107.000000	11.923479
3106.000000	11.817521
3105.000000	11.730351
3104.000000	11.666943
3103.000000	11.628625
3102.000000	11.618128
3101.000000	11.641833
3100.000000	11.705095
3099.000000	11.807731
3098.000000	11.948471
3097.000000	12.129194
3096.000000	12.349808
3095.000000	12.606283
3094.000000	12.894888
3093.000000	13.215151
3092.000000	13.566136
3091.000000	13.942944
3090.000000	14.341441
3089.000000	14.759713
3088.000000	15.193244
3087.000000	15.634296
3086.000000	16.077983
3085.000000	16.525201
3084.000000	16.975941
3083.000000	17.425246
3082.000000	17.868726
3081.000000	18.306774
3080.000000	18.740764
3079.000000	19.169443
3078.000000	19.591999
3077.000000	20.009438
3076.000000	20.420410
3075.000000	20.819969
3074.000000	21.205430
3073.000000	21.579360
3072.000000	21.943850
3071.000000	22.296972
3070.000000	22.637257
3069.000000	22.967411
3068.000000	23.290765
3067.000000	23.607316
3066.000000	23.916458
3065.000000	24.219385
3064.000000	24.516375
3063.000000	24.805695
3062.000000	25.086985
3061.000000	25.362618
3060.000000	25.633454
3059.000000	25.897190
3058.000000	26.153061
3057.000000	26.403900
3056.000000	26.651823
3055.000000	26.895582
3054.000000	27.134299
3053.000000	27.370223
3052.000000	27.605345
3051.000000	27.838963
3050.000000	28.070301
3049.000000	28.299833
3048.000000	28.526548
3047.000000	28.747504
3046.000000	28.962188
3045.000000	29.173792
3044.000000	29.384745
3043.000000	29.594764
3042.000000	29.804373
3041.000000	30.015872
3040.000000	30.228832
3039.000000	30.438634
3038.000000	30.642022
3037.000000	30.840677
3036.000000	31.037820
3035.000000	31.234886
3034.000000	31.432968
3033.000000	31.633635
3032.000000	31.836142
3031.000000	32.037319
3030.000000	32.235852
3029.000000	32.433244
3028.000000	32.629543
3027.000000	32.822164
3026.000000	33.010391
3025.000000	33.196783
3024.000000	33.382054
3023.000000	33.562460
3022.000000	33.734123
3021.000000	33.895498
3020.000000	34.043978
3019.000000	34.173088
3018.000000	34.276120
3017.000000	34.349442
3016.000000	34.391162
3015.000000	34.401969
3014.000000	34.389763
3013.000000	34.371820
3012.000000	34.368943
3011.000000	34.399377
3010.000000	34.476805
3009.000000	34.608061
3008.000000	34.788678
3007.000000	35.002889
3006.000000	35.230170
3005.000000	35.449657
3004.000000	35.638530
3003.000000	35.770218
3002.000000	35.818052
3001.000000	35.758731
3000.000000	35.577182
2999.000000	35.276968
2998.000000	34.894183
2997.000000	34.499729
2996.000000	34.181156
2995.000000	34.016779
2994.000000	34.051970
2993.000000	34.287584
2992.000000	34.679059
2991.000000	35.156279
2990.000000	35.651911
2989.000000	36.120264
2988.000000	36.538198
2987.000000	36.897184
2986.000000	37.199016
2985.000000	37.450322
2984.000000	37.657076
2983.000000	37.821242
2982.000000	37.944605
2981.000000	38.029616
2980.000000	38.075932
2979.000000	38.078405
2978.000000	38.030919
2977.000000	37.932506
2976.000000	37.788941
2975.000000	37.614932
2974.000000	37.435244
2973.000000	37.279352
2972.000000	37.170351
2971.000000	37.115991
2970.000000	37.107091
2969.000000	37.116469
2968.000000	37.099093
2967.000000	37.003055
2966.000000	36.793013
2965.000000	36.468010
2964.000000	36.061657
2963.000000	35.627682
2962.000000	35.224703
2961.000000	34.900920
2960.000000	34.685038
2959.000000	34.586103
2958.000000	34.603680
2957.000000	34.732031
2956.000000	34.955842
2955.000000	35.248915
2954.000000	35.579825
2953.000000	35.917565
2952.000000	36.229099
2951.000000	36.482756
2950.000000	36.658589
2949.000000	36.757670
2948.000000	36.797973
2947.000000	36.799750
2946.000000	36.768464
2945.000000	36.677647
2944.000000	36.467907
2943.000000	36.076354
2942.000000	35.493271
2941.000000	34.803901
2940.000000	34.178456
2939.000000	33.808704
2938.000000	33.823966
2937.000000	34.238500
2936.000000	34.953045
2935.000000	35.812325
2934.000000	36.674499
2933.000000	37.452604
2932.000000	38.113917
2931.000000	38.661746
2930.000000	39.118734
2929.000000	39.511399
2928.000000	39.860197
2927.000000	40.175653
2926.000000	40.464666
2925.000000	40.733202
2924.000000	40.984197
2923.000000	41.216351
2922.000000	41.428624
2921.000000	41.621855
2920.000000	41.795489
2919.000000	41.947383
2918.000000	42.077831
2917.000000	42.190480
2916.000000	42.288332
2915.000000	42.372260
2914.000000	42.444378
2913.000000	42.508353
2912.000000	42.565198
2911.000000	42.612312
2910.000000	42.647164
2909.000000	42.668182
2908.000000	42.670851
2907.000000	42.645959
2906.000000	42.582757
2905.000000	42.469686
2904.000000	42.291197
2903.000000	42.030182
2902.000000	41.677093
2901.000000	41.238592
2900.000000	40.738001
2899.000000	40.216108
2898.000000	39.728812
2897.000000	39.337725
2896.000000	39.090804
2895.000000	39.008146
2894.000000	39.082778
2893.000000	39.287348
2892.000000	39.582464
2891.000000	39.925935
2890.000000	40.284505
2889.000000	40.637177
2888.000000	40.970834
2887.000000	41.276508
2886.000000	41.550287
2885.000000	41.793527
2884.000000	42.007591
2883.000000	42.192228
2882.000000	42.348982
2881.000000	42.483171
2880.000000	42.600704
2879.000000	42.705986
2878.000000	42.803640
2877.000000	42.898572
2876.000000	42.992697
2875.000000	43.084216
2874.000000	43.171778
2873.000000	43.256288
2872.000000	43.338546
2871.000000	43.419416
2870.000000	43.503621
2869.000000	43.599518
2868.000000	43.712707
2867.000000	43.842240
2866.000000	43.983842
2865.000000	44.132878
2864.000000	44.282991
2863.000000	44.426478
2862.000000	44.558862
2861.000000	44.680660
2860.000000	44.793553
2859.000000	44.897861
2858.000000	44.995184
2857.000000	45.089948
2856.000000	45.186297
2855.000000	45.285975
2854.000000	45.389891
2853.000000	45.497897
2852.000000	45.605415
2851.000000	45.703839
2850.000000	45.786688
2849.000000	45.853440
2848.000000	45.907230
2847.000000	45.952333
2846.000000	45.995066
2845.000000	46.042890
2844.000000	46.099978
2843.000000	46.165405
2842.000000	46.236734
2841.000000	46.313149
2840.000000	46.394274
2839.000000	46.479119
2838.000000	46.567638
2837.000000	46.660960
2836.000000	46.759119
2835.000000	46.860937
2834.000000	46.966503
2833.000000	47.077091
2832.000000	47.191878
2831.000000	47.307432
2830.000000	47.421178
2829.000000	47.532715
2828.000000	47.641288
2827.000000	47.745185
2826.000000	47.844526
2825.000000	47.941737
2824.000000	48.038276
2823.000000	48.133316
2822.000000	48.226317
2821.000000	48.317915
2820.000000	48.407411
2819.000000	48.492371
2818.000000	48.571779
2817.000000	48.646990
2816.000000	48.718806
2815.000000	48.786357
2814.000000	48.849794
2813.000000	48.911247
2812.000000	48.971988
2811.000000	49.031230
2810.000000	49.088521
2809.000000	49.144690
2808.000000	49.199553
2807.000000	49.251494
2806.000000	49.300457
2805.000000	49.348823
2804.000000	49.398233
2803.000000	49.447988
2802.000000	49.497373
2801.000000	49.546919
2800.000000	49.596470
2799.000000	49.644502
2798.000000	49.690393
2797.000000	49.734993
2796.000000	49.778330
2795.000000	49.819376
2794.000000	49.858848
2793.000000	49.899493
2792.000000	49.942574
2791.000000	49.986461
2790.000000	50.029358
2789.000000	50.070702
2788.000000	50.109116
2787.000000	50.142007
2786.000000	50.168717
2785.000000	50.192065
2784.000000	50.215930
2783.000000	50.243676
2782.000000	50.279172
2781.000000	50.325950
2780.000000	50.383712
2779.000000	50.447894
2778.000000	50.513794
2777.000000	50.579414
2776.000000	50.643932
2775.000000	50.706340
2774.000000	50.766788
2773.000000	50.826793
2772.000000	50.887028
2771.000000	50.946813
2770.000000	51.006164
2769.000000	51.065936
2768.000000	51.125282
2767.000000	51.181363
2766.000000	51.232380
2765.000000	51.278586
2764.000000	51.319979
2763.000000	51.355830
2762.000000	51.387152
2761.000000	51.417007
2760.000000	51.447295
2759.000000	51.477276
2758.000000	51.505832
2757.000000	51.532504
2756.000000	51.555832
2755.000000	51.573669
2754.000000	51.586373
2753.000000	51.597699
2752.000000	51.611790
2751.000000	51.631306
2750.000000	51.658485
2749.000000	51.694607
2748.000000	51.737003
2747.000000	51.779195
2746.000000	51.815482
2745.000000	51.844030
2744.000000	51.865685
2743.000000	51.882682
2742.000000	51.898856
2741.000000	51.917802
2740.000000	51.939068
2739.000000	51.958227
2738.000000	51.972022
2737.000000	51.982238
2736.000000	51.994610
2735.000000	52.016542
2734.000000	52.055765
2733.000000	52.116898
2732.000000	52.197362
2731.000000	52.288584
2730.000000	52.382027
2729.000000	52.472856
2728.000000	52.558096
2727.000000	52.634998
2726.000000	52.702667
2725.000000	52.762550
2724.000000	52.815739
2723.000000	52.861823
2722.000000	52.900844
2721.000000	52.933888
2720.000000	52.961326
2719.000000	52.982633
2718.000000	52.999016
2717.000000	53.014058
2716.000000	53.030668
2715.000000	53.049695
2714.000000	53.071927
2713.000000	53.098930
2712.000000	53.131102
2711.000000	53.167270
2710.000000	53.206911
2709.000000	53.250551
2708.000000	53.297242
2707.000000	53.343858
2706.000000	53.387677
2705.000000	53.427400
2704.000000	53.461096
2703.000000	53.485759
2702.000000	53.499971
2701.000000	53.504686
2700.000000	53.501098
2699.000000	53.489771
2698.000000	53.472422
2697.000000	53.452429
2696.000000	53.432443
2695.000000	53.413708
2694.000000	53.397837
2693.000000	53.386512
2692.000000	53.378922
2691.000000	53.372196
2690.000000	53.365279
2689.000000	53.360276
2688.000000	53.359458
2687.000000	53.363249
2686.000000	53.371697
2685.000000	53.385054
2684.000000	53.402062
2683.000000	53.420504
2682.000000	53.440299
2681.000000	53.464161
2680.000000	53.494396
2679.000000	53.531017
2678.000000	53.573241
2677.000000	53.619675
2676.000000	53.666508
2675.000000	53.708294
2674.000000	53.741637
2673.000000	53.766215
2672.000000	53.782243
2671.000000	53.789812
2670.000000	53.791584
2669.000000	53.793549
2668.000000	53.801792
2667.000000	53.820242
2666.000000	53.851353
2665.000000	53.895647
2664.000000	53.949317
2663.000000	54.004981
2662.000000	54.055945
2661.000000	54.098226
2660.000000	54.128911
2659.000000	54.145872
2658.000000	54.150082
2657.000000	54.145826
2656.000000	54.137583
2655.000000	54.128604
2654.000000	54.122937
2653.000000	54.125614
2652.000000	54.139751
2651.000000	54.165602
2650.000000	54.202914
2649.000000	54.251384
2648.000000	54.308506
2647.000000	54.369568
2646.000000	54.430714
2645.000000	54.490138
2644.000000	54.545757
2643.000000	54.595096
2642.000000	54.638437
2641.000000	54.679591
2640.000000	54.722426
2639.000000	54.768435
2638.000000	54.817843
2637.000000	54.870295
2636.000000	54.923565
2635.000000	54.973918
2634.000000	55.018871
2633.000000	55.057791
2632.000000	55.089684
2631.000000	55.113164
2630.000000	55.128894
2629.000000	55.139844
2628.000000	55.148344
2627.000000	55.155014
2626.000000	55.161085
2625.000000	55.168580
2624.000000	55.177736
2623.000000	55.186617
2622.000000	55.193980
2621.000000	55.200325
2620.000000	55.205464
2619.000000	55.207734
2618.000000	55.206090
2617.000000	55.200362
2616.000000	55.189128
2615.000000	55.169790
2614.000000	55.141719
2613.000000	55.106931
2612.000000	55.067147
2611.000000	55.023443
2610.000000	54.979307
2609.000000	54.941124
2608.000000	54.914261
2607.000000	54.900960
2606.000000	54.902160
2605.000000	54.918657
2604.000000	54.949186
2603.000000	54.989792
2602.000000	55.036933
2601.000000	55.088308
2600.000000	55.140913
2599.000000	55.190996
2598.000000	55.236808
2597.000000	55.279415
2596.000000	55.319881
2595.000000	55.358298
2594.000000	55.395984
2593.000000	55.435637
2592.000000	55.478051
2591.000000	55.521062
2590.000000	55.562290
2589.000000	55.600457
2588.000000	55.633648
2587.000000	55.659224
2586.000000	55.676990
2585.000000	55.690259
2584.000000	55.702987
2583.000000	55.718145
2582.000000	55.739305
2581.000000	55.770706
2580.000000	55.814331
2579.000000	55.869006
2578.000000	55.932725
2577.000000	56.004029
2576.000000	56.080358
2575.000000	56.158017
2574.000000	56.235027
2573.000000	56.311489
2572.000000	56.386906
2571.000000	56.459311
2570.000000	56.527617
2569.000000	56.592301
2568.000000	56.653099
2567.000000	56.708472
2566.000000	56.758301
2565.000000	56.804953
2564.000000	56.850571
2563.000000	56.895718
2562.000000	56.940945
2561.000000	56.987229
2560.000000	57.033984
2559.000000	57.078724
2558.000000	57.119915
2557.000000	57.158177
2556.000000	57.194415
2555.000000	57.229068
2554.000000	57.263802
2553.000000	57.301497
2552.000000	57.343601
2551.000000	57.389327
2550.000000	57.437777
2549.000000	57.488611
2548.000000	57.540115
2547.000000	57.589178
2546.000000	57.634080
2545.000000	57.675368
2544.000000	57.713512
2543.000000	57.747946
2542.000000	57.778765
2541.000000	57.806656
2540.000000	57.830635
2539.000000	57.847723
2538.000000	57.855894
2537.000000	57.855268
2536.000000	57.845669
2535.000000	57.826234
2534.000000	57.797650
2533.000000	57.762899
2532.000000	57.724833
2531.000000	57.684620
2530.000000	57.643618
2529.000000	57.603876
2528.000000	57.566229
2527.000000	57.530005
2526.000000	57.495311
2525.000000	57.463560
2524.000000	57.435104
2523.000000	57.408550
2522.000000	57.382802
2521.000000	57.357295
2520.000000	57.329651
2519.000000	57.295720
2518.000000	57.252859
2517.000000	57.201312
2516.000000	57.141741
2515.000000	57.074615
2514.000000	57.002622
2513.000000	56.931196
2512.000000	56.865565
2511.000000	56.809282
2510.000000	56.765846
2509.000000	56.738663
2508.000000	56.728518
2507.000000	56.732864
2506.000000	56.749431
2505.000000	56.777402
2504.000000	56.814973
2503.000000	56.858994
2502.000000	56.907148
2501.000000	56.958844
2500.000000	57.012401
2499.000000	57.064073
2498.000000	57.110735
2497.000000	57.151088
2496.000000	57.183753
2495.000000	57.206944
2494.000000	57.221145
2493.000000	57.229524
2492.000000	57.235167
2491.000000	57.239626
2490.000000	57.244780
2489.000000	57.253306
2488.000000	57.266081
2487.000000	57.281578
2486.000000	57.298562
2485.000000	57.317264
2484.000000	57.337298
2483.000000	57.357210
2482.000000	57.376873
2481.000000	57.398059
2480.000000	57.421710
2479.000000	57.446761
2478.000000	57.472601
2477.000000	57.500269
2476.000000	57.530734
2475.000000	57.564377
2474.000000	57.602718
2473.000000	57.648586
2472.000000	57.703278
2471.000000	57.765552
2470.000000	57.833837
2469.000000	57.906780
2468.000000	57.981448
2467.000000	58.053238
2466.000000	58.118733
2465.000000	58.176937
2464.000000	58.227632
2463.000000	58.270844
2462.000000	58.308416
2461.000000	58.343703
2460.000000	58.378534
2459.000000	58.412508
2458.000000	58.444899
2457.000000	58.475140
2456.000000	58.501189
2455.000000	58.519864
2454.000000	58.530190
2453.000000	58.534466
2452.000000	58.536126
2451.000000	58.538586
2450.000000	58.546037
2449.000000	58.562381
2448.000000	58.588428
2447.000000	58.622159
2446.000000	58.661930
2445.000000	58.707518
2444.000000	58.757628
2443.000000	58.809479
2442.000000	58.861387
2441.000000	58.913251
2440.000000	58.964319
2439.000000	59.012684
2438.000000	59.057659
2437.000000	59.100033
2436.000000	59.139490
2435.000000	59.173810
2434.000000	59.201441
2433.000000	59.222614
2432.000000	59.237343
2431.000000	59.245029
2430.000000	59.246007
2429.000000	59.241599
2428.000000	59.231728
2427.000000	59.214139
2426.000000	59.187162
2425.000000	59.150743
2424.000000	59.105482
2423.000000	59.053051
2422.000000	58.998176
2421.000000	58.948116
2420.000000	58.909008
2419.000000	58.884192
2418.000000	58.875086
2417.000000	58.880987
2416.000000	58.897081
2415.000000	58.915750
2414.000000	58.930586
2413.000000	58.937633
2412.000000	58.933323
2411.000000	58.914475
2410.000000	58.881022
2409.000000	58.836065
2408.000000	58.782914
2407.000000	58.723559
2406.000000	58.660724
2405.000000	58.598042
2404.000000	58.537780
2403.000000	58.480822
2402.000000	58.429420
2401.000000	58.387599
2400.000000	58.358051
2399.000000	58.340830
2398.000000	58.334523
2397.000000	58.336316
2396.000000	58.340177
2395.000000	58.338312
2394.000000	58.325317
2393.000000	58.299615
2392.000000	58.261396
2391.000000	58.212579
2390.000000	58.159202
2389.000000	58.110706
2388.000000	58.076222
2387.000000	58.062656
2386.000000	58.076170
2385.000000	58.121738
2384.000000	58.200741
2383.000000	58.310323
2382.000000	58.445584
2381.000000	58.599022
2380.000000	58.757224
2379.000000	58.902682
2378.000000	59.018554
2377.000000	59.093344
2376.000000	59.121609
2375.000000	59.104600
2374.000000	59.052905
2373.000000	58.981926
2372.000000	58.907317
2371.000000	58.842476
2370.000000	58.798230
2369.000000	58.780790
2368.000000	58.793759
2367.000000	58.838915
2366.000000	58.913536
2365.000000	59.012067
2364.000000	59.131767
2363.000000	59.266067
2362.000000	59.409646
2361.000000	59.558640
2360.000000	59.693580
2359.000000	59.794630
2358.000000	59.850468
2357.000000	59.858153
2356.000000	59.828655
2355.000000	59.771470
2354.000000	59.709676
2353.000000	59.672483
2352.000000	59.696014
2351.000000	59.789329
2350.000000	59.896764
2349.000000	59.956555
2348.000000	59.949216
2347.000000	59.922271
2346.000000	59.937902
2345.000000	59.993704
2344.000000	60.054187
2343.000000	60.077144
2342.000000	60.073847
2341.000000	60.064675
2340.000000	60.057707
2339.000000	60.053712
2338.000000	60.045502
2337.000000	60.037441
2336.000000	60.030670
2335.000000	60.038514
2334.000000	60.061197
2333.000000	60.095454
2332.000000	60.109664
2331.000000	60.086297
2330.000000	60.000356
2329.000000	59.883721
2328.000000	59.761653
2327.000000	59.672600
2326.000000	59.630338
2325.000000	59.634320
2324.000000	59.670916
2323.000000	59.706651
2322.000000	59.718129
2321.000000	59.694035
2320.000000	59.636846
2319.000000	59.562332
2318.000000	59.484800
2317.000000	59.432502
2316.000000	59.409221
2315.000000	59.415067
2314.000000	59.420023
2313.000000	59.407923
2312.000000	59.353458
2311.000000	59.258338
2310.000000	59.122848
2309.000000	58.965833
2308.000000	58.791765
2307.000000	58.609417
2306.000000	58.419617
2305.000000	58.233515
2304.000000	58.053999
2303.000000	57.884925
2302.000000	57.721053
2301.000000	57.564364
2300.000000	57.410187
2299.000000	57.260549
2298.000000	57.114931
2297.000000	56.982113
2296.000000	56.864195
2295.000000	56.764717
2294.000000	56.684388
2293.000000	56.628379
2292.000000	56.598059
2291.000000	56.591871
2290.000000	56.608070
2289.000000	56.645713
2288.000000	56.703007
2287.000000	56.775280
2286.000000	56.860413
2285.000000	56.957399
2284.000000	57.063376
2283.000000	57.170993
2282.000000	57.274774
2281.000000	57.372490
2280.000000	57.463057
2279.000000	57.544337
2278.000000	57.616765
2277.000000	57.684599
2276.000000	57.751499
2275.000000	57.819243
2274.000000	57.889431
2273.000000	57.965544
2272.000000	58.049242
2271.000000	58.140033
2270.000000	58.238556
2269.000000	58.347960
2268.000000	58.470221
2267.000000	58.604449
2266.000000	58.749100
2265.000000	58.903654
2264.000000	59.065332
2263.000000	59.228532
2262.000000	59.388374
2261.000000	59.542019
2260.000000	59.687215
2259.000000	59.820527
2258.000000	59.940949
2257.000000	60.050235
2256.000000	60.150416
2255.000000	60.242536
2254.000000	60.328880
2253.000000	60.414023
2252.000000	60.500727
2251.000000	60.589231
2250.000000	60.679137
2249.000000	60.771288
2248.000000	60.864132
2247.000000	60.953684
2246.000000	61.036407
2245.000000	61.111481
2244.000000	61.178548
2243.000000	61.236513
2242.000000	61.285729
2241.000000	61.328875
2240.000000	61.367957
2239.000000	61.402569
2238.000000	61.432232
2237.000000	61.457458
2236.000000	61.477908
2235.000000	61.491833
2234.000000	61.499448
2233.000000	61.504204
2232.000000	61.509698
2231.000000	61.517558
2230.000000	61.529141
2229.000000	61.546333
2228.000000	61.569013
2227.000000	61.594523
2226.000000	61.620851
2225.000000	61.648119
2224.000000	61.675606
2223.000000	61.700378
2222.000000	61.720109
2221.000000	61.735015
2220.000000	61.745747
2219.000000	61.752343
2218.000000	61.756705
2217.000000	61.763536
2216.000000	61.777138
2215.000000	61.799232
2214.000000	61.830852
2213.000000	61.873113
2212.000000	61.924677
2211.000000	61.980826
2210.000000	62.036810
2209.000000	62.089907
2208.000000	62.137546
2207.000000	62.176428
2206.000000	62.205149
2205.000000	62.225473
2204.000000	62.239406
2203.000000	62.247405
2202.000000	62.250408
2201.000000	62.251011
2200.000000	62.250859
2199.000000	62.249220
2198.000000	62.245660
2197.000000	62.241867
2196.000000	62.239752
2195.000000	62.240081
2194.000000	62.244458
2193.000000	62.256059
2192.000000	62.276838
2191.000000	62.306215
2190.000000	62.343534
2189.000000	62.389515
2188.000000	62.443891
2187.000000	62.504049
2186.000000	62.567146
2185.000000	62.631333
2184.000000	62.693977
2183.000000	62.751178
2182.000000	62.800624
2181.000000	62.842757
2180.000000	62.878493
2179.000000	62.908095
2178.000000	62.933252
2177.000000	62.957473
2176.000000	62.982874
2175.000000	63.008617
2174.000000	63.033241
2173.000000	63.055964
2172.000000	63.074699
2171.000000	63.085726
2170.000000	63.087036
2169.000000	63.079957
2168.000000	63.066679
2167.000000	63.048837
2166.000000	63.029649
2165.000000	63.014286
2164.000000	63.006142
2163.000000	63.005011
2162.000000	63.009965
2161.000000	63.021312
2160.000000	63.038272
2159.000000	63.057639
2158.000000	63.076698
2157.000000	63.095248
2156.000000	63.113505
2155.000000	63.130616
2154.000000	63.146865
2153.000000	63.164868
2152.000000	63.186836
2151.000000	63.212603
2150.000000	63.241368
2149.000000	63.272884
2148.000000	63.305424
2147.000000	63.335176
2146.000000	63.359203
2145.000000	63.377197
2144.000000	63.389451
2143.000000	63.395745
2142.000000	63.397493
2141.000000	63.398529
2140.000000	63.402072
2139.000000	63.408652
2138.000000	63.417797
2137.000000	63.429172
2136.000000	63.440909
2135.000000	63.449292
2134.000000	63.451618
2133.000000	63.447295
2132.000000	63.435546
2131.000000	63.414815
2130.000000	63.385829
2129.000000	63.352743
2128.000000	63.319949
2127.000000	63.289974
2126.000000	63.265281
2125.000000	63.249140
2124.000000	63.242939
2123.000000	63.245382
2122.000000	63.255581
2121.000000	63.274451
2120.000000	63.301928
2119.000000	63.335544
2118.000000	63.372838
2117.000000	63.412667
2116.000000	63.453079
2115.000000	63.490691
2114.000000	63.523748
2113.000000	63.553313
2112.000000	63.580338
2111.000000	63.604082
2110.000000	63.624218
2109.000000	63.641652
2108.000000	63.656055
2107.000000	63.665328
2106.000000	63.669115
2105.000000	63.670375
2104.000000	63.672128
2103.000000	63.675088
2102.000000	63.679233
2101.000000	63.684667
2100.000000	63.689221
2099.000000	63.687917
2098.000000	63.676587
2097.000000	63.654220
2096.000000	63.621225
2095.000000	63.579012
2094.000000	63.532649
2093.000000	63.490785
2092.000000	63.461100
2091.000000	63.447865
2090.000000	63.454337
2089.000000	63.483444
2088.000000	63.533818
2087.000000	63.598345
2086.000000	63.668252
2085.000000	63.736165
2084.000000	63.795037
2083.000000	63.838298
2082.000000	63.863164
2081.000000	63.871756
2080.000000	63.867391
2079.000000	63.852116
2078.000000	63.828888
2077.000000	63.802217
2076.000000	63.774266
2075.000000	63.743168
2074.000000	63.706335
2073.000000	63.662918
2072.000000	63.611757
2071.000000	63.550226
2070.000000	63.477693
2069.000000	63.397161
2068.000000	63.311405
2067.000000	63.220164
2066.000000	63.123074
2065.000000	63.022926
2064.000000	62.923389
2063.000000	62.826026
2062.000000	62.731241
2061.000000	62.639218
2060.000000	62.548361
2059.000000	62.455498
2058.000000	62.359505
2057.000000	62.262249
2056.000000	62.165265
2055.000000	62.068759
2054.000000	61.975069
2053.000000	61.889375
2052.000000	61.815544
2051.000000	61.754311
2050.000000	61.706286
2049.000000	61.673110
2048.000000	61.653698
2047.000000	61.642877
2046.000000	61.636164
2045.000000	61.632260
2044.000000	61.629664
2043.000000	61.625373
2042.000000	61.619276
2041.000000	61.616672
2040.000000	61.623757
2039.000000	61.644092
2038.000000	61.680607
2037.000000	61.735982
2036.000000	61.808962
2035.000000	61.893476
2034.000000	61.983565
2033.000000	62.076108
2032.000000	62.167742
2031.000000	62.254058
2030.000000	62.333768
2029.000000	62.410079
2028.000000	62.486373
2027.000000	62.563658
2026.000000	62.643270
2025.000000	62.727747
2024.000000	62.816881
2023.000000	62.906293
2022.000000	62.992276
2021.000000	63.074814
2020.000000	63.153758
2019.000000	63.226072
2018.000000	63.289981
2017.000000	63.349277
2016.000000	63.410603
2015.000000	63.478705
2014.000000	63.556031
2013.000000	63.643694
2012.000000	63.739944
2011.000000	63.840247
2010.000000	63.941057
2009.000000	64.041163
2008.000000	64.138473
2007.000000	64.229203
2006.000000	64.311912
2005.000000	64.389182
2004.000000	64.463808
2003.000000	64.536103
2002.000000	64.606767
2001.000000	64.678507
2000.000000	64.752732
1999.000000	64.827821
1998.000000	64.901727
1997.000000	64.974712
1996.000000	65.047985
1995.000000	65.120320
1994.000000	65.187683
1993.000000	65.246336
1992.000000	65.296573
1991.000000	65.344345
1990.000000	65.398402
1989.000000	65.464629
1988.000000	65.543277
1987.000000	65.630949
1986.000000	65.724424
1985.000000	65.821452
1984.000000	65.918447
1983.000000	66.010520
1982.000000	66.094595
1981.000000	66.170444
1980.000000	66.239069
1979.000000	66.302501
1978.000000	66.364645
1977.000000	66.430553
1976.000000	66.504138
1975.000000	66.586514
1974.000000	66.676146
1973.000000	66.769569
1972.000000	66.862256
1971.000000	66.949825
1970.000000	67.028433
1969.000000	67.094103
1968.000000	67.142707
1967.000000	67.172916
1966.000000	67.189789
1965.000000	67.202020
1964.000000	67.215258
1963.000000	67.229167
1962.000000	67.240016
1961.000000	67.244601
1960.000000	67.241463
1959.000000	67.230852
1958.000000	67.214781
1957.000000	67.196256
1956.000000	67.178031
1955.000000	67.162602
1954.000000	67.153235
1953.000000	67.153600
1952.000000	67.165567
1951.000000	67.188387
1950.000000	67.220986
1949.000000	67.262023
1948.000000	67.307477
1947.000000	67.351923
1946.000000	67.392073
1945.000000	67.425779
1944.000000	67.447728
1943.000000	67.451588
1942.000000	67.439547
1941.000000	67.424071
1940.000000	67.416354
1939.000000	67.418480
1938.000000	67.427414
1937.000000	67.440644
1936.000000	67.456402
1935.000000	67.471520
1934.000000	67.481892
1933.000000	67.484704
1932.000000	67.477996
1931.000000	67.461002
1930.000000	67.437188
1929.000000	67.412996
1928.000000	67.393825
1927.000000	67.384137
1926.000000	67.389107
1925.000000	67.410718
1924.000000	67.441746
1923.000000	67.471410
1922.000000	67.498625
1921.000000	67.529197
1920.000000	67.560757
1919.000000	67.580956
1918.000000	67.582060
1917.000000	67.571170
1916.000000	67.558689
1915.000000	67.546697
1914.000000	67.534982
1913.000000	67.527204
1912.000000	67.525386
1911.000000	67.525656
1910.000000	67.524256
1909.000000	67.521819
1908.000000	67.519532
1907.000000	67.516764
1906.000000	67.515099
1905.000000	67.519449
1904.000000	67.531756
1903.000000	67.550872
1902.000000	67.579934
1901.000000	67.624838
1900.000000	67.685822
1899.000000	67.757597
1898.000000	67.836138
1897.000000	67.918896
1896.000000	67.997817
1895.000000	68.062782
1894.000000	68.114692
1893.000000	68.164378
1892.000000	68.216499
1891.000000	68.263881
1890.000000	68.299554
1889.000000	68.328303
1888.000000	68.360482
1887.000000	68.399981
1886.000000	68.445346
1885.000000	68.494467
1884.000000	68.543462
1883.000000	68.588307
1882.000000	68.630123
1881.000000	68.672915
1880.000000	68.716546
1879.000000	68.757427
1878.000000	68.795705
1877.000000	68.836728
1876.000000	68.883081
1875.000000	68.931739
1874.000000	68.981988
1873.000000	69.039000
1872.000000	69.104889
1871.000000	69.172506
1870.000000	69.231038
1869.000000	69.274804
1868.000000	69.305776
1867.000000	69.329970
1866.000000	69.355648
1865.000000	69.390331
1864.000000	69.435778
1863.000000	69.487716
1862.000000	69.543063
1861.000000	69.603440
1860.000000	69.668204
1859.000000	69.731153
1858.000000	69.787633
1857.000000	69.838592
1856.000000	69.884539
1855.000000	69.923052
1854.000000	69.954427
1853.000000	69.984108
1852.000000	70.017988
1851.000000	70.059050
1850.000000	70.108266
1849.000000	70.165693
1848.000000	70.228801
1847.000000	70.292117
1846.000000	70.349558
1845.000000	70.394709
1844.000000	70.424882
1843.000000	70.447938
1842.000000	70.474978
1841.000000	70.509912
1840.000000	70.551604
1839.000000	70.597219
1838.000000	70.643884
1837.000000	70.690541
1836.000000	70.736727
1835.000000	70.782174
1834.000000	70.828735
1833.000000	70.878561
1832.000000	70.930891
1831.000000	70.977810
1830.000000	71.010001
1829.000000	71.034412
1828.000000	71.069118
1827.000000	71.119084
1826.000000	71.173797
1825.000000	71.224539
1824.000000	71.273112
1823.000000	71.324125
1822.000000	71.376641
1821.000000	71.429200
1820.000000	71.482562
1819.000000	71.533369
1818.000000	71.575471
1817.000000	71.609428
1816.000000	71.641142
1815.000000	71.671932
1814.000000	71.698254
1813.000000	71.718769
1812.000000	71.734604
1811.000000	71.742408
1810.000000	71.741101
1809.000000	71.739869
1808.000000	71.745250
1807.000000	71.752007
1806.000000	71.754690
1805.000000	71.757190
1804.000000	71.763523
1803.000000	71.768001
1802.000000	71.763433
1801.000000	71.755905
1800.000000	71.759809
1799.000000	71.779645
1798.000000	71.811447
1797.000000	71.852475
1796.000000	71.898870
1795.000000	71.941959
1794.000000	71.972327
1793.000000	71.986133
1792.000000	71.987428
1791.000000	71.983427
1790.000000	71.983098
1789.000000	71.995807
1788.000000	72.024325
1787.000000	72.060904
1786.000000	72.094210
1785.000000	72.121048
1784.000000	72.145010
1783.000000	72.166002
1782.000000	72.177136
1781.000000	72.174216
1780.000000	72.164975
1779.000000	72.163742
1778.000000	72.179899
1777.000000	72.214284
1776.000000	72.264338
1775.000000	72.327053
1774.000000	72.396142
1773.000000	72.460408
1772.000000	72.516605
1771.000000	72.570089
1770.000000	72.620990
1769.000000	72.667301
1768.000000	72.715648
1767.000000	72.773086
1766.000000	72.837170
1765.000000	72.901525
1764.000000	72.962507
1763.000000	73.013641
1762.000000	73.042619
1761.000000	73.051625
1760.000000	73.060668
1759.000000	73.080487
1758.000000	73.105860
1757.000000	73.128725
1756.000000	73.155528
1755.000000	73.197555
1754.000000	73.247878
1753.000000	73.292185
1752.000000	73.329696
1751.000000	73.371434
1750.000000	73.420924
1749.000000	73.469510
1748.000000	73.516242
1747.000000	73.571930
1746.000000	73.638374
1745.000000	73.703604
1744.000000	73.760038
1743.000000	73.807868
1742.000000	73.845434
1741.000000	73.868830
1740.000000	73.881534
1739.000000	73.895054
1738.000000	73.916447
1737.000000	73.942169
1736.000000	73.968023
1735.000000	73.988904
1734.000000	74.001123
1733.000000	74.014861
1732.000000	74.032194
1731.000000	74.037733
1730.000000	74.025415
1729.000000	74.002282
1728.000000	73.983170
1727.000000	73.980152
1726.000000	73.992178
1725.000000	74.010994
1724.000000	74.030094
1723.000000	74.047187
1722.000000	74.062676
1721.000000	74.078143
1720.000000	74.094066
1719.000000	74.104092
1718.000000	74.098105
1717.000000	74.093551
1716.000000	74.112304
1715.000000	74.143452
1714.000000	74.177789
1713.000000	74.221339
1712.000000	74.272510
1711.000000	74.319069
1710.000000	74.353905
1709.000000	74.383253
1708.000000	74.417501
1707.000000	74.457988
1706.000000	74.500057
1705.000000	74.547734
1704.000000	74.605651
1703.000000	74.666959
1702.000000	74.728535
1701.000000	74.794850
1700.000000	74.867236
1699.000000	74.932713
1698.000000	74.979931
1697.000000	75.015738
1696.000000	75.058173
1695.000000	75.116546
1694.000000	75.185741
1693.000000	75.251997
1692.000000	75.313060
1691.000000	75.375161
1690.000000	75.435013
1689.000000	75.479542
1688.000000	75.506149
1687.000000	75.527437
1686.000000	75.558572
1685.000000	75.593856
1684.000000	75.614553
1683.000000	75.636156
1682.000000	75.667249
1681.000000	75.680021
1680.000000	75.668229
1679.000000	75.650226
1678.000000	75.638614
1677.000000	75.621439
1676.000000	75.585572
1675.000000	75.546529
1674.000000	75.524538
1673.000000	75.504906
1672.000000	75.468742
1671.000000	75.420668
1670.000000	75.368137
1669.000000	75.303671
1668.000000	75.228301
1667.000000	75.162201
1666.000000	75.111924
1665.000000	75.061049
1664.000000	74.991352
1663.000000	74.904987
1662.000000	74.813840
1661.000000	74.705636
1660.000000	74.559132
1659.000000	74.385060
1658.000000	74.206648
1657.000000	74.025864
1656.000000	73.823323
1655.000000	73.577858
1654.000000	73.224193
1653.000000	72.704667
1652.000000	72.151851
1651.000000	71.667520
1650.000000	71.152838
1649.000000	70.443313
1648.000000	69.322884
1647.000000	67.644226
1646.000000	65.507846
1645.000000	63.124993
1644.000000	60.535643
1643.000000	57.626831
1642.000000	54.319352
1641.000000	50.698563
1640.000000	47.060570
1639.000000	43.731794
1638.000000	40.858819
1637.000000	38.474927
1636.000000	36.757245
1635.000000	36.015392
1634.000000	36.239312
1633.000000	37.130326
1632.000000	38.443843
1631.000000	40.055692
1630.000000	41.903745
1629.000000	43.942694
1628.000000	46.095247
1627.000000	48.214462
1626.000000	50.200582
1625.000000	52.114725
1624.000000	54.068900
1623.000000	56.015606
1622.000000	57.757911
1621.000000	59.203163
1620.000000	60.431621
1619.000000	61.563647
1618.000000	62.679703
1617.000000	63.802635
1616.000000	64.860506
1615.000000	65.729861
1614.000000	66.383394
1613.000000	66.903927
1612.000000	67.374245
1611.000000	67.794052
1610.000000	68.107627
1609.000000	68.293175
1608.000000	68.360988
1607.000000	68.285217
1606.000000	68.008435
1605.000000	67.491434
1604.000000	66.720453
1603.000000	65.668712
1602.000000	64.323461
1601.000000	62.759081
1600.000000	61.129328
1599.000000	59.591838
1598.000000	58.248357
1597.000000	57.148589
1596.000000	56.301245
1595.000000	55.657932
1594.000000	55.116122
1593.000000	54.581583
1592.000000	54.018133
1591.000000	53.417588
1590.000000	52.764760
1589.000000	52.050804
1588.000000	51.288236
1587.000000	50.473520
1586.000000	49.569117
1585.000000	48.549550
1584.000000	47.441332
1583.000000	46.283677
1582.000000	45.083030
1581.000000	43.847303
1580.000000	42.613285
1579.000000	41.365226
1578.000000	39.934574
1577.000000	38.075587
1576.000000	35.822664
1575.000000	33.637716
1574.000000	31.852844
1573.000000	30.376090
1572.000000	29.018446
1571.000000	27.714647
1570.000000	26.526329
1569.000000	25.569923
1568.000000	24.933678
1567.000000	24.636446
1566.000000	24.611650
1565.000000	24.754146
1564.000000	25.012584
1563.000000	25.405477
1562.000000	25.953019
1561.000000	26.677175
1560.000000	27.713809
1559.000000	29.185219
1558.000000	30.749358
1557.000000	31.993849
1556.000000	32.967255
1555.000000	33.871112
1554.000000	34.757853
1553.000000	35.542634
1552.000000	36.191830
1551.000000	36.796984
1550.000000	37.458203
1549.000000	38.188945
1548.000000	38.974813
1547.000000	39.859289
1546.000000	40.895565
1545.000000	42.048931
1544.000000	43.216472
1543.000000	44.350153
1542.000000	45.491042
1541.000000	46.683303
1540.000000	47.893496
1539.000000	49.021246
1538.000000	49.984372
1537.000000	50.784795
1536.000000	51.512387
1535.000000	52.290605
1534.000000	53.175118
1533.000000	54.079131
1532.000000	54.889687
1531.000000	55.611665
1530.000000	56.302622
1529.000000	56.983548
1528.000000	57.650689
1527.000000	58.309884
1526.000000	58.948456
1525.000000	59.524069
1524.000000	60.026228
1523.000000	60.503699
1522.000000	60.987531
1521.000000	61.434620
1520.000000	61.809873
1519.000000	62.151719
1518.000000	62.500985
1517.000000	62.852871
1516.000000	63.192230
1515.000000	63.530252
1514.000000	63.872214
1513.000000	64.202810
1512.000000	64.515872
1511.000000	64.817936
1510.000000	65.105533
1509.000000	65.366213
1508.000000	65.614576
1507.000000	65.881730
1506.000000	66.182467
1505.000000	66.486890
1504.000000	66.767527
1503.000000	67.042886
1502.000000	67.322859
1501.000000	67.583949
1500.000000	67.814337
1499.000000	68.032416
1498.000000	68.241612
1497.000000	68.421915
1496.000000	68.585036
1495.000000	68.767073
1494.000000	68.962173
1493.000000	69.141794
1492.000000	69.314730
1491.000000	69.511936
1490.000000	69.714612
1489.000000	69.868680
1488.000000	69.971681
1487.000000	70.055313
1486.000000	70.111411
1485.000000	70.097903
1484.000000	70.001183
1483.000000	69.827429
1482.000000	69.542172
1481.000000	69.094969
1480.000000	68.482315
1479.000000	67.687811
1478.000000	66.590093
1477.000000	65.055262
1476.000000	63.106882
1475.000000	60.864907
1474.000000	58.348770
1473.000000	55.596460
1472.000000	52.970942
1471.000000	50.921172
1470.000000	49.525403
1469.000000	48.626653
1468.000000	48.143775
1467.000000	48.119537
1466.000000	48.639819
1465.000000	49.697245
1464.000000	51.072221
1463.000000	52.417161
1462.000000	53.478526
1461.000000	54.157568
1460.000000	54.420191
1459.000000	54.209890
1458.000000	53.433670
1457.000000	52.193616
1456.000000	50.982977
1455.000000	50.185011
1454.000000	49.749820
1453.000000	49.511933
1452.000000	49.387215
1451.000000	49.350537
1450.000000	49.399604
1449.000000	49.552759
1448.000000	49.826690
1447.000000	50.192545
1446.000000	50.601847
1445.000000	51.051814
1444.000000	51.587960
1443.000000	52.259186
1442.000000	53.093032
1441.000000	54.095214
1440.000000	55.256756
1439.000000	56.582213
1438.000000	58.105066
1437.000000	59.785990
1436.000000	61.385466
1435.000000	62.651703
1434.000000	63.589845
1433.000000	64.350453
1432.000000	65.029557
1431.000000	65.641414
1430.000000	66.181116
1429.000000	66.655852
1428.000000	67.065430
1427.000000	67.410145
1426.000000	67.713980
1425.000000	68.000498
1424.000000	68.266694
1423.000000	68.502728
1422.000000	68.723688
1421.000000	68.956452
1420.000000	69.205680
1419.000000	69.447854
1418.000000	69.664822
1417.000000	69.866967
1416.000000	70.066426
1415.000000	70.268558
1414.000000	70.483220
1413.000000	70.713622
1412.000000	70.945519
1411.000000	71.161565
1410.000000	71.359630
1409.000000	71.545898
1408.000000	71.716616
1407.000000	71.866145
1406.000000	72.004972
1405.000000	72.144517
1404.000000	72.275394
1403.000000	72.376381
1402.000000	72.421890
1401.000000	72.359937
1400.000000	72.111377
1399.000000	71.660904
1398.000000	71.138438
1397.000000	70.738821
1396.000000	70.587657
1395.000000	70.692336
1394.000000	70.950881
1393.000000	71.234131
1392.000000	71.495959
1391.000000	71.783305
1390.000000	72.167463
1389.000000	72.678511
1388.000000	73.277112
1387.000000	73.869040
1386.000000	74.365065
1385.000000	74.727467
1384.000000	74.963831
1383.000000	75.108759
1382.000000	75.214134
1381.000000	75.323018
1380.000000	75.440223
1379.000000	75.536262
1378.000000	75.565831
1377.000000	75.456316
1376.000000	75.052204
1375.000000	74.079569
1374.000000	72.195230
1373.000000	69.152868
1372.000000	64.987637
1371.000000	60.126157
1370.000000	55.416844
1369.000000	51.954225
1368.000000	50.555156
1367.000000	51.202528
1366.000000	53.094999
1365.000000	55.201766
1364.000000	56.674342
1363.000000	57.019667
1362.000000	56.264648
1361.000000	55.016909
1360.000000	54.176341
1359.000000	54.472362
1358.000000	56.129347
1357.000000	58.788377
1356.000000	61.770155
1355.000000	64.484068
1354.000000	66.667322
1353.000000	68.341507
1352.000000	69.630789
1351.000000	70.645628
1350.000000	71.466383
1349.000000	72.141673
1348.000000	72.692350
1347.000000	73.137493
1346.000000	73.509816
1345.000000	73.837453
1344.000000	74.133529
1343.000000	74.409219
1342.000000	74.686392
1341.000000	74.979394
1340.000000	75.276012
1339.000000	75.553815
1338.000000	75.802657
1337.000000	76.017634
1336.000000	76.183495
1335.000000	76.280128
1334.000000	76.290966
1333.000000	76.179844
1332.000000	75.869947
1331.000000	75.262720
1330.000000	74.280184
1329.000000	72.894900
1328.000000	71.104391
1327.000000	68.891120
1326.000000	66.241077
1325.000000	63.264591
1324.000000	60.347523
1323.000000	58.090538
1322.000000	56.957076
1321.000000	56.947723
1320.000000	57.649714
1319.000000	58.582103
1318.000000	59.490754
1317.000000	60.349579
1316.000000	61.191453
1315.000000	62.022353
1314.000000	62.849944
1313.000000	63.726492
1312.000000	64.726996
1311.000000	65.886587
1310.000000	67.156433
1309.000000	68.410744
1308.000000	69.499342
1307.000000	70.311567
1306.000000	70.806651
1305.000000	70.976752
1304.000000	70.807253
1303.000000	70.274278
1302.000000	69.364640
1301.000000	68.112399
1300.000000	66.643342
1299.000000	65.200739
1298.000000	64.073014
1297.000000	63.440356
1296.000000	63.270440
1295.000000	63.345576
1294.000000	63.375779
1293.000000	63.103629
1292.000000	62.363072
1291.000000	61.096539
1290.000000	59.320674
1289.000000	57.094798
1288.000000	54.568897
1287.000000	52.069077
1286.000000	50.057857
1285.000000	48.926071
1284.000000	48.799298
1283.000000	49.530596
1282.000000	50.877305
1281.000000	52.652456
1280.000000	54.715501
1279.000000	56.852912
1278.000000	58.739675
1277.000000	60.065750
1276.000000	60.692696
1275.000000	60.697140
1274.000000	60.306127
1273.000000	59.818445
1272.000000	59.550305
1271.000000	59.772895
1270.000000	60.616575
1269.000000	62.011276
1268.000000	63.731539
1267.000000	65.519875
1266.000000	67.188403
1265.000000	68.645748
1264.000000	69.869591
1263.000000	70.872932
1262.000000	71.684831
1261.000000	72.337589
1260.000000	72.860274
1259.000000	73.283288
1258.000000	73.648789
1257.000000	73.994552
1256.000000	74.338087
1255.000000	74.681615
1254.000000	75.021943
1253.000000	75.350251
1252.000000	75.647178
1251.000000	75.894988
1250.000000	76.092766
1249.000000	76.251745
1248.000000	76.384264
1247.000000	76.505537
1246.000000	76.637400
1245.000000	76.796456
1244.000000	76.980199
1243.000000	77.173645
1242.000000	77.362726
1241.000000	77.532566
1240.000000	77.662526
1239.000000	77.736648
1238.000000	77.757930
1237.000000	77.741199
1236.000000	77.697559
1235.000000	77.635702
1234.000000	77.567211
1233.000000	77.499244
1232.000000	77.424975
1231.000000	77.330633
1230.000000	77.207927
1229.000000	77.047932
1228.000000	76.832728
1227.000000	76.541776
1226.000000	76.156946
1225.000000	75.656237
1224.000000	74.998122
1223.000000	74.130147
1222.000000	73.005171
1221.000000	71.579333
1220.000000	69.827004
1219.000000	67.758360
1218.000000	65.432364
1217.000000	62.946064
1216.000000	60.420117
1215.000000	57.998947
1214.000000	55.843050
1213.000000	54.107454
1212.000000	52.913667
1211.000000	52.326960
1210.000000	52.309227
1209.000000	52.717540
1208.000000	53.349385
1207.000000	53.995142
1206.000000	54.482330
1205.000000	54.689124
1204.000000	54.548832
1203.000000	54.049433
1202.000000	53.237198
1201.000000	52.223796
1200.000000	51.194677
1199.000000	50.383631
1198.000000	50.001517
1197.000000	50.156278
1196.000000	50.837671
1195.000000	51.948648
1194.000000	53.357580
1193.000000	54.946850
1192.000000	56.624769
1191.000000	58.329249
1190.000000	60.012192
1189.000000	61.631601
1188.000000	63.151206
1187.000000	64.544356
1186.000000	65.797515
1185.000000	66.911927
1184.000000	67.900091
1183.000000	68.775231
1182.000000	69.550399
1181.000000	70.230985
1180.000000	70.816358
1179.000000	71.310107
1178.000000	71.718626
1177.000000	72.046157
1176.000000	72.286332
1175.000000	72.429537
1174.000000	72.472683
1173.000000	72.403830
1172.000000	72.194145
1171.000000	71.796909
1170.000000	71.153484
1169.000000	70.203444
1168.000000	68.894056
1167.000000	67.228138
1166.000000	65.303663
1165.000000	63.319012
1164.000000	61.537313
1163.000000	60.224652
1162.000000	59.562897
1161.000000	59.591142
1160.000000	60.215506
1159.000000	61.251332
1158.000000	62.496933
1157.000000	63.776518
1156.000000	64.963551
1155.000000	65.986843
1154.000000	66.817799
1153.000000	67.451637
1152.000000	67.888928
1151.000000	68.131376
1150.000000	68.175420
1149.000000	68.015252
1148.000000	67.628534
1147.000000	66.979932
1146.000000	66.028718
1145.000000	64.709834
1144.000000	62.946558
1143.000000	60.664241
1142.000000	57.833593
1141.000000	54.522297
1140.000000	50.917813
1139.000000	47.308207
1138.000000	43.972553
1137.000000	41.056569
1136.000000	38.528736
1135.000000	36.257396
1134.000000	34.140620
1133.000000	32.247958
1132.000000	30.881922
1131.000000	30.456164
1130.000000	31.304346
1129.000000	33.474077
1128.000000	36.687357
1127.000000	40.427298
1126.000000	44.079125
1125.000000	47.082901
1124.000000	49.023905
1123.000000	49.669918
1122.000000	48.970978
1121.000000	47.062988
1120.000000	44.187435
1119.000000	40.654134
1118.000000	36.854433
1117.000000	33.318088
1116.000000	30.699615
1115.000000	29.598365
1114.000000	30.278943
1113.000000	32.517664
1112.000000	35.690350
1111.000000	38.963833
1110.000000	41.588236
1109.000000	43.188170
1108.000000	43.912539
1107.000000	44.303523
1106.000000	44.926359
1105.000000	46.036588
1104.000000	47.494576
1103.000000	48.902900
1102.000000	49.767521
1101.000000	49.676846
1100.000000	48.479210
1099.000000	46.449323
1098.000000	44.289082
1097.000000	42.879372
1096.000000	42.878380
1095.000000	44.421351
1094.000000	47.105234
1093.000000	50.257829
1092.000000	53.302488
1091.000000	55.933830
1090.000000	58.095229
1089.000000	59.855336
1088.000000	61.306117
1087.000000	62.524248
1086.000000	63.569985
1085.000000	64.484823
1084.000000	65.286568
1083.000000	65.990073
1082.000000	66.609636
1081.000000	67.156498
1080.000000	67.632399
1079.000000	68.031031
1078.000000	68.348442
1077.000000	68.569317
1076.000000	68.657852
1075.000000	68.566466
1074.000000	68.232269
1073.000000	67.579353
1072.000000	66.489584
1071.000000	64.797168
1070.000000	62.304880
1069.000000	58.772084
1068.000000	54.014171
1067.000000	48.052874
1066.000000	41.295033
1065.000000	34.566741
1064.000000	28.896329
1063.000000	25.065974
1062.000000	23.168685
1061.000000	22.523682
1060.000000	22.073223
1059.000000	21.051270
1058.000000	19.401583
1057.000000	17.768467
1056.000000	17.070838
1055.000000	17.918157
1054.000000	20.326420
1053.000000	23.810709
1052.000000	27.732000
1051.000000	31.590406
1050.000000	35.102475
1049.000000	38.186763
1048.000000	40.888307
1047.000000	43.299618
1046.000000	45.484821
1045.000000	47.467491
1044.000000	49.244466
1043.000000	50.814881
1042.000000	52.186849
1041.000000	53.367818
1040.000000	54.375467
1039.000000	55.234417
1038.000000	55.971606
1037.000000	56.610054
1036.000000	57.164214
1035.000000	57.649153
1034.000000	58.075418
1033.000000	58.445618
1032.000000	58.759916
1031.000000	59.021851
1030.000000	59.241717
1029.000000	59.428883
1028.000000	59.588229
1027.000000	59.722971
1026.000000	59.830980
1025.000000	59.902423
1024.000000	59.920269
1023.000000	59.865663
1022.000000	59.723123
1021.000000	59.472331
1020.000000	59.089649
1019.000000	58.548544
1018.000000	57.812422
1017.000000	56.836724
1016.000000	55.570281
1015.000000	53.989615
1014.000000	52.133751
1013.000000	50.130602
1012.000000	48.196794
1011.000000	46.574863
1010.000000	45.411522
1009.000000	44.651174
1008.000000	44.063339
1007.000000	43.413641
1006.000000	42.693059
1005.000000	42.197425
1004.000000	42.366489
1003.000000	43.483561
1002.000000	45.451303
1001.000000	47.854260
1000.000000	50.191275
999.000000	52.083210
998.000000	53.341688
997.000000	53.937505
996.000000	53.960548
995.000000	53.602543
994.000000	53.141981
993.000000	52.890453
992.000000	53.108761
991.000000	53.907721
990.000000	55.198892
989.000000	56.747577
988.000000	58.307703
987.000000	59.718860
986.000000	60.926753
985.000000	61.944881
984.000000	62.812961
983.000000	63.573898
982.000000	64.262374
981.000000	64.894757
980.000000	65.468884
979.000000	65.980067
978.000000	66.424810
977.000000	66.802831
976.000000	67.119369
975.000000	67.391079
974.000000	67.645698
973.000000	67.908211
972.000000	68.192885
971.000000	68.504171
970.000000	68.836546
969.000000	69.171860
968.000000	69.482771
967.000000	69.747033
966.000000	69.957981
965.000000	70.121877
964.000000	70.253844
963.000000	70.378172
962.000000	70.523810
961.000000	70.710161
960.000000	70.937247
959.000000	71.191234
958.000000	71.452376
957.000000	71.697050
956.000000	71.902130
955.000000	72.057622
954.000000	72.174002
953.000000	72.273714
952.000000	72.378802
951.000000	72.507737
950.000000	72.673522
949.000000	72.876046
948.000000	73.098777
947.000000	73.319146
946.000000	73.520730
945.000000	73.693812
944.000000	73.833621
943.000000	73.946408
942.000000	74.051796
941.000000	74.170219
940.000000	74.309356
939.000000	74.466129
938.000000	74.634045
937.000000	74.802129
936.000000	74.953997
935.000000	75.078506
934.000000	75.180356
933.000000	75.274898
932.000000	75.376116
931.000000	75.494570
930.000000	75.638170
929.000000	75.803989
928.000000	75.972245
927.000000	76.117392
926.000000	76.225366
925.000000	76.295934
924.000000	76.337383
923.000000	76.368339
922.000000	76.418871
921.000000	76.515848
920.000000	76.665902
919.000000	76.855178
918.000000	77.060202
917.000000	77.251133
916.000000	77.393595
915.000000	77.463461
914.000000	77.464429
913.000000	77.425445
912.000000	77.382112
911.000000	77.365902
910.000000	77.395742
909.000000	77.456512
908.000000	77.485510
907.000000	77.380686
906.000000	77.035141
905.000000	76.359826
904.000000	75.308198
903.000000	73.932035
902.000000	72.437820
901.000000	71.167848
900.000000	70.473943
899.000000	70.546914
898.000000	71.314711
897.000000	72.502346
896.000000	73.783651
895.000000	74.919260
894.000000	75.808206
893.000000	76.446472
892.000000	76.878385
891.000000	77.168370
890.000000	77.389113
889.000000	77.595824
888.000000	77.812319
887.000000	78.024328
886.000000	78.178692
885.000000	78.184711
884.000000	77.944201
883.000000	77.430219
882.000000	76.734036
881.000000	76.013741
880.000000	75.373711
879.000000	74.799251
878.000000	74.224529
877.000000	73.660867
876.000000	73.257501
875.000000	73.211902
874.000000	73.616852
873.000000	74.377520
872.000000	75.278612
871.000000	76.124726
870.000000	76.826743
869.000000	77.389687
868.000000	77.849144
867.000000	78.233749
866.000000	78.556001
865.000000	78.815542
864.000000	79.002334
863.000000	79.114769
862.000000	79.173118
861.000000	79.212767
860.000000	79.268781
859.000000	79.367924
858.000000	79.524860
857.000000	79.731593
856.000000	79.952683
855.000000	80.141531
854.000000	80.261901
853.000000	80.296879
852.000000	80.250317
851.000000	80.152445
850.000000	80.057733
849.000000	80.022534
848.000000	80.080328
847.000000	80.235283
846.000000	80.466917
845.000000	80.730444
844.000000	80.962110
843.000000	81.103516
842.000000	81.129911
841.000000	81.055252
840.000000	80.920155
839.000000	80.782755
838.000000	80.707506
837.000000	80.740510
836.000000	80.888266
835.000000	81.120385
834.000000	81.386579
833.000000	81.628660
832.000000	81.790790
831.000000	81.840695
830.000000	81.788280
829.000000	81.679470
828.000000	81.572608
827.000000	81.522139
826.000000	81.568492
825.000000	81.722057
824.000000	81.952657
823.000000	82.204316
822.000000	82.422910
821.000000	82.570158
820.000000	82.626290
819.000000	82.598262
818.000000	82.522143
817.000000	82.444177
816.000000	82.395746
815.000000	82.387345
814.000000	82.413896
813.000000	82.452522
812.000000	82.462866
811.000000	82.403424
810.000000	82.251707
809.000000	82.004709
808.000000	81.663011
807.000000	81.226443
806.000000	80.691312
805.000000	80.036769
804.000000	79.216935
803.000000	78.166832
802.000000	76.826777
801.000000	75.149794
800.000000	73.107238
799.000000	70.708991
798.000000	68.008318
797.000000	65.094648
796.000000	62.073297
795.000000	59.058086
794.000000	56.164544
793.000000	53.503828
792.000000	51.183010
791.000000	49.304770
790.000000	47.961194
789.000000	47.207994
788.000000	47.058112
787.000000	47.470965
786.000000	48.356925
785.000000	49.592674
784.000000	51.029194
783.000000	52.507569
782.000000	53.868159
781.000000	54.972319
780.000000	55.723919
779.000000	56.093062
778.000000	56.123458
777.000000	55.911026
776.000000	55.559755
775.000000	55.142114
774.000000	54.698549
773.000000	54.265665
772.000000	53.914451
771.000000	53.755389
770.000000	53.908018
769.000000	54.448078
768.000000	55.377213
767.000000	56.630769
766.000000	58.113599
765.000000	59.738228
764.000000	61.434814
763.000000	63.148221
762.000000	64.828136
761.000000	66.422545
760.000000	67.876966
759.000000	69.149050
758.000000	70.229321
757.000000	71.144721
756.000000	71.944540
755.000000	72.681550
754.000000	73.399371
753.000000	74.117557
752.000000	74.822319
751.000000	75.476600
750.000000	76.041969
749.000000	76.497002
748.000000	76.844007
747.000000	77.111832
746.000000	77.350967
745.000000	77.613309
744.000000	77.927605
743.000000	78.288182
742.000000	78.658766
741.000000	78.983953
740.000000	79.206693
739.000000	79.293692
738.000000	79.252610
737.000000	79.127092
736.000000	78.977975
735.000000	78.864599
734.000000	78.827092
733.000000	78.869020
732.000000	78.952428
731.000000	79.014368
730.000000	78.992724
729.000000	78.845053
728.000000	78.559868
727.000000	78.162152
726.000000	77.704839
725.000000	77.248982
724.000000	76.839884
723.000000	76.478336
722.000000	76.084262
721.000000	75.487058
720.000000	74.487633
719.000000	72.978832
718.000000	71.024802
717.000000	68.841500
716.000000	66.723903
715.000000	64.970670
714.000000	63.819826
713.000000	63.394303
712.000000	63.674690
711.000000	64.517253
710.000000	65.714338
709.000000	67.058131
708.000000	68.380523
707.000000	69.579379
706.000000	70.632589
705.000000	71.584762
704.000000	72.505765
703.000000	73.454358
702.000000	74.458973
701.000000	75.505786
700.000000	76.536360
699.000000	77.468634
698.000000	78.233443
697.000000	78.801047
696.000000	79.188589
695.000000	79.456605
694.000000	79.690475
693.000000	79.967877
692.000000	80.332005
691.000000	80.778305
690.000000	81.255680
689.000000	81.681619
688.000000	81.977453
687.000000	82.114336
686.000000	82.122853
685.000000	82.066586
684.000000	82.020731
683.000000	82.056332
682.000000	82.213857
681.000000	82.478520
680.000000	82.786356
679.000000	83.058691
678.000000	83.222368
677.000000	83.221371
676.000000	83.081387
675.000000	82.866852
674.000000	82.671469
673.000000	82.655012
672.000000	82.986186
671.000000	83.704263
670.000000	84.664486
669.000000	85.456860
668.000000	85.369712
667.000000	84.410124
666.000000	83.547960
665.000000	83.087060
664.000000	82.833094
663.000000	82.693474
662.000000	82.708626
661.000000	82.907157
660.000000	83.232238
659.000000	83.578784
658.000000	83.845690
657.000000	83.949623
656.000000	83.868239
655.000000	83.623856
654.000000	83.298029
653.000000	83.023348
652.000000	82.905808
651.000000	82.974658
650.000000	83.191530
649.000000	83.470542
648.000000	83.689018
647.000000	83.731373
646.000000	83.560123
645.000000	83.228550
644.000000	82.823535
643.000000	82.431651
642.000000	82.142248
641.000000	82.023526
640.000000	82.075019
639.000000	82.222843
638.000000	82.366108
637.000000	82.416691
636.000000	82.307586
635.000000	82.012551
634.000000	81.579910
633.000000	81.117171
632.000000	80.728073
631.000000	80.473361
630.000000	80.369909
629.000000	80.387266
628.000000	80.441523
627.000000	80.422120
626.000000	80.247829
625.000000	79.900768
624.000000	79.412929
623.000000	78.850120
622.000000	78.308215
621.000000	77.884481
620.000000	77.621991
619.000000	77.475430
618.000000	77.327213
617.000000	77.046929
616.000000	76.559772
615.000000	75.873162
614.000000	75.046777
613.000000	74.143588
612.000000	73.210563
611.000000	72.289982
610.000000	71.409600
609.000000	70.549173
608.000000	69.640075
607.000000	68.602899
606.000000	67.377218
605.000000	65.928443
604.000000	64.262792
603.000000	62.443159
602.000000	60.552698
601.000000	58.642609
600.000000	56.737066
599.000000	54.863122
598.000000	53.027125
597.000000	51.184393
596.000000	49.293117
595.000000	47.379155
594.000000	45.505766
593.000000	43.707503
592.000000	42.019868
591.000000	40.520951
590.000000	39.265421
589.000000	38.214060
588.000000	37.281691
587.000000	36.408540
586.000000	35.526837
585.000000	34.529851
584.000000	33.357972
583.000000	32.074450
582.000000	30.800122
581.000000	29.632022
580.000000	28.674498
579.000000	28.078891
578.000000	27.947041
577.000000	28.254268
576.000000	28.908064
575.000000	29.799027
574.000000	30.770786
573.000000	31.634242
572.000000	32.302221
571.000000	32.871140
570.000000	33.533841
569.000000	34.440415
568.000000	35.645153
567.000000	37.101418
566.000000	38.648642
565.000000	40.076103
564.000000	41.256780
563.000000	42.197724
562.000000	42.967137
561.000000	43.624427
560.000000	44.232170
559.000000	44.866262
558.000000	45.566762
557.000000	46.308776
556.000000	47.047310
555.000000	47.763859
554.000000	48.446889
553.000000	49.075143
552.000000	49.652406
551.000000	50.228073
550.000000	50.853221
549.000000	51.536204
548.000000	52.259704
547.000000	53.006799
546.000000	53.745694
545.000000	54.421462
544.000000	54.995852
543.000000	55.482431
542.000000	55.928568
541.000000	56.376325
540.000000	56.854633
539.000000	57.386844
538.000000	57.976140
537.000000	58.589577
536.000000	59.169464
535.000000	59.665003
534.000000	60.048994
533.000000	60.323290
532.000000	60.516787
531.000000	60.676464
530.000000	60.847778
529.000000	61.048629
528.000000	61.253985
527.000000	61.404376
526.000000	61.413823
525.000000	61.194822
524.000000	60.705116
523.000000	59.978237
522.000000	59.122670
521.000000	58.278404
520.000000	57.553364
519.000000	56.956189
518.000000	56.333984
517.000000	55.405280
516.000000	53.909713
515.000000	51.788558
514.000000	49.238788
513.000000	46.630246
512.000000	44.381737
511.000000	42.858187
510.000000	42.259008
509.000000	42.577946
508.000000	43.702772
507.000000	45.463355
506.000000	47.609329
505.000000	49.866875
504.000000	52.053381
503.000000	54.097776
502.000000	55.947109
501.000000	57.549386
500.000000	58.912425
499.000000	60.114137
498.000000	61.230609
497.000000	62.292044
496.000000	63.290896
495.000000	64.205478
494.000000	65.022980
493.000000	65.743087
492.000000	66.377317
491.000000	66.948661
490.000000	67.484047
489.000000	68.010878
488.000000	68.541891
487.000000	69.071111
486.000000	69.584181
485.000000	70.064578
484.000000	70.493356
483.000000	70.857016
482.000000	71.167624
481.000000	71.459008
480.000000	71.755113
479.000000	72.053591
478.000000	72.329338
477.000000	72.545889
476.000000	72.656504
475.000000	72.592708
474.000000	72.268412
473.000000	71.597330
472.000000	70.548342
471.000000	69.223985
470.000000	67.845727
469.000000	66.665527
468.000000	65.889272
467.000000	65.576804
466.000000	65.529900
465.000000	65.350543
464.000000	64.677307
463.000000	63.420134
462.000000	61.883535
461.000000	60.627756
460.000000	60.194119
459.000000	60.908708
458.000000	62.714108
457.000000	65.084494
456.000000	67.362860
455.000000	69.233109
454.000000	70.696650
453.000000	71.809358
452.000000	72.570161
451.000000	72.990103
450.000000	73.121196
449.000000	73.001529
448.000000	72.611055
447.000000	71.903991
446.000000	70.897524
445.000000	69.716550
444.000000	68.592528
443.000000	67.816323
442.000000	67.600318
441.000000	67.929318
440.000000	68.612538
439.000000	69.443098
438.000000	70.284009
437.000000	71.070282
436.000000	71.761681
435.000000	72.322642
434.000000	72.740375
433.000000	73.031883
432.000000	73.208661
431.000000	73.270721
430.000000	73.241339
429.000000	73.157378
428.000000	73.023460
427.000000	72.817915
426.000000	72.552673
425.000000	72.279732
424.000000	72.039635
423.000000	71.846907
422.000000	71.706893
421.000000	71.615487
420.000000	71.543994
419.000000	71.462825
418.000000	71.388115
417.000000	71.343166
416.000000	71.311683
415.000000	71.271050
414.000000	71.225970
413.000000	71.199034
412.000000	71.207049
411.000000	71.265062
410.000000	71.404298
409.000000	71.629026
408.000000	71.881062
407.000000	72.089428
406.000000	72.239376
405.000000	72.363363
404.000000	72.480531
403.000000	72.598814
402.000000	72.757195
401.000000	73.003204
400.000000	73.301483
