PE IR       SUBTECH     SPECTRUM    ASCII       PEDS        4.00        
   -1
23MS218-trans.asc
24/09/24
16:53:19.00
24/09/24
16:53:19.00
Administrator
Sample 1204 By Administrator Date Tuesday, September 24 2024
400.000000
#HDR
-1
-1
#GR
cm-1
%T
1.0
0.0
4000.000000
-1.000000
3601
8
102.383893
28.477181
#DATA
4000.000000	84.754881
3999.000000	84.723492
3998.000000	84.695834
3997.000000	84.671685
3996.000000	84.649171
3995.000000	84.626926
3994.000000	84.605294
3993.000000	84.584969
3992.000000	84.565103
3991.000000	84.543862
3990.000000	84.520064
3989.000000	84.493249
3988.000000	84.462552
3987.000000	84.426734
3986.000000	84.385544
3985.000000	84.340171
3984.000000	84.292415
3983.000000	84.243803
3982.000000	84.195268
3981.000000	84.147796
3980.000000	84.103280
3979.000000	84.064556
3978.000000	84.035193
3977.000000	84.018894
3976.000000	84.017837
3975.000000	84.031282
3974.000000	84.056292
3973.000000	84.091122
3972.000000	84.135889
3971.000000	84.190216
3970.000000	84.251762
3969.000000	84.315657
3968.000000	84.376271
3967.000000	84.429609
3966.000000	84.474572
3965.000000	84.512150
3964.000000	84.543310
3963.000000	84.567264
3962.000000	84.582804
3961.000000	84.591367
3960.000000	84.596214
3959.000000	84.599744
3958.000000	84.604331
3957.000000	84.612246
3956.000000	84.625297
3955.000000	84.644073
3954.000000	84.669096
3953.000000	84.702467
3952.000000	84.747178
3951.000000	84.806630
3950.000000	84.881303
3949.000000	84.964537
3948.000000	85.047050
3947.000000	85.127358
3946.000000	85.211424
3945.000000	85.301858
3944.000000	85.392775
3943.000000	85.475726
3942.000000	85.548877
3941.000000	85.619093
3940.000000	85.690518
3939.000000	85.755855
3938.000000	85.805996
3937.000000	85.840351
3936.000000	85.868178
3935.000000	85.899418
3934.000000	85.939225
3933.000000	85.988256
3932.000000	86.040694
3931.000000	86.087077
3930.000000	86.119652
3929.000000	86.140689
3928.000000	86.162739
3927.000000	86.191373
3926.000000	86.216444
3925.000000	86.227580
3924.000000	86.230623
3923.000000	86.239762
3922.000000	86.257508
3921.000000	86.278087
3920.000000	86.304764
3919.000000	86.344931
3918.000000	86.393957
3917.000000	86.438842
3916.000000	86.476855
3915.000000	86.517025
3914.000000	86.562399
3913.000000	86.607010
3912.000000	86.646327
3911.000000	86.675880
3910.000000	86.695133
3909.000000	86.707395
3908.000000	86.723605
3907.000000	86.753225
3906.000000	86.792827
3905.000000	86.830291
3904.000000	86.863519
3903.000000	86.913151
3902.000000	87.001914
3901.000000	87.116441
3900.000000	87.214145
3899.000000	87.269371
3898.000000	87.288713
3897.000000	87.292513
3896.000000	87.293947
3895.000000	87.302872
3894.000000	87.333823
3893.000000	87.383365
3892.000000	87.413730
3891.000000	87.390379
3890.000000	87.350718
3889.000000	87.358993
3888.000000	87.417620
3887.000000	87.475926
3886.000000	87.483196
3885.000000	87.442012
3884.000000	87.419744
3883.000000	87.462988
3882.000000	87.544579
3881.000000	87.603524
3880.000000	87.600882
3879.000000	87.562103
3878.000000	87.548629
3877.000000	87.575235
3876.000000	87.601214
3875.000000	87.583550
3874.000000	87.534005
3873.000000	87.519879
3872.000000	87.576476
3871.000000	87.653139
3870.000000	87.673262
3869.000000	87.644652
3868.000000	87.653754
3867.000000	87.722306
3866.000000	87.790742
3865.000000	87.825670
3864.000000	87.836552
3863.000000	87.841699
3862.000000	87.852513
3861.000000	87.861635
3860.000000	87.856999
3859.000000	87.830055
3858.000000	87.790144
3857.000000	87.764602
3856.000000	87.788943
3855.000000	87.880289
3854.000000	87.968670
3853.000000	87.943479
3852.000000	87.877061
3851.000000	87.915906
3850.000000	88.026017
3849.000000	88.110589
3848.000000	88.141772
3847.000000	88.134064
3846.000000	88.111404
3845.000000	88.090067
3844.000000	88.066183
3843.000000	88.038696
3842.000000	88.031228
3841.000000	88.058918
3840.000000	88.111170
3839.000000	88.158581
3838.000000	88.176184
3837.000000	88.169149
3836.000000	88.174641
3835.000000	88.221041
3834.000000	88.293824
3833.000000	88.350032
3832.000000	88.361659
3831.000000	88.341575
3830.000000	88.330015
3829.000000	88.351760
3828.000000	88.381825
3827.000000	88.373709
3826.000000	88.327933
3825.000000	88.300111
3824.000000	88.334639
3823.000000	88.414891
3822.000000	88.470200
3821.000000	88.433978
3820.000000	88.367929
3819.000000	88.397533
3818.000000	88.517913
3817.000000	88.622325
3816.000000	88.632614
3815.000000	88.581729
3814.000000	88.567396
3813.000000	88.607669
3812.000000	88.645133
3811.000000	88.656544
3810.000000	88.671248
3809.000000	88.711293
3808.000000	88.742493
3807.000000	88.714432
3806.000000	88.657743
3805.000000	88.670164
3804.000000	88.775363
3803.000000	88.898666
3802.000000	88.947076
3801.000000	88.892394
3800.000000	88.835595
3799.000000	88.874786
3798.000000	88.973971
3797.000000	89.048752
3796.000000	89.067700
3795.000000	89.062608
3794.000000	89.072490
3793.000000	89.098880
3792.000000	89.123121
3791.000000	89.134701
3790.000000	89.135745
3789.000000	89.136031
3788.000000	89.146733
3787.000000	89.173509
3786.000000	89.205113
3785.000000	89.222613
3784.000000	89.226444
3783.000000	89.239659
3782.000000	89.275951
3781.000000	89.321357
3780.000000	89.348793
3779.000000	89.348598
3778.000000	89.346472
3777.000000	89.366220
3776.000000	89.391968
3775.000000	89.396098
3774.000000	89.384042
3773.000000	89.382421
3772.000000	89.395941
3771.000000	89.401441
3770.000000	89.383574
3769.000000	89.362634
3768.000000	89.376336
3767.000000	89.423789
3766.000000	89.460697
3765.000000	89.457901
3764.000000	89.436119
3763.000000	89.432553
3762.000000	89.447226
3761.000000	89.459205
3760.000000	89.465110
3759.000000	89.465104
3758.000000	89.457121
3757.000000	89.447091
3756.000000	89.446265
3755.000000	89.453881
3754.000000	89.459757
3753.000000	89.474011
3752.000000	89.518598
3751.000000	89.566770
3750.000000	89.560623
3749.000000	89.523985
3748.000000	89.554381
3747.000000	89.678156
3746.000000	89.834052
3745.000000	89.929994
3744.000000	89.887458
3743.000000	89.802215
3742.000000	89.816271
3741.000000	89.883762
3740.000000	89.917734
3739.000000	89.911912
3738.000000	89.900729
3737.000000	89.913650
3736.000000	89.964776
3735.000000	90.064467
3734.000000	90.195313
3733.000000	90.301867
3732.000000	90.339606
3731.000000	90.327753
3730.000000	90.324174
3729.000000	90.349855
3728.000000	90.380190
3727.000000	90.393238
3726.000000	90.395977
3725.000000	90.412326
3724.000000	90.446632
3723.000000	90.485489
3722.000000	90.516781
3721.000000	90.540453
3720.000000	90.567032
3719.000000	90.588358
3718.000000	90.585612
3717.000000	90.563785
3716.000000	90.547717
3715.000000	90.553542
3714.000000	90.579488
3713.000000	90.620816
3712.000000	90.666747
3711.000000	90.702808
3710.000000	90.737142
3709.000000	90.781638
3708.000000	90.823060
3707.000000	90.844715
3706.000000	90.849658
3705.000000	90.853597
3704.000000	90.866655
3703.000000	90.884509
3702.000000	90.893869
3701.000000	90.889793
3700.000000	90.893446
3699.000000	90.920487
3698.000000	90.949449
3697.000000	90.954787
3696.000000	90.938355
3695.000000	90.916998
3694.000000	90.897849
3693.000000	90.883585
3692.000000	90.886684
3691.000000	90.921098
3690.000000	90.979447
3689.000000	91.023645
3688.000000	91.033607
3687.000000	91.048870
3686.000000	91.100943
3685.000000	91.156663
3684.000000	91.177579
3683.000000	91.164447
3682.000000	91.134884
3681.000000	91.088005
3680.000000	91.020340
3679.000000	90.969097
3678.000000	90.977996
3677.000000	91.044209
3676.000000	91.092469
3675.000000	91.055319
3674.000000	91.014214
3673.000000	91.066442
3672.000000	91.162363
3671.000000	91.219760
3670.000000	91.206210
3669.000000	91.146410
3668.000000	91.109899
3667.000000	91.120410
3666.000000	91.135988
3665.000000	91.120915
3664.000000	91.078419
3663.000000	91.022371
3662.000000	90.957666
3661.000000	90.886882
3660.000000	90.825923
3659.000000	90.794791
3658.000000	90.786705
3657.000000	90.762020
3656.000000	90.685011
3655.000000	90.582474
3654.000000	90.504930
3653.000000	90.448125
3652.000000	90.384983
3651.000000	90.323213
3650.000000	90.281096
3649.000000	90.251228
3648.000000	90.219445
3647.000000	90.189287
3646.000000	90.163232
3645.000000	90.128822
3644.000000	90.072238
3643.000000	89.988321
3642.000000	89.886154
3641.000000	89.781266
3640.000000	89.681807
3639.000000	89.582605
3638.000000	89.479257
3637.000000	89.380355
3636.000000	89.286955
3635.000000	89.179503
3634.000000	89.042408
3633.000000	88.896026
3632.000000	88.777556
3631.000000	88.702095
3630.000000	88.651335
3629.000000	88.566892
3628.000000	88.427279
3627.000000	88.303577
3626.000000	88.225840
3625.000000	88.137352
3624.000000	88.002207
3623.000000	87.839165
3622.000000	87.681444
3621.000000	87.544183
3620.000000	87.419458
3619.000000	87.285241
3618.000000	87.139731
3617.000000	87.010293
3616.000000	86.905345
3615.000000	86.799936
3614.000000	86.669702
3613.000000	86.516880
3612.000000	86.367540
3611.000000	86.243518
3610.000000	86.139753
3609.000000	86.035923
3608.000000	85.919500
3607.000000	85.793088
3606.000000	85.666167
3605.000000	85.538122
3604.000000	85.402218
3603.000000	85.255357
3602.000000	85.096363
3601.000000	84.926567
3600.000000	84.755602
3599.000000	84.591833
3598.000000	84.435061
3597.000000	84.284916
3596.000000	84.138110
3595.000000	83.986630
3594.000000	83.823026
3593.000000	83.649527
3592.000000	83.476278
3591.000000	83.309418
3590.000000	83.148238
3589.000000	82.992357
3588.000000	82.839582
3587.000000	82.684904
3586.000000	82.534745
3585.000000	82.398187
3584.000000	82.268963
3583.000000	82.134351
3582.000000	81.990764
3581.000000	81.844917
3580.000000	81.704272
3579.000000	81.571041
3578.000000	81.442506
3577.000000	81.318179
3576.000000	81.199392
3575.000000	81.083781
3574.000000	80.966468
3573.000000	80.843890
3572.000000	80.718045
3571.000000	80.596772
3570.000000	80.490744
3569.000000	80.410980
3568.000000	80.362473
3567.000000	80.335688
3566.000000	80.317186
3565.000000	80.303537
3564.000000	80.291963
3563.000000	80.276131
3562.000000	80.254888
3561.000000	80.233650
3560.000000	80.216891
3559.000000	80.203178
3558.000000	80.188276
3557.000000	80.171895
3556.000000	80.160423
3555.000000	80.160421
3554.000000	80.172170
3553.000000	80.189639
3552.000000	80.205503
3551.000000	80.216593
3550.000000	80.222967
3549.000000	80.225590
3548.000000	80.228574
3547.000000	80.239083
3546.000000	80.260926
3545.000000	80.292238
3544.000000	80.327437
3543.000000	80.359103
3542.000000	80.380695
3541.000000	80.388990
3540.000000	80.385886
3539.000000	80.375890
3538.000000	80.364661
3537.000000	80.357554
3536.000000	80.355640
3535.000000	80.354286
3534.000000	80.345971
3533.000000	80.326053
3532.000000	80.294448
3531.000000	80.253118
3530.000000	80.202996
3529.000000	80.144104
3528.000000	80.078093
3527.000000	80.009891
3526.000000	79.945866
3525.000000	79.889475
3524.000000	79.837705
3523.000000	79.781268
3522.000000	79.711573
3521.000000	79.626348
3520.000000	79.527171
3519.000000	79.413944
3518.000000	79.285882
3517.000000	79.146026
3516.000000	78.998887
3515.000000	78.845515
3514.000000	78.685052
3513.000000	78.518897
3512.000000	78.349428
3511.000000	78.175726
3510.000000	77.993758
3509.000000	77.801508
3508.000000	77.600819
3507.000000	77.392755
3506.000000	77.174979
3505.000000	76.947078
3504.000000	76.714826
3503.000000	76.486396
3502.000000	76.266274
3501.000000	76.053768
3500.000000	75.845231
3499.000000	75.637160
3498.000000	75.429871
3497.000000	75.228470
3496.000000	75.038852
3495.000000	74.862469
3494.000000	74.697010
3493.000000	74.540946
3492.000000	74.394078
3491.000000	74.255813
3490.000000	74.126355
3489.000000	74.009068
3488.000000	73.909513
3487.000000	73.831488
3486.000000	73.775622
3485.000000	73.740457
3484.000000	73.721783
3483.000000	73.713598
3482.000000	73.713421
3481.000000	73.726205
3480.000000	73.759135
3479.000000	73.812606
3478.000000	73.879931
3477.000000	73.954726
3476.000000	74.034798
3475.000000	74.119460
3474.000000	74.207353
3473.000000	74.297622
3472.000000	74.390012
3471.000000	74.484530
3470.000000	74.583858
3469.000000	74.693711
3468.000000	74.817524
3467.000000	74.951703
3466.000000	75.088577
3465.000000	75.222177
3464.000000	75.348841
3463.000000	75.465798
3462.000000	75.573787
3461.000000	75.679494
3460.000000	75.790828
3459.000000	75.909548
3458.000000	76.031869
3457.000000	76.154171
3456.000000	76.275198
3455.000000	76.394379
3454.000000	76.510224
3453.000000	76.621324
3452.000000	76.727487
3451.000000	76.830386
3450.000000	76.933589
3449.000000	77.040494
3448.000000	77.151609
3447.000000	77.264738
3446.000000	77.378964
3445.000000	77.495731
3444.000000	77.614657
3443.000000	77.731778
3442.000000	77.843982
3441.000000	77.952607
3440.000000	78.060470
3439.000000	78.167342
3438.000000	78.271469
3437.000000	78.373205
3436.000000	78.474553
3435.000000	78.576252
3434.000000	78.676536
3433.000000	78.773672
3432.000000	78.868259
3431.000000	78.963083
3430.000000	79.061365
3429.000000	79.164443
3428.000000	79.270369
3427.000000	79.374496
3426.000000	79.472721
3425.000000	79.564236
3424.000000	79.650856
3423.000000	79.734700
3422.000000	79.817642
3421.000000	79.902031
3420.000000	79.989697
3419.000000	80.080189
3418.000000	80.171018
3417.000000	80.259785
3416.000000	80.345832
3415.000000	80.430523
3414.000000	80.516682
3413.000000	80.606931
3412.000000	80.701509
3411.000000	80.798216
3410.000000	80.895138
3409.000000	80.992468
3408.000000	81.090616
3407.000000	81.187298
3406.000000	81.278756
3405.000000	81.363569
3404.000000	81.444062
3403.000000	81.525132
3402.000000	81.613158
3401.000000	81.714265
3400.000000	81.829608
3399.000000	81.952314
3398.000000	82.071747
3397.000000	82.181047
3396.000000	82.279367
3395.000000	82.368774
3394.000000	82.452900
3393.000000	82.537912
3392.000000	82.630278
3391.000000	82.731547
3390.000000	82.837335
3389.000000	82.942103
3388.000000	83.043543
3387.000000	83.142229
3386.000000	83.239484
3385.000000	83.336481
3384.000000	83.433545
3383.000000	83.529687
3382.000000	83.623677
3381.000000	83.715799
3380.000000	83.807204
3379.000000	83.898134
3378.000000	83.988489
3377.000000	84.079473
3376.000000	84.172615
3375.000000	84.267343
3374.000000	84.361526
3373.000000	84.454348
3372.000000	84.547154
3371.000000	84.641944
3370.000000	84.740611
3369.000000	84.844883
3368.000000	84.954957
3367.000000	85.068367
3366.000000	85.181724
3365.000000	85.293450
3364.000000	85.404254
3363.000000	85.515985
3362.000000	85.631181
3361.000000	85.752557
3360.000000	85.880666
3359.000000	86.012524
3358.000000	86.144054
3357.000000	86.273329
3356.000000	86.400210
3355.000000	86.523994
3354.000000	86.643785
3353.000000	86.760962
3352.000000	86.879182
3351.000000	87.001477
3350.000000	87.128380
3349.000000	87.258197
3348.000000	87.388032
3347.000000	87.515044
3346.000000	87.638248
3345.000000	87.759338
3344.000000	87.880065
3343.000000	87.998783
3342.000000	88.111126
3341.000000	88.213825
3340.000000	88.306868
3339.000000	88.391919
3338.000000	88.469602
3337.000000	88.538859
3336.000000	88.597270
3335.000000	88.641781
3334.000000	88.669650
3333.000000	88.677943
3332.000000	88.662949
3331.000000	88.619572
3330.000000	88.542516
3329.000000	88.428633
3328.000000	88.276570
3327.000000	88.086149
3326.000000	87.856920
3325.000000	87.586511
3324.000000	87.270821
3323.000000	86.903216
3322.000000	86.477466
3321.000000	85.988484
3320.000000	85.428740
3319.000000	84.787756
3318.000000	84.050788
3317.000000	83.201718
3316.000000	82.222743
3315.000000	81.092292
3314.000000	79.792259
3313.000000	78.311042
3312.000000	76.645311
3311.000000	74.800691
3310.000000	72.791235
3309.000000	70.646281
3308.000000	68.405390
3307.000000	66.109506
3306.000000	63.799241
3305.000000	61.513847
3304.000000	59.290599
3303.000000	57.162121
3302.000000	55.158798
3301.000000	53.312932
3300.000000	51.657788
3299.000000	50.219997
3298.000000	49.020583
3297.000000	48.075892
3296.000000	47.383693
3295.000000	46.916729
3294.000000	46.623307
3293.000000	46.440787
3292.000000	46.308967
3291.000000	46.174421
3290.000000	46.005782
3289.000000	45.800251
3288.000000	45.577898
3287.000000	45.368938
3286.000000	45.200699
3285.000000	45.091526
3284.000000	45.042972
3283.000000	45.038242
3282.000000	45.051500
3281.000000	45.058242
3280.000000	45.037684
3279.000000	44.972184
3278.000000	44.852525
3277.000000	44.683235
3276.000000	44.479095
3275.000000	44.258265
3274.000000	44.042002
3273.000000	43.857131
3272.000000	43.732990
3271.000000	43.694238
3270.000000	43.759541
3269.000000	43.941185
3268.000000	44.240706
3267.000000	44.649256
3266.000000	45.150321
3265.000000	45.722797
3264.000000	46.336807
3263.000000	46.949628
3262.000000	47.512406
3261.000000	47.978439
3260.000000	48.303955
3259.000000	48.449272
3258.000000	48.388531
3257.000000	48.111404
3256.000000	47.622305
3255.000000	46.932858
3254.000000	46.059145
3253.000000	45.026666
3252.000000	43.858057
3251.000000	42.570718
3250.000000	41.182812
3249.000000	39.721173
3248.000000	38.225985
3247.000000	36.745263
3246.000000	35.335880
3245.000000	34.063220
3244.000000	32.989498
3243.000000	32.154228
3242.000000	31.566748
3241.000000	31.202331
3240.000000	31.001797
3239.000000	30.887643
3238.000000	30.786275
3237.000000	30.650155
3236.000000	30.460312
3235.000000	30.218105
3234.000000	29.940729
3233.000000	29.651202
3232.000000	29.366377
3231.000000	29.093953
3230.000000	28.843968
3229.000000	28.639307
3228.000000	28.508654
3227.000000	28.477181
3226.000000	28.566438
3225.000000	28.794848
3224.000000	29.172857
3223.000000	29.694410
3222.000000	30.340522
3221.000000	31.084463
3220.000000	31.887825
3219.000000	32.702098
3218.000000	33.479073
3217.000000	34.181634
3216.000000	34.784600
3215.000000	35.274366
3214.000000	35.654134
3213.000000	35.946214
3212.000000	36.182200
3211.000000	36.392437
3210.000000	36.606437
3209.000000	36.853147
3208.000000	37.155093
3207.000000	37.523405
3206.000000	37.962102
3205.000000	38.472467
3204.000000	39.051127
3203.000000	39.687865
3202.000000	40.370389
3201.000000	41.089266
3200.000000	41.833596
3199.000000	42.588770
3198.000000	43.340629
3197.000000	44.079167
3196.000000	44.796054
3195.000000	45.482199
3194.000000	46.130568
3193.000000	46.737557
3192.000000	47.299092
3191.000000	47.807449
3190.000000	48.257105
3189.000000	48.648293
3188.000000	48.983672
3187.000000	49.266324
3186.000000	49.501537
3185.000000	49.699210
3184.000000	49.868530
3183.000000	50.014353
3182.000000	50.141104
3181.000000	50.254542
3180.000000	50.359586
3179.000000	50.458735
3178.000000	50.556488
3177.000000	50.662319
3176.000000	50.786170
3175.000000	50.934354
3174.000000	51.111705
3173.000000	51.323738
3172.000000	51.572825
3171.000000	51.857309
3170.000000	52.175401
3169.000000	52.527489
3168.000000	52.912837
3167.000000	53.325943
3166.000000	53.760712
3165.000000	54.213022
3164.000000	54.678138
3163.000000	55.149808
3162.000000	55.623104
3161.000000	56.094822
3160.000000	56.557725
3159.000000	56.997785
3158.000000	57.397015
3157.000000	57.736846
3156.000000	57.994636
3155.000000	58.142405
3154.000000	58.153204
3153.000000	58.007575
3152.000000	57.702838
3151.000000	57.259426
3150.000000	56.724056
3149.000000	56.161012
3148.000000	55.627641
3147.000000	55.155606
3146.000000	54.745821
3145.000000	54.373283
3144.000000	53.995850
3143.000000	53.565846
3142.000000	53.047134
3141.000000	52.424792
3140.000000	51.701754
3139.000000	50.894177
3138.000000	50.030489
3137.000000	49.149988
3136.000000	48.293462
3135.000000	47.495629
3134.000000	46.787159
3133.000000	46.198042
3132.000000	45.751793
3131.000000	45.459816
3130.000000	45.325614
3129.000000	45.345508
3128.000000	45.508785
3127.000000	45.797407
3126.000000	46.192041
3125.000000	46.678061
3124.000000	47.238617
3123.000000	47.854751
3122.000000	48.510380
3121.000000	49.194361
3120.000000	49.896704
3119.000000	50.604039
3118.000000	51.304591
3117.000000	51.990759
3116.000000	52.655257
3115.000000	53.288776
3114.000000	53.884279
3113.000000	54.439180
3112.000000	54.951258
3111.000000	55.417575
3110.000000	55.836979
3109.000000	56.211527
3108.000000	56.540905
3107.000000	56.820544
3106.000000	57.048472
3105.000000	57.228361
3104.000000	57.367585
3103.000000	57.474409
3102.000000	57.560681
3101.000000	57.643817
3100.000000	57.742146
3099.000000	57.870766
3098.000000	58.042102
3097.000000	58.266759
3096.000000	58.549416
3095.000000	58.887964
3094.000000	59.277148
3093.000000	59.711087
3092.000000	60.181645
3091.000000	60.676772
3090.000000	61.184532
3089.000000	61.694976
3088.000000	62.198491
3087.000000	62.686650
3086.000000	63.155888
3085.000000	63.607418
3084.000000	64.041604
3083.000000	64.455549
3082.000000	64.846918
3081.000000	65.217199
3080.000000	65.568760
3079.000000	65.902356
3078.000000	66.219442
3077.000000	66.523046
3076.000000	66.815472
3075.000000	67.096924
3074.000000	67.368042
3073.000000	67.631070
3072.000000	67.886575
3071.000000	68.132611
3070.000000	68.368289
3069.000000	68.596006
3068.000000	68.818790
3067.000000	69.037331
3066.000000	69.251573
3065.000000	69.462564
3064.000000	69.671099
3063.000000	69.876346
3062.000000	70.076978
3061.000000	70.272380
3060.000000	70.461697
3059.000000	70.643755
3058.000000	70.819278
3057.000000	70.991045
3056.000000	71.160733
3055.000000	71.327286
3054.000000	71.489138
3053.000000	71.646435
3052.000000	71.799729
3051.000000	71.948277
3050.000000	72.090783
3049.000000	72.226458
3048.000000	72.354997
3047.000000	72.476919
3046.000000	72.594767
3045.000000	72.712158
3044.000000	72.830691
3043.000000	72.949317
3042.000000	73.066931
3041.000000	73.183381
3040.000000	73.297465
3039.000000	73.406573
3038.000000	73.509883
3037.000000	73.610344
3036.000000	73.712422
3035.000000	73.819114
3034.000000	73.931461
3033.000000	74.048708
3032.000000	74.167870
3031.000000	74.285336
3030.000000	74.399987
3029.000000	74.513169
3028.000000	74.625510
3027.000000	74.736261
3026.000000	74.846146
3025.000000	74.957880
3024.000000	75.072555
3023.000000	75.187886
3022.000000	75.301260
3021.000000	75.412539
3020.000000	75.522785
3019.000000	75.632010
3018.000000	75.739562
3017.000000	75.845163
3016.000000	75.948134
3015.000000	76.046900
3014.000000	76.140069
3013.000000	76.226904
3012.000000	76.305928
3011.000000	76.373786
3010.000000	76.426570
3009.000000	76.460435
3008.000000	76.470600
3007.000000	76.451356
3006.000000	76.397085
3005.000000	76.303679
3004.000000	76.167983
3003.000000	75.988522
3002.000000	75.767740
3001.000000	75.511079
3000.000000	75.223322
2999.000000	74.904553
2998.000000	74.553360
2997.000000	74.176682
2996.000000	73.800646
2995.000000	73.472536
2994.000000	73.245222
2993.000000	73.150839
2992.000000	73.181466
2991.000000	73.295920
2990.000000	73.444261
2989.000000	73.588361
2988.000000	73.706966
2987.000000	73.791542
2986.000000	73.844006
2985.000000	73.874111
2984.000000	73.895384
2983.000000	73.921890
2982.000000	73.967007
2981.000000	74.040938
2980.000000	74.145752
2979.000000	74.274063
2978.000000	74.415102
2977.000000	74.562781
2976.000000	74.720007
2975.000000	74.896905
2974.000000	75.103906
2973.000000	75.341837
2972.000000	75.595980
2971.000000	75.840571
2970.000000	76.048534
2969.000000	76.198131
2968.000000	76.272136
2967.000000	76.257490
2966.000000	76.146984
2965.000000	75.939037
2964.000000	75.635929
2963.000000	75.242230
2962.000000	74.767844
2961.000000	74.226951
2960.000000	73.632071
2959.000000	72.989313
2958.000000	72.301468
2957.000000	71.580826
2956.000000	70.862017
2955.000000	70.206675
2954.000000	69.685616
2953.000000	69.343019
2952.000000	69.168174
2951.000000	69.104401
2950.000000	69.091206
2949.000000	69.099496
2948.000000	69.137073
2947.000000	69.228285
2946.000000	69.389857
2945.000000	69.613780
2944.000000	69.864037
2943.000000	70.094724
2942.000000	70.278576
2941.000000	70.425538
2940.000000	70.577464
2939.000000	70.786641
2938.000000	71.094184
2937.000000	71.516009
2936.000000	72.039586
2935.000000	72.633006
2934.000000	73.259715
2933.000000	73.888211
2932.000000	74.493648
2931.000000	75.058962
2930.000000	75.576854
2929.000000	76.047627
2928.000000	76.473595
2927.000000	76.856240
2926.000000	77.198592
2925.000000	77.505154
2924.000000	77.778406
2923.000000	78.017591
2922.000000	78.222200
2921.000000	78.394389
2920.000000	78.536850
2919.000000	78.651767
2918.000000	78.742055
2917.000000	78.811824
2916.000000	78.864642
2915.000000	78.903050
2914.000000	78.930681
2913.000000	78.952130
2912.000000	78.970676
2911.000000	78.987875
2910.000000	79.005332
2909.000000	79.024971
2908.000000	79.046800
2907.000000	79.069058
2906.000000	79.091006
2905.000000	79.113584
2904.000000	79.137160
2903.000000	79.161337
2902.000000	79.187121
2901.000000	79.216591
2900.000000	79.249933
2899.000000	79.283953
2898.000000	79.314074
2897.000000	79.335070
2896.000000	79.340370
2895.000000	79.323706
2894.000000	79.282496
2893.000000	79.217909
2892.000000	79.131100
2891.000000	79.022011
2890.000000	78.892023
2889.000000	78.745198
2888.000000	78.586105
2887.000000	78.419177
2886.000000	78.251061
2885.000000	78.090739
2884.000000	77.946456
2883.000000	77.823952
2882.000000	77.728369
2881.000000	77.664987
2880.000000	77.636444
2879.000000	77.641710
2878.000000	77.678371
2877.000000	77.743933
2876.000000	77.834314
2875.000000	77.943824
2874.000000	78.067604
2873.000000	78.202157
2872.000000	78.342975
2871.000000	78.484090
2870.000000	78.621394
2869.000000	78.754363
2868.000000	78.884373
2867.000000	79.013273
2866.000000	79.143517
2865.000000	79.277001
2864.000000	79.412730
2863.000000	79.547828
2862.000000	79.681341
2861.000000	79.814982
2860.000000	79.949996
2859.000000	80.085838
2858.000000	80.222293
2857.000000	80.360213
2856.000000	80.499431
2855.000000	80.638274
2854.000000	80.775376
2853.000000	80.909332
2852.000000	81.036013
2851.000000	81.148706
2850.000000	81.242173
2849.000000	81.315109
2848.000000	81.369111
2847.000000	81.408182
2846.000000	81.439756
2845.000000	81.472919
2844.000000	81.513922
2843.000000	81.564450
2842.000000	81.624424
2841.000000	81.694462
2840.000000	81.774795
2839.000000	81.864112
2838.000000	81.960567
2837.000000	82.062356
2836.000000	82.166924
2835.000000	82.271604
2834.000000	82.375664
2833.000000	82.480172
2832.000000	82.585360
2831.000000	82.689576
2830.000000	82.791163
2829.000000	82.889501
2828.000000	82.983710
2827.000000	83.072226
2826.000000	83.154241
2825.000000	83.230075
2824.000000	83.299829
2823.000000	83.363304
2822.000000	83.421703
2821.000000	83.477685
2820.000000	83.532997
2819.000000	83.587454
2818.000000	83.640505
2817.000000	83.692152
2816.000000	83.741972
2815.000000	83.788890
2814.000000	83.832618
2813.000000	83.874021
2812.000000	83.913684
2811.000000	83.951516
2810.000000	83.988016
2809.000000	84.024410
2808.000000	84.061253
2807.000000	84.098394
2806.000000	84.136623
2805.000000	84.177754
2804.000000	84.222597
2803.000000	84.270303
2802.000000	84.319905
2801.000000	84.370839
2800.000000	84.421652
2799.000000	84.469928
2798.000000	84.514066
2797.000000	84.553899
2796.000000	84.589368
2795.000000	84.620280
2794.000000	84.647899
2793.000000	84.675216
2792.000000	84.704878
2791.000000	84.737801
2790.000000	84.773795
2789.000000	84.811943
2788.000000	84.850055
2787.000000	84.885432
2786.000000	84.916962
2785.000000	84.945661
2784.000000	84.973144
2783.000000	85.000909
2782.000000	85.030991
2781.000000	85.065422
2780.000000	85.104501
2779.000000	85.146903
2778.000000	85.191713
2777.000000	85.238953
2776.000000	85.287936
2775.000000	85.336780
2774.000000	85.383983
2773.000000	85.428976
2772.000000	85.470727
2771.000000	85.507413
2770.000000	85.538021
2769.000000	85.563079
2768.000000	85.583574
2767.000000	85.600466
2766.000000	85.615689
2765.000000	85.632248
2764.000000	85.652503
2763.000000	85.677151
2762.000000	85.705771
2761.000000	85.736921
2760.000000	85.767454
2759.000000	85.793246
2758.000000	85.811402
2757.000000	85.820996
2756.000000	85.822001
2755.000000	85.814931
2754.000000	85.801657
2753.000000	85.785089
2752.000000	85.767292
2751.000000	85.748984
2750.000000	85.731107
2749.000000	85.715547
2748.000000	85.704062
2747.000000	85.697889
2746.000000	85.698642
2745.000000	85.708318
2744.000000	85.728035
2743.000000	85.757402
2742.000000	85.795192
2741.000000	85.839413
2740.000000	85.886634
2739.000000	85.933105
2738.000000	85.976996
2737.000000	86.018818
2736.000000	86.059901
2735.000000	86.101500
2734.000000	86.145009
2733.000000	86.191129
2732.000000	86.238162
2731.000000	86.282355
2730.000000	86.320327
2729.000000	86.350332
2728.000000	86.371769
2727.000000	86.385205
2726.000000	86.393206
2725.000000	86.399798
2724.000000	86.408324
2723.000000	86.420467
2722.000000	86.436935
2721.000000	86.457413
2720.000000	86.479749
2719.000000	86.500695
2718.000000	86.518155
2717.000000	86.532197
2716.000000	86.544190
2715.000000	86.556083
2714.000000	86.570255
2713.000000	86.588438
2712.000000	86.610428
2711.000000	86.634935
2710.000000	86.661547
2709.000000	86.690765
2708.000000	86.722358
2707.000000	86.755059
2706.000000	86.787880
2705.000000	86.820254
2704.000000	86.851008
2703.000000	86.878669
2702.000000	86.902855
2701.000000	86.924096
2700.000000	86.942496
2699.000000	86.958036
2698.000000	86.972130
2697.000000	86.987386
2696.000000	87.005516
2695.000000	87.026655
2694.000000	87.050348
2693.000000	87.075482
2692.000000	87.099229
2691.000000	87.117852
2690.000000	87.129239
2689.000000	87.133640
2688.000000	87.132054
2687.000000	87.125608
2686.000000	87.116602
2685.000000	87.108511
2684.000000	87.104174
2683.000000	87.104712
2682.000000	87.110227
2681.000000	87.120250
2680.000000	87.133352
2679.000000	87.147697
2678.000000	87.162413
2677.000000	87.177442
2676.000000	87.192288
2675.000000	87.206132
2674.000000	87.219050
2673.000000	87.231874
2672.000000	87.244957
2671.000000	87.258709
2670.000000	87.275356
2669.000000	87.298491
2668.000000	87.330638
2667.000000	87.372137
2666.000000	87.422247
2665.000000	87.479455
2664.000000	87.540137
2663.000000	87.598821
2662.000000	87.650621
2661.000000	87.692923
2660.000000	87.725154
2659.000000	87.748527
2658.000000	87.766402
2657.000000	87.783606
2656.000000	87.804435
2655.000000	87.831377
2654.000000	87.865199
2653.000000	87.904604
2652.000000	87.945709
2651.000000	87.983263
2650.000000	88.013118
2649.000000	88.033453
2648.000000	88.044186
2647.000000	88.046693
2646.000000	88.044065
2645.000000	88.040053
2644.000000	88.037305
2643.000000	88.037095
2642.000000	88.040605
2641.000000	88.049524
2640.000000	88.065412
2639.000000	88.089297
2638.000000	88.121729
2637.000000	88.161848
2636.000000	88.206341
2635.000000	88.250616
2634.000000	88.290997
2633.000000	88.325376
2632.000000	88.352634
2631.000000	88.373195
2630.000000	88.390324
2629.000000	88.409441
2628.000000	88.435536
2627.000000	88.471349
2626.000000	88.517013
2625.000000	88.569785
2624.000000	88.624187
2623.000000	88.673912
2622.000000	88.714382
2621.000000	88.743528
2620.000000	88.761131
2619.000000	88.768954
2618.000000	88.770875
2617.000000	88.771080
2616.000000	88.771881
2615.000000	88.773623
2614.000000	88.776337
2613.000000	88.780303
2612.000000	88.785373
2611.000000	88.791412
2610.000000	88.799200
2609.000000	88.809511
2608.000000	88.821251
2607.000000	88.831589
2606.000000	88.837831
2605.000000	88.838227
2604.000000	88.831799
2603.000000	88.819294
2602.000000	88.804356
2601.000000	88.792271
2600.000000	88.787026
2599.000000	88.790062
2598.000000	88.801013
2597.000000	88.817803
2596.000000	88.836060
2595.000000	88.850290
2594.000000	88.856452
2593.000000	88.853044
2592.000000	88.840369
2591.000000	88.820362
2590.000000	88.796920
2589.000000	88.774681
2588.000000	88.756867
2587.000000	88.744743
2586.000000	88.738665
2585.000000	88.738324
2584.000000	88.742263
2583.000000	88.748703
2582.000000	88.757189
2581.000000	88.768253
2580.000000	88.781747
2579.000000	88.796766
2578.000000	88.812683
2577.000000	88.829142
2576.000000	88.845310
2575.000000	88.860831
2574.000000	88.877605
2573.000000	88.898979
2572.000000	88.927267
2571.000000	88.962849
2570.000000	89.005047
2569.000000	89.052198
2568.000000	89.100666
2567.000000	89.145726
2566.000000	89.184076
2565.000000	89.214982
2564.000000	89.239665
2563.000000	89.260976
2562.000000	89.283436
2561.000000	89.311750
2560.000000	89.348475
2559.000000	89.393548
2558.000000	89.445392
2557.000000	89.501414
2556.000000	89.557998
2555.000000	89.611680
2554.000000	89.660647
2553.000000	89.704273
2552.000000	89.741864
2551.000000	89.773145
2550.000000	89.799565
2549.000000	89.823420
2548.000000	89.846061
2547.000000	89.868106
2546.000000	89.890906
2545.000000	89.916267
2544.000000	89.944737
2543.000000	89.975684
2542.000000	90.008722
2541.000000	90.043303
2540.000000	90.076988
2539.000000	90.105830
2538.000000	90.127007
2537.000000	90.140150
2536.000000	90.146318
2535.000000	90.147506
2534.000000	90.147144
2533.000000	90.149574
2532.000000	90.158202
2531.000000	90.174496
2530.000000	90.198216
2529.000000	90.227101
2528.000000	90.256478
2527.000000	90.280929
2526.000000	90.296904
2525.000000	90.303363
2524.000000	90.300489
2523.000000	90.289443
2522.000000	90.273324
2521.000000	90.256301
2520.000000	90.241358
2519.000000	90.229345
2518.000000	90.220007
2517.000000	90.212538
2516.000000	90.204842
2515.000000	90.193997
2514.000000	90.178010
2513.000000	90.156441
2512.000000	90.129557
2511.000000	90.097850
2510.000000	90.062648
2509.000000	90.025858
2508.000000	89.988931
2507.000000	89.953151
2506.000000	89.920857
2505.000000	89.895113
2504.000000	89.877923
2503.000000	89.869726
2502.000000	89.870020
2501.000000	89.877302
2500.000000	89.888163
2499.000000	89.898123
2498.000000	89.904222
2497.000000	89.905983
2496.000000	89.904734
2495.000000	89.903324
2494.000000	89.906298
2493.000000	89.918607
2492.000000	89.942834
2491.000000	89.978463
2490.000000	90.023342
2489.000000	90.074601
2488.000000	90.128692
2487.000000	90.181934
2486.000000	90.232062
2485.000000	90.278486
2484.000000	90.321147
2483.000000	90.360268
2482.000000	90.396912
2481.000000	90.432540
2480.000000	90.467802
2479.000000	90.502785
2478.000000	90.538475
2477.000000	90.577002
2476.000000	90.620248
2475.000000	90.668784
2474.000000	90.721704
2473.000000	90.776272
2472.000000	90.827695
2471.000000	90.870494
2470.000000	90.900549
2469.000000	90.916274
2468.000000	90.918524
2467.000000	90.910881
2466.000000	90.899395
2465.000000	90.890254
2464.000000	90.887292
2463.000000	90.891274
2462.000000	90.900805
2461.000000	90.912654
2460.000000	90.921953
2459.000000	90.924305
2458.000000	90.918123
2457.000000	90.904520
2456.000000	90.885322
2455.000000	90.862195
2454.000000	90.837386
2453.000000	90.813564
2452.000000	90.792808
2451.000000	90.776703
2450.000000	90.767531
2449.000000	90.767977
2448.000000	90.779660
2447.000000	90.802552
2446.000000	90.835194
2445.000000	90.874576
2444.000000	90.915473
2443.000000	90.951723
2442.000000	90.978719
2441.000000	90.994853
2440.000000	91.001798
2439.000000	91.004483
2438.000000	91.010230
2437.000000	91.025877
2436.000000	91.054712
2435.000000	91.096179
2434.000000	91.147212
2433.000000	91.202928
2432.000000	91.257216
2431.000000	91.304751
2430.000000	91.342961
2429.000000	91.371311
2428.000000	91.389457
2427.000000	91.397276
2426.000000	91.396547
2425.000000	91.390609
2424.000000	91.382589
2423.000000	91.374863
2422.000000	91.369858
2421.000000	91.370083
2420.000000	91.376817
2419.000000	91.389692
2418.000000	91.407164
2417.000000	91.426385
2416.000000	91.443079
2415.000000	91.453186
2414.000000	91.455083
2413.000000	91.449758
2412.000000	91.439390
2411.000000	91.426940
2410.000000	91.416386
2409.000000	91.411480
2408.000000	91.413693
2407.000000	91.422021
2406.000000	91.434377
2405.000000	91.448025
2404.000000	91.459270
2403.000000	91.464592
2402.000000	91.462375
2401.000000	91.452704
2400.000000	91.435620
2399.000000	91.410314
2398.000000	91.376031
2397.000000	91.332047
2396.000000	91.277346
2395.000000	91.211344
2394.000000	91.134646
2393.000000	91.049517
2392.000000	90.953528
2391.000000	90.850824
2390.000000	90.729007
2389.000000	90.606444
2388.000000	90.444506
2387.000000	90.325865
2386.000000	90.468197
2385.000000	90.329958
2384.000000	90.230158
2383.000000	90.122524
2382.000000	90.039732
2381.000000	89.965740
2380.000000	89.917318
2379.000000	89.867216
2378.000000	89.857304
2377.000000	90.044785
2376.000000	90.122979
2375.000000	90.181554
2374.000000	90.199783
2373.000000	90.194955
2372.000000	90.171132
2371.000000	90.143417
2370.000000	90.121360
2369.000000	90.110641
2368.000000	90.117686
2367.000000	90.149967
2366.000000	90.204225
2365.000000	90.279088
2364.000000	90.371989
2363.000000	90.476731
2362.000000	90.596915
2361.000000	90.724565
2360.000000	90.849810
2359.000000	90.955078
2358.000000	91.007788
2357.000000	90.983786
2356.000000	90.887637
2355.000000	90.786957
2354.000000	90.740172
2353.000000	90.750600
2352.000000	90.785873
2351.000000	90.802319
2350.000000	90.796424
2349.000000	90.774550
2348.000000	90.755273
2347.000000	90.755061
2346.000000	90.775956
2345.000000	90.830835
2344.000000	90.895325
2343.000000	90.946907
2342.000000	90.972808
2341.000000	90.980720
2340.000000	90.983832
2339.000000	90.991916
2338.000000	91.007996
2337.000000	91.028768
2336.000000	91.049100
2335.000000	91.073560
2334.000000	91.109371
2333.000000	91.149931
2332.000000	91.202818
2331.000000	91.247727
2330.000000	91.286742
2329.000000	91.301868
2328.000000	91.299520
2327.000000	91.288573
2326.000000	91.276266
2325.000000	91.271207
2324.000000	91.267177
2323.000000	91.264279
2322.000000	91.253933
2321.000000	91.227398
2320.000000	91.174820
2319.000000	91.088732
2318.000000	90.976790
2317.000000	90.845964
2316.000000	90.713735
2315.000000	90.584150
2314.000000	90.468598
2313.000000	90.363208
2312.000000	90.271493
2311.000000	90.185200
2310.000000	90.104935
2309.000000	90.023459
2308.000000	89.939060
2307.000000	89.844789
2306.000000	89.740605
2305.000000	89.625535
2304.000000	89.506605
2303.000000	89.388520
2302.000000	89.282613
2301.000000	89.194352
2300.000000	89.131249
2299.000000	89.091831
2298.000000	89.076205
2297.000000	89.076597
2296.000000	89.085657
2295.000000	89.093853
2294.000000	89.096874
2293.000000	89.092169
2292.000000	89.078647
2291.000000	89.056143
2290.000000	89.026323
2289.000000	88.992108
2288.000000	88.954866
2287.000000	88.916013
2286.000000	88.877276
2285.000000	88.841753
2284.000000	88.811042
2283.000000	88.786639
2282.000000	88.769827
2281.000000	88.761759
2280.000000	88.761410
2279.000000	88.766796
2278.000000	88.777378
2277.000000	88.793324
2276.000000	88.815380
2275.000000	88.845573
2274.000000	88.888860
2273.000000	88.950318
2272.000000	89.031737
2271.000000	89.131072
2270.000000	89.244537
2269.000000	89.366464
2268.000000	89.489704
2267.000000	89.607055
2266.000000	89.714473
2265.000000	89.810493
2264.000000	89.894829
2263.000000	89.969250
2262.000000	90.037500
2261.000000	90.104855
2260.000000	90.175198
2259.000000	90.251792
2258.000000	90.337286
2257.000000	90.432823
2256.000000	90.537333
2255.000000	90.648631
2254.000000	90.765297
2253.000000	90.884830
2252.000000	91.003282
2251.000000	91.116606
2250.000000	91.223539
2249.000000	91.324560
2248.000000	91.421325
2247.000000	91.516595
2246.000000	91.614428
2245.000000	91.717667
2244.000000	91.825896
2243.000000	91.936719
2242.000000	92.047584
2241.000000	92.155303
2240.000000	92.254936
2239.000000	92.341558
2238.000000	92.412825
2237.000000	92.469050
2236.000000	92.511935
2235.000000	92.544374
2234.000000	92.570674
2233.000000	92.595232
2232.000000	92.620871
2231.000000	92.649135
2230.000000	92.680959
2229.000000	92.715893
2228.000000	92.751331
2227.000000	92.783552
2226.000000	92.809353
2225.000000	92.826103
2224.000000	92.831705
2223.000000	92.825993
2222.000000	92.811657
2221.000000	92.793011
2220.000000	92.774269
2219.000000	92.759643
2218.000000	92.753494
2217.000000	92.758670
2216.000000	92.774919
2215.000000	92.799734
2214.000000	92.830014
2213.000000	92.862052
2212.000000	92.891415
2211.000000	92.914519
2210.000000	92.930357
2209.000000	92.939978
2208.000000	92.945281
2207.000000	92.949096
2206.000000	92.955281
2205.000000	92.967130
2204.000000	92.985965
2203.000000	93.011746
2202.000000	93.043980
2201.000000	93.081045
2200.000000	93.119875
2199.000000	93.157875
2198.000000	93.194496
2197.000000	93.230144
2196.000000	93.264526
2195.000000	93.297360
2194.000000	93.329763
2193.000000	93.363697
2192.000000	93.400592
2191.000000	93.441295
2190.000000	93.486263
2189.000000	93.534533
2188.000000	93.583122
2187.000000	93.628540
2186.000000	93.668196
2185.000000	93.699951
2184.000000	93.721515
2183.000000	93.731708
2182.000000	93.731666
2181.000000	93.723909
2180.000000	93.711069
2179.000000	93.696191
2178.000000	93.683306
2177.000000	93.676136
2176.000000	93.676687
2175.000000	93.685386
2174.000000	93.701424
2173.000000	93.721727
2172.000000	93.740685
2171.000000	93.752499
2170.000000	93.753901
2169.000000	93.744604
2168.000000	93.726534
2167.000000	93.703798
2166.000000	93.682317
2165.000000	93.667771
2164.000000	93.663568
2163.000000	93.670899
2162.000000	93.689284
2161.000000	93.716067
2160.000000	93.746399
2159.000000	93.775184
2158.000000	93.798775
2157.000000	93.814880
2156.000000	93.822469
2155.000000	93.822918
2154.000000	93.820040
2153.000000	93.817759
2152.000000	93.818480
2151.000000	93.824354
2150.000000	93.838652
2149.000000	93.864243
2148.000000	93.901374
2147.000000	93.947795
2146.000000	93.999941
2145.000000	94.052846
2144.000000	94.100487
2143.000000	94.137746
2142.000000	94.162045
2141.000000	94.173184
2140.000000	94.173132
2139.000000	94.166763
2138.000000	94.161190
2137.000000	94.162722
2136.000000	94.174508
2135.000000	94.197019
2134.000000	94.228930
2133.000000	94.266303
2132.000000	94.302412
2131.000000	94.330256
2130.000000	94.345188
2129.000000	94.345193
2128.000000	94.330250
2127.000000	94.302692
2126.000000	94.267069
2125.000000	94.228143
2124.000000	94.189248
2123.000000	94.153002
2122.000000	94.122165
2121.000000	94.098639
2120.000000	94.082531
2119.000000	94.072672
2118.000000	94.066970
2117.000000	94.061469
2116.000000	94.050628
2115.000000	94.029998
2114.000000	93.998411
2113.000000	93.957526
2112.000000	93.910924
2111.000000	93.864409
2110.000000	93.825447
2109.000000	93.800337
2108.000000	93.791918
2107.000000	93.799993
2106.000000	93.822104
2105.000000	93.852887
2104.000000	93.884633
2103.000000	93.910276
2102.000000	93.925654
2101.000000	93.928775
2100.000000	93.919320
2099.000000	93.900325
2098.000000	93.878775
2097.000000	93.862887
2096.000000	93.858895
2095.000000	93.871256
2094.000000	93.903351
2093.000000	93.955310
2092.000000	94.022482
2091.000000	94.097697
2090.000000	94.174367
2089.000000	94.247135
2088.000000	94.311693
2087.000000	94.366060
2086.000000	94.411363
2085.000000	94.450107
2084.000000	94.484849
2083.000000	94.519074
2082.000000	94.557506
2081.000000	94.603805
2080.000000	94.658759
2079.000000	94.721113
2078.000000	94.788488
2077.000000	94.856561
2076.000000	94.919254
2075.000000	94.971836
2074.000000	95.012689
2073.000000	95.041852
2072.000000	95.060282
2071.000000	95.070786
2070.000000	95.078770
2069.000000	95.090261
2068.000000	95.109224
2067.000000	95.137054
2066.000000	95.173150
2065.000000	95.215162
2064.000000	95.259646
2063.000000	95.303539
2062.000000	95.344051
2061.000000	95.377330
2060.000000	95.399613
2059.000000	95.410501
2058.000000	95.413628
2057.000000	95.413613
2056.000000	95.414226
2055.000000	95.419701
2054.000000	95.434828
2053.000000	95.461999
2052.000000	95.499711
2051.000000	95.544052
2050.000000	95.590797
2049.000000	95.635772
2048.000000	95.674617
2047.000000	95.703994
2046.000000	95.723545
2045.000000	95.735489
2044.000000	95.742566
2043.000000	95.747480
2042.000000	95.753692
2041.000000	95.764986
2040.000000	95.783965
2039.000000	95.811660
2038.000000	95.847473
2037.000000	95.888408
2036.000000	95.929376
2035.000000	95.965753
2034.000000	95.995268
2033.000000	96.017059
2032.000000	96.030885
2031.000000	96.038690
2030.000000	96.045262
2029.000000	96.055763
2028.000000	96.073130
2027.000000	96.098130
2026.000000	96.130944
2025.000000	96.170256
2024.000000	96.212444
2023.000000	96.252107
2022.000000	96.284954
2021.000000	96.308954
2020.000000	96.322616
2019.000000	96.324360
2018.000000	96.314632
2017.000000	96.297793
2016.000000	96.280768
2015.000000	96.270153
2014.000000	96.269772
2013.000000	96.279396
2012.000000	96.295528
2011.000000	96.314291
2010.000000	96.333475
2009.000000	96.351012
2008.000000	96.363395
2007.000000	96.367513
2006.000000	96.363043
2005.000000	96.351255
2004.000000	96.333880
2003.000000	96.313526
2002.000000	96.295007
2001.000000	96.283582
2000.000000	96.282662
1999.000000	96.295242
1998.000000	96.322237
1997.000000	96.361845
1996.000000	96.410298
1995.000000	96.461246
1994.000000	96.504478
1993.000000	96.529605
1992.000000	96.533561
1991.000000	96.523313
1990.000000	96.509560
1989.000000	96.499425
1988.000000	96.496030
1987.000000	96.501733
1986.000000	96.518779
1985.000000	96.546723
1984.000000	96.581448
1983.000000	96.617711
1982.000000	96.651762
1981.000000	96.681499
1980.000000	96.705950
1979.000000	96.725575
1978.000000	96.739405
1977.000000	96.746341
1976.000000	96.748411
1975.000000	96.750500
1974.000000	96.756838
1973.000000	96.770693
1972.000000	96.796464
1971.000000	96.837350
1970.000000	96.890227
1969.000000	96.945702
1968.000000	96.993838
1967.000000	97.028516
1966.000000	97.047825
1965.000000	97.053201
1964.000000	97.048155
1963.000000	97.035946
1962.000000	97.019804
1961.000000	97.006534
1960.000000	97.006693
1959.000000	97.026985
1958.000000	97.063380
1957.000000	97.104484
1956.000000	97.140114
1955.000000	97.164433
1954.000000	97.173851
1953.000000	97.167189
1952.000000	97.147272
1951.000000	97.118724
1950.000000	97.085919
1949.000000	97.050395
1948.000000	97.012747
1947.000000	96.977287
1946.000000	96.950434
1945.000000	96.934686
1944.000000	96.927300
1943.000000	96.926170
1942.000000	96.934685
1941.000000	96.957507
1940.000000	96.994369
1939.000000	97.037515
1938.000000	97.074442
1937.000000	97.096668
1936.000000	97.106226
1935.000000	97.111792
1934.000000	97.120984
1933.000000	97.139339
1932.000000	97.171626
1931.000000	97.219806
1930.000000	97.281861
1929.000000	97.348467
1928.000000	97.408549
1927.000000	97.457447
1926.000000	97.494117
1925.000000	97.515731
1924.000000	97.515010
1923.000000	97.496563
1922.000000	97.481071
1921.000000	97.483614
1920.000000	97.497785
1919.000000	97.506263
1918.000000	97.502777
1917.000000	97.498501
1916.000000	97.505260
1915.000000	97.524769
1914.000000	97.550620
1913.000000	97.574028
1912.000000	97.587301
1911.000000	97.585782
1910.000000	97.568163
1909.000000	97.532935
1908.000000	97.481979
1907.000000	97.424089
1906.000000	97.370623
1905.000000	97.329741
1904.000000	97.299930
1903.000000	97.280395
1902.000000	97.273809
1901.000000	97.274168
1900.000000	97.268612
1899.000000	97.251441
1898.000000	97.225404
1897.000000	97.192196
1896.000000	97.147679
1895.000000	97.096722
1894.000000	97.059104
1893.000000	97.049378
1892.000000	97.061686
1891.000000	97.080988
1890.000000	97.100433
1889.000000	97.122880
1888.000000	97.150931
1887.000000	97.185278
1886.000000	97.224950
1885.000000	97.262228
1884.000000	97.286762
1883.000000	97.297811
1882.000000	97.303017
1881.000000	97.302850
1880.000000	97.292257
1879.000000	97.274461
1878.000000	97.260914
1877.000000	97.260701
1876.000000	97.273053
1875.000000	97.294691
1874.000000	97.330649
1873.000000	97.385797
1872.000000	97.450272
1871.000000	97.503842
1870.000000	97.529920
1869.000000	97.526840
1868.000000	97.508431
1867.000000	97.495281
1866.000000	97.503211
1865.000000	97.533065
1864.000000	97.574662
1863.000000	97.622890
1862.000000	97.682844
1861.000000	97.754762
1860.000000	97.826614
1859.000000	97.889310
1858.000000	97.945948
1857.000000	97.998777
1856.000000	98.041149
1855.000000	98.070253
1854.000000	98.094014
1853.000000	98.117448
1852.000000	98.140077
1851.000000	98.167230
1850.000000	98.203335
1849.000000	98.250252
1848.000000	98.308893
1847.000000	98.378072
1846.000000	98.446100
1845.000000	98.489536
1844.000000	98.498866
1843.000000	98.495183
1842.000000	98.501993
1841.000000	98.514586
1840.000000	98.517441
1839.000000	98.508984
1838.000000	98.503434
1837.000000	98.515463
1836.000000	98.545666
1835.000000	98.593637
1834.000000	98.663100
1833.000000	98.748930
1832.000000	98.832888
1831.000000	98.890079
1830.000000	98.909409
1829.000000	98.913130
1828.000000	98.928764
1827.000000	98.956853
1826.000000	98.979276
1825.000000	98.990149
1824.000000	99.004740
1823.000000	99.038518
1822.000000	99.092405
1821.000000	99.158166
1820.000000	99.225905
1819.000000	99.285351
1818.000000	99.332278
1817.000000	99.368537
1816.000000	99.391063
1815.000000	99.398934
1814.000000	99.400575
1813.000000	99.404352
1812.000000	99.408909
1811.000000	99.407886
1810.000000	99.413309
1809.000000	99.443170
1808.000000	99.492506
1807.000000	99.546500
1806.000000	99.604288
1805.000000	99.669953
1804.000000	99.733020
1803.000000	99.777540
1802.000000	99.798258
1801.000000	99.799538
1800.000000	99.787076
1799.000000	99.766055
1798.000000	99.754629
1797.000000	99.770657
1796.000000	99.813669
1795.000000	99.874133
1794.000000	99.942086
1793.000000	100.004030
1792.000000	100.046530
1791.000000	100.064771
1790.000000	100.068728
1789.000000	100.066755
1788.000000	100.056208
1787.000000	100.034353
1786.000000	100.010371
1785.000000	99.997664
1784.000000	100.000780
1783.000000	100.021929
1782.000000	100.059433
1781.000000	100.105169
1780.000000	100.158687
1779.000000	100.219019
1778.000000	100.285031
1777.000000	100.351634
1776.000000	100.412913
1775.000000	100.464807
1774.000000	100.492462
1773.000000	100.485198
1772.000000	100.470056
1771.000000	100.480066
1770.000000	100.512912
1769.000000	100.555894
1768.000000	100.608104
1767.000000	100.673258
1766.000000	100.757087
1765.000000	100.861069
1764.000000	100.971715
1763.000000	101.056444
1762.000000	101.087396
1761.000000	101.079104
1760.000000	101.068499
1759.000000	101.065191
1758.000000	101.057624
1757.000000	101.040620
1756.000000	101.040119
1755.000000	101.077749
1754.000000	101.138430
1753.000000	101.201076
1752.000000	101.262873
1751.000000	101.321644
1750.000000	101.360356
1749.000000	101.366543
1748.000000	101.345164
1747.000000	101.311622
1746.000000	101.268996
1745.000000	101.218807
1744.000000	101.177658
1743.000000	101.156041
1742.000000	101.149648
1741.000000	101.150820
1740.000000	101.159186
1739.000000	101.184257
1738.000000	101.236097
1737.000000	101.303230
1736.000000	101.351231
1735.000000	101.334203
1734.000000	101.249130
1733.000000	101.158237
1732.000000	101.104286
1731.000000	101.063679
1730.000000	101.008047
1729.000000	100.941337
1728.000000	100.892561
1727.000000	100.881036
1726.000000	100.894974
1725.000000	100.916063
1724.000000	100.932871
1723.000000	100.941427
1722.000000	100.956242
1721.000000	100.983120
1720.000000	100.992444
1719.000000	100.935891
1718.000000	100.819937
1717.000000	100.726750
1716.000000	100.689012
1715.000000	100.674160
1714.000000	100.672410
1713.000000	100.695358
1712.000000	100.739040
1711.000000	100.797857
1710.000000	100.881151
1709.000000	100.992304
1708.000000	101.111589
1707.000000	101.208003
1706.000000	101.271671
1705.000000	101.325907
1704.000000	101.389321
1703.000000	101.463948
1702.000000	101.548569
1701.000000	101.623862
1700.000000	101.675121
1699.000000	101.721708
1698.000000	101.794176
1697.000000	101.877493
1696.000000	101.943024
1695.000000	101.984163
1694.000000	102.025520
1693.000000	102.066467
1692.000000	102.075135
1691.000000	102.046417
1690.000000	102.008624
1689.000000	101.990091
1688.000000	102.002365
1687.000000	102.043098
1686.000000	102.099930
1685.000000	102.150294
1684.000000	102.209150
1683.000000	102.297204
1682.000000	102.371545
1681.000000	102.383893
1680.000000	102.352344
1679.000000	102.325065
1678.000000	102.315545
1677.000000	102.293590
1676.000000	102.237916
1675.000000	102.173128
1674.000000	102.127629
1673.000000	102.105265
1672.000000	102.101800
1671.000000	102.106299
1670.000000	102.101351
1669.000000	102.069076
1668.000000	102.018243
1667.000000	101.972236
1666.000000	101.923138
1665.000000	101.840909
1664.000000	101.705797
1663.000000	101.533707
1662.000000	101.358414
1661.000000	101.185608
1660.000000	101.021542
1659.000000	100.884001
1658.000000	100.774717
1657.000000	100.681552
1656.000000	100.584538
1655.000000	100.423242
1654.000000	100.043381
1653.000000	99.415239
1652.000000	98.772798
1651.000000	98.288837
1650.000000	97.862170
1649.000000	97.295578
1648.000000	96.423645
1647.000000	95.212228
1646.000000	93.805064
1645.000000	92.384575
1644.000000	91.016143
1643.000000	89.664154
1642.000000	88.298129
1641.000000	86.969541
1640.000000	85.818839
1639.000000	84.956087
1638.000000	84.396378
1637.000000	84.125484
1636.000000	84.190499
1635.000000	84.610625
1634.000000	85.250918
1633.000000	85.988446
1632.000000	86.792967
1631.000000	87.665651
1630.000000	88.589140
1629.000000	89.524285
1628.000000	90.431378
1627.000000	91.271402
1626.000000	92.011830
1625.000000	92.657922
1624.000000	93.253400
1623.000000	93.826619
1622.000000	94.355136
1621.000000	94.816010
1620.000000	95.237615
1619.000000	95.661755
1618.000000	96.104912
1617.000000	96.565248
1616.000000	97.030663
1615.000000	97.458299
1614.000000	97.791165
1613.000000	98.009530
1612.000000	98.141442
1611.000000	98.211806
1610.000000	98.186400
1609.000000	98.003784
1608.000000	97.633580
1607.000000	97.048441
1606.000000	96.167239
1605.000000	94.884107
1604.000000	93.171176
1603.000000	91.095512
1602.000000	88.774379
1601.000000	86.324533
1600.000000	83.762288
1599.000000	80.911328
1598.000000	77.404527
1597.000000	72.910303
1596.000000	67.468229
1595.000000	61.615206
1594.000000	56.149968
1593.000000	51.718320
1592.000000	48.629741
1591.000000	46.906787
1590.000000	46.325295
1589.000000	46.443688
1588.000000	46.781433
1587.000000	47.000866
1586.000000	46.909924
1585.000000	46.464508
1584.000000	45.817609
1583.000000	45.263361
1582.000000	45.026115
1581.000000	45.132916
1580.000000	45.510645
1579.000000	46.099290
1578.000000	46.816069
1577.000000	47.489433
1576.000000	47.952214
1575.000000	48.214903
1574.000000	48.386512
1573.000000	48.519274
1572.000000	48.692542
1571.000000	49.110847
1570.000000	49.993464
1569.000000	51.338247
1568.000000	52.977085
1567.000000	54.831685
1566.000000	56.868232
1565.000000	58.929897
1564.000000	60.801489
1563.000000	62.407979
1562.000000	63.853274
1561.000000	65.327384
1560.000000	67.067144
1559.000000	69.181023
1558.000000	71.260729
1557.000000	72.883064
1556.000000	74.177024
1555.000000	75.393629
1554.000000	76.586300
1553.000000	77.677318
1552.000000	78.627566
1551.000000	79.487904
1550.000000	80.305617
1549.000000	81.066737
1548.000000	81.750100
1547.000000	82.392856
1546.000000	83.036400
1545.000000	83.664537
1544.000000	84.236502
1543.000000	84.748777
1542.000000	85.226674
1541.000000	85.667631
1540.000000	86.049275
1539.000000	86.386172
1538.000000	86.719990
1537.000000	87.072290
1536.000000	87.429954
1535.000000	87.783078
1534.000000	88.123472
1533.000000	88.433083
1532.000000	88.703527
1531.000000	88.950399
1530.000000	89.199250
1529.000000	89.446854
1528.000000	89.663495
1527.000000	89.845100
1526.000000	90.017355
1525.000000	90.197250
1524.000000	90.383954
1523.000000	90.570335
1522.000000	90.750346
1521.000000	90.916152
1520.000000	91.063513
1519.000000	91.201571
1518.000000	91.318217
1517.000000	91.383270
1516.000000	91.394959
1515.000000	91.392532
1514.000000	91.412451
1513.000000	91.460310
1512.000000	91.528433
1511.000000	91.622901
1510.000000	91.755144
1509.000000	91.911066
1508.000000	92.037022
1507.000000	92.107608
1506.000000	92.160919
1505.000000	92.216410
1504.000000	92.291163
1503.000000	92.389938
1502.000000	92.500411
1501.000000	92.614756
1500.000000	92.726737
1499.000000	92.831902
1498.000000	92.935002
1497.000000	93.057442
1496.000000	93.211958
1495.000000	93.401132
1494.000000	93.631800
1493.000000	93.893700
1492.000000	94.155808
1491.000000	94.387279
1490.000000	94.578612
1489.000000	94.734753
1488.000000	94.853114
1487.000000	94.948060
1486.000000	95.058526
1485.000000	95.192145
1484.000000	95.338777
1483.000000	95.506299
1482.000000	95.698732
1481.000000	95.903217
1480.000000	96.104927
1479.000000	96.311163
1478.000000	96.528477
1477.000000	96.737206
1476.000000	96.911096
1475.000000	97.059181
1474.000000	97.204003
1473.000000	97.338412
1472.000000	97.452419
1471.000000	97.551274
1470.000000	97.639840
1469.000000	97.707424
1468.000000	97.736062
1467.000000	97.697997
1466.000000	97.513890
1465.000000	97.053532
1464.000000	96.241006
1463.000000	95.081656
1462.000000	93.578292
1461.000000	91.719360
1460.000000	89.509781
1459.000000	86.930170
1458.000000	83.913445
1457.000000	80.695479
1456.000000	77.947212
1455.000000	75.998147
1454.000000	74.529966
1453.000000	73.189426
1452.000000	71.952522
1451.000000	71.020700
1450.000000	70.592889
1449.000000	70.764787
1448.000000	71.506346
1447.000000	72.625310
1446.000000	73.882260
1445.000000	75.186124
1444.000000	76.585384
1443.000000	78.090469
1442.000000	79.610045
1441.000000	81.037794
1440.000000	82.325659
1439.000000	83.484159
1438.000000	84.565106
1437.000000	85.623237
1436.000000	86.634110
1435.000000	87.518612
1434.000000	88.274288
1433.000000	88.967681
1432.000000	89.629342
1431.000000	90.228242
1430.000000	90.733995
1429.000000	91.166177
1428.000000	91.553495
1427.000000	91.908760
1426.000000	92.242936
1425.000000	92.568558
1424.000000	92.893010
1423.000000	93.199418
1422.000000	93.473675
1421.000000	93.721868
1420.000000	93.937385
1419.000000	94.092298
1418.000000	94.193615
1417.000000	94.295886
1416.000000	94.425970
1415.000000	94.571635
1414.000000	94.725167
1413.000000	94.895278
1412.000000	95.080907
1411.000000	95.253677
1410.000000	95.389476
1409.000000	95.490086
1408.000000	95.546524
1407.000000	95.518195
1406.000000	95.350858
1405.000000	94.999055
1404.000000	94.459658
1403.000000	93.788726
1402.000000	93.081184
1401.000000	92.423042
1400.000000	91.865739
1399.000000	91.426874
1398.000000	91.101267
1397.000000	90.902400
1396.000000	90.899194
1395.000000	91.180460
1394.000000	91.739797
1393.000000	92.448339
1392.000000	93.165114
1391.000000	93.809268
1390.000000	94.359429
1389.000000	94.842936
1388.000000	95.312514
1387.000000	95.798262
1386.000000	96.272494
1385.000000	96.675566
1384.000000	96.964397
1383.000000	97.128387
1382.000000	97.196264
1381.000000	97.223061
1380.000000	97.249516
1379.000000	97.283336
1378.000000	97.311755
1377.000000	97.311926
1376.000000	97.241331
1375.000000	97.036112
1374.000000	96.629249
1373.000000	95.970414
1372.000000	95.014167
1371.000000	93.694101
1370.000000	91.951362
1369.000000	89.847423
1368.000000	87.668858
1367.000000	85.834901
1366.000000	84.644050
1365.000000	84.129816
1364.000000	84.140956
1363.000000	84.520576
1362.000000	85.217105
1361.000000	86.249026
1360.000000	87.587806
1359.000000	89.102021
1358.000000	90.602002
1357.000000	91.923405
1356.000000	92.987868
1355.000000	93.804383
1354.000000	94.431145
1353.000000	94.934124
1352.000000	95.356490
1351.000000	95.717758
1350.000000	96.029046
1349.000000	96.300309
1348.000000	96.541781
1347.000000	96.760901
1346.000000	96.964370
1345.000000	97.159587
1344.000000	97.351431
1343.000000	97.538847
1342.000000	97.716736
1341.000000	97.878201
1340.000000	98.015769
1339.000000	98.125894
1338.000000	98.213004
1337.000000	98.289769
1336.000000	98.369842
1335.000000	98.462005
1334.000000	98.571537
1333.000000	98.699590
1332.000000	98.838632
1331.000000	98.973690
1330.000000	99.089345
1329.000000	99.173530
1328.000000	99.211008
1327.000000	99.178607
1326.000000	99.040912
1325.000000	98.740282
1324.000000	98.199479
1323.000000	97.337447
1322.000000	96.107562
1321.000000	94.546146
1320.000000	92.799736
1319.000000	91.097466
1318.000000	89.646078
1317.000000	88.527059
1316.000000	87.709143
1315.000000	87.161789
1314.000000	86.922666
1313.000000	87.043036
1312.000000	87.480967
1311.000000	88.074924
1310.000000	88.655091
1309.000000	89.173063
1308.000000	89.721233
1307.000000	90.434900
1306.000000	91.369119
1305.000000	92.457730
1304.000000	93.564551
1303.000000	94.558488
1302.000000	95.362601
1301.000000	95.962953
1300.000000	96.381543
1299.000000	96.647389
1298.000000	96.783569
1297.000000	96.801562
1296.000000	96.700635
1295.000000	96.464816
1294.000000	96.070680
1293.000000	95.499229
1292.000000	94.743753
1291.000000	93.825707
1290.000000	92.787893
1289.000000	91.655229
1288.000000	90.384552
1287.000000	88.857516
1286.000000	86.969076
1285.000000	84.765642
1284.000000	82.515386
1283.000000	80.637855
1282.000000	79.526116
1281.000000	79.368903
1280.000000	80.103143
1279.000000	81.478852
1278.000000	83.161878
1277.000000	84.841339
1276.000000	86.275813
1275.000000	87.305741
1274.000000	87.893778
1273.000000	88.178513
1272.000000	88.453137
1271.000000	89.006836
1270.000000	89.938957
1269.000000	91.120182
1268.000000	92.327305
1267.000000	93.403692
1266.000000	94.311666
1265.000000	95.081911
1264.000000	95.748999
1263.000000	96.330582
1262.000000	96.835204
1261.000000	97.271255
1260.000000	97.646711
1259.000000	97.968536
1258.000000	98.247563
1257.000000	98.495648
1256.000000	98.721018
1255.000000	98.929739
1254.000000	99.128632
1253.000000	99.324806
1252.000000	99.520750
1251.000000	99.714789
1250.000000	99.905429
1249.000000	100.090832
1248.000000	100.266064
1247.000000	100.424896
1246.000000	100.565686
1245.000000	100.692611
1244.000000	100.810411
1243.000000	100.922258
1242.000000	101.032567
1241.000000	101.147003
1240.000000	101.268404
1239.000000	101.395683
1238.000000	101.527390
1237.000000	101.661700
1236.000000	101.792004
1235.000000	101.907336
1234.000000	101.997694
1233.000000	102.056969
1232.000000	102.080097
1231.000000	102.061809
1230.000000	102.001151
1229.000000	101.895890
1228.000000	101.733273
1227.000000	101.482745
1226.000000	101.091635
1225.000000	100.488836
1224.000000	99.580610
1223.000000	98.272224
1222.000000	96.507676
1221.000000	94.299976
1220.000000	91.753427
1219.000000	89.041226
1218.000000	86.349226
1217.000000	83.814897
1216.000000	81.497907
1215.000000	79.392847
1214.000000	77.463873
1213.000000	75.684394
1212.000000	74.063354
1211.000000	72.642373
1210.000000	71.452438
1209.000000	70.501720
1208.000000	69.798258
1207.000000	69.356796
1206.000000	69.189870
1205.000000	69.283905
1204.000000	69.604742
1203.000000	70.109140
1202.000000	70.750055
1201.000000	71.512300
1200.000000	72.428011
1199.000000	73.553279
1198.000000	74.920590
1197.000000	76.509039
1196.000000	78.259883
1195.000000	80.092180
1194.000000	81.916435
1193.000000	83.656048
1192.000000	85.263854
1191.000000	86.719124
1190.000000	88.016983
1189.000000	89.163461
1188.000000	90.169753
1187.000000	91.048631
1186.000000	91.805501
1185.000000	92.443127
1184.000000	92.967303
1183.000000	93.379062
1182.000000	93.675860
1181.000000	93.854384
1180.000000	93.921551
1179.000000	93.899840
1178.000000	93.816764
1177.000000	93.698082
1176.000000	93.564838
1175.000000	93.435981
1174.000000	93.330374
1173.000000	93.265402
1172.000000	93.255473
1171.000000	93.309195
1170.000000	93.425991
1169.000000	93.595043
1168.000000	93.797849
1167.000000	94.008132
1166.000000	94.192844
1165.000000	94.320189
1164.000000	94.373411
1163.000000	94.364579
1162.000000	94.337767
1161.000000	94.357133
1160.000000	94.481590
1159.000000	94.736930
1158.000000	95.106279
1157.000000	95.545112
1156.000000	96.007306
1155.000000	96.460132
1154.000000	96.882976
1153.000000	97.261576
1152.000000	97.584337
1151.000000	97.842547
1150.000000	98.033877
1149.000000	98.167838
1148.000000	98.263743
1147.000000	98.343411
1146.000000	98.423089
1145.000000	98.505457
1144.000000	98.578712
1143.000000	98.614172
1142.000000	98.570453
1141.000000	98.405887
1140.000000	98.082551
1139.000000	97.572306
1138.000000	96.845041
1137.000000	95.861831
1136.000000	94.580181
1135.000000	92.940960
1134.000000	90.872525
1133.000000	88.289457
1132.000000	85.120203
1131.000000	81.367274
1130.000000	77.152397
1129.000000	72.747331
1128.000000	68.558870
1127.000000	65.032430
1126.000000	62.491616
1125.000000	61.046483
1124.000000	60.593452
1123.000000	60.865071
1122.000000	61.489344
1121.000000	62.060759
1120.000000	62.247677
1119.000000	61.834531
1118.000000	60.736002
1117.000000	59.076478
1116.000000	57.282828
1115.000000	56.040421
1114.000000	55.997495
1113.000000	57.426911
1112.000000	60.117807
1111.000000	63.508350
1110.000000	66.938923
1109.000000	69.870556
1108.000000	71.993064
1107.000000	73.218648
1106.000000	73.614088
1105.000000	73.351482
1104.000000	72.723763
1103.000000	72.156703
1102.000000	72.097062
1101.000000	72.815681
1100.000000	74.283815
1099.000000	76.227048
1098.000000	78.301454
1097.000000	80.246798
1096.000000	81.927822
1095.000000	83.309923
1094.000000	84.432740
1093.000000	85.382471
1092.000000	86.249901
1091.000000	87.098021
1090.000000	87.957781
1089.000000	88.839835
1088.000000	89.743143
1087.000000	90.650152
1086.000000	91.532387
1085.000000	92.359280
1084.000000	93.100960
1083.000000	93.736287
1082.000000	94.261387
1081.000000	94.693009
1080.000000	95.056087
1079.000000	95.368979
1078.000000	95.645555
1077.000000	95.892217
1076.000000	96.101941
1075.000000	96.253903
1074.000000	96.314810
1073.000000	96.247920
1072.000000	95.999838
1071.000000	95.499146
1070.000000	94.669386
1069.000000	93.421695
1068.000000	91.666019
1067.000000	89.304592
1066.000000	86.253110
1065.000000	82.494719
1064.000000	78.121630
1063.000000	73.377344
1062.000000	68.604445
1061.000000	64.117858
1060.000000	60.067067
1059.000000	56.368372
1058.000000	52.776379
1057.000000	49.131324
1056.000000	45.635488
1055.000000	42.877103
1054.000000	41.585222
1053.000000	42.217611
1052.000000	44.722895
1051.000000	48.585471
1050.000000	53.052355
1049.000000	57.467531
1048.000000	61.442622
1047.000000	64.850259
1046.000000	67.730481
1045.000000	70.188089
1044.000000	72.321842
1043.000000	74.187756
1042.000000	75.803261
1041.000000	77.170372
1040.000000	78.310060
1039.000000	79.257350
1038.000000	80.055606
1037.000000	80.755881
1036.000000	81.403500
1035.000000	82.032437
1034.000000	82.657260
1033.000000	83.277723
1032.000000	83.883989
1031.000000	84.455613
1030.000000	84.970635
1029.000000	85.416408
1028.000000	85.795549
1027.000000	86.124790
1026.000000	86.430313
1025.000000	86.743204
1024.000000	87.088431
1023.000000	87.473657
1022.000000	87.889119
1021.000000	88.311370
1020.000000	88.708064
1019.000000	89.040396
1018.000000	89.267901
1017.000000	89.354652
1016.000000	89.253324
1015.000000	88.903486
1014.000000	88.236321
1013.000000	87.181901
1012.000000	85.691862
1011.000000	83.759262
1010.000000	81.455998
1009.000000	78.946918
1008.000000	76.465731
1007.000000	74.278688
1006.000000	72.659899
1005.000000	71.844248
1004.000000	71.931655
1003.000000	72.789092
1002.000000	74.047503
1001.000000	75.255566
1000.000000	76.050691
999.000000	76.219528
998.000000	75.681537
997.000000	74.504846
996.000000	72.956980
995.000000	71.468071
994.000000	70.446209
993.000000	70.078629
992.000000	70.294298
991.000000	70.900658
990.000000	71.748857
989.000000	72.797679
988.000000	74.069722
987.000000	75.552682
986.000000	77.160448
985.000000	78.769602
984.000000	80.275812
983.000000	81.623384
982.000000	82.797343
981.000000	83.807432
980.000000	84.673887
979.000000	85.421280
978.000000	86.069488
977.000000	86.635132
976.000000	87.131665
975.000000	87.565667
974.000000	87.941199
973.000000	88.261622
972.000000	88.535461
971.000000	88.778122
970.000000	89.009116
969.000000	89.250032
968.000000	89.517870
967.000000	89.818234
966.000000	90.140996
965.000000	90.461894
964.000000	90.751033
963.000000	90.982477
962.000000	91.144197
961.000000	91.243591
960.000000	91.304504
959.000000	91.359869
958.000000	91.442120
957.000000	91.573675
956.000000	91.759623
955.000000	91.986187
954.000000	92.227273
953.000000	92.454065
952.000000	92.642976
951.000000	92.781210
950.000000	92.869235
949.000000	92.918882
948.000000	92.946192
947.000000	92.965291
946.000000	92.987523
945.000000	93.022013
944.000000	93.075282
943.000000	93.151296
942.000000	93.253370
941.000000	93.384505
940.000000	93.543638
939.000000	93.721222
938.000000	93.898932
937.000000	94.053347
936.000000	94.161379
935.000000	94.206975
934.000000	94.189297
933.000000	94.126302
932.000000	94.049903
931.000000	93.997129
930.000000	94.001027
929.000000	94.081221
928.000000	94.236075
927.000000	94.442319
926.000000	94.663414
925.000000	94.860649
924.000000	95.001755
923.000000	95.068280
922.000000	95.061236
921.000000	95.000167
920.000000	94.914505
919.000000	94.835026
918.000000	94.788742
917.000000	94.793889
916.000000	94.855211
915.000000	94.964726
914.000000	95.108432
913.000000	95.271643
912.000000	95.438679
911.000000	95.591544
910.000000	95.712560
909.000000	95.787493
908.000000	95.806812
907.000000	95.768417
906.000000	95.683294
905.000000	95.575937
904.000000	95.477194
903.000000	95.417372
902.000000	95.421074
901.000000	95.499022
900.000000	95.636343
899.000000	95.787332
898.000000	95.886908
897.000000	95.872160
896.000000	95.709586
895.000000	95.415058
894.000000	95.042880
893.000000	94.640241
892.000000	94.205102
891.000000	93.704145
890.000000	93.140501
889.000000	92.592859
888.000000	92.171532
887.000000	91.942052
886.000000	91.897642
885.000000	91.994859
884.000000	92.191063
883.000000	92.432747
882.000000	92.642863
881.000000	92.754834
880.000000	92.769759
879.000000	92.769726
878.000000	92.859667
877.000000	93.097268
876.000000	93.468253
875.000000	93.916656
874.000000	94.391112
873.000000	94.864163
872.000000	95.321434
871.000000	95.742054
870.000000	96.093021
869.000000	96.335657
868.000000	96.437576
867.000000	96.382569
866.000000	96.179116
865.000000	95.865615
864.000000	95.504997
863.000000	95.175110
862.000000	94.952899
861.000000	94.892918
860.000000	95.007703
859.000000	95.263160
858.000000	95.593084
857.000000	95.926029
856.000000	96.208430
855.000000	96.411993
854.000000	96.531330
853.000000	96.576538
852.000000	96.565576
851.000000	96.520871
850.000000	96.470157
849.000000	96.444632
848.000000	96.471787
847.000000	96.567590
846.000000	96.732955
845.000000	96.953918
844.000000	97.202445
843.000000	97.439825
842.000000	97.625386
841.000000	97.726559
840.000000	97.726932
839.000000	97.632181
838.000000	97.472879
837.000000	97.298108
836.000000	97.159879
835.000000	97.098532
834.000000	97.134848
833.000000	97.267414
832.000000	97.472771
831.000000	97.710405
830.000000	97.933434
829.000000	98.101114
828.000000	98.187525
827.000000	98.185582
826.000000	98.106192
825.000000	97.972636
824.000000	97.813578
823.000000	97.660968
822.000000	97.549996
821.000000	97.511859
820.000000	97.561386
819.000000	97.691303
818.000000	97.877411
817.000000	98.086092
816.000000	98.277522
815.000000	98.409983
814.000000	98.449661
813.000000	98.377504
812.000000	98.188477
811.000000	97.890411
810.000000	97.512757
809.000000	97.116577
808.000000	96.787858
807.000000	96.607851
806.000000	96.616210
805.000000	96.791770
804.000000	97.064345
803.000000	97.346979
802.000000	97.564825
801.000000	97.667420
800.000000	97.627988
799.000000	97.441817
798.000000	97.122283
797.000000	96.693398
796.000000	96.179253
795.000000	95.599607
794.000000	94.972304
793.000000	94.314011
792.000000	93.643703
791.000000	92.987480
790.000000	92.380079
789.000000	91.856085
788.000000	91.437344
787.000000	91.127341
786.000000	90.917225
785.000000	90.795701
784.000000	90.750122
783.000000	90.763680
782.000000	90.814010
781.000000	90.879769
780.000000	90.951396
779.000000	91.037267
778.000000	91.163960
777.000000	91.365098
776.000000	91.663134
775.000000	92.054444
774.000000	92.506626
773.000000	92.970276
772.000000	93.396833
771.000000	93.755907
770.000000	94.044637
769.000000	94.284041
768.000000	94.507200
767.000000	94.748092
766.000000	95.033691
765.000000	95.374978
764.000000	95.759530
763.000000	96.153340
762.000000	96.512696
761.000000	96.796538
760.000000	96.973426
759.000000	97.029665
758.000000	96.977359
757.000000	96.853758
756.000000	96.709333
755.000000	96.592752
754.000000	96.540474
753.000000	96.569415
752.000000	96.673352
751.000000	96.826833
750.000000	96.995472
749.000000	97.144882
748.000000	97.244567
747.000000	97.270735
746.000000	97.210546
745.000000	97.063533
744.000000	96.839428
743.000000	96.556114
742.000000	96.239434
741.000000	95.922406
740.000000	95.641921
739.000000	95.433576
738.000000	95.322735
737.000000	95.312065
736.000000	95.371793
735.000000	95.442370
734.000000	95.450985
733.000000	95.333143
732.000000	95.052443
731.000000	94.616827
730.000000	94.085214
729.000000	93.554176
728.000000	93.127225
727.000000	92.884289
726.000000	92.861229
725.000000	93.041888
724.000000	93.366555
723.000000	93.760261
722.000000	94.165506
721.000000	94.549534
720.000000	94.887023
719.000000	95.151174
718.000000	95.327005
717.000000	95.422031
716.000000	95.458387
715.000000	95.460127
714.000000	95.449631
713.000000	95.448275
712.000000	95.474058
711.000000	95.538995
710.000000	95.650132
709.000000	95.807566
708.000000	95.996276
707.000000	96.184665
706.000000	96.333979
705.000000	96.409831
704.000000	96.392668
703.000000	96.287850
702.000000	96.129790
701.000000	95.972413
700.000000	95.869018
699.000000	95.857109
698.000000	95.951192
697.000000	96.136713
696.000000	96.369466
695.000000	96.589650
694.000000	96.745559
693.000000	96.807816
692.000000	96.770520
691.000000	96.651274
690.000000	96.488613
689.000000	96.328181
688.000000	96.202327
687.000000	96.122270
686.000000	96.089144
685.000000	96.102407
684.000000	96.156075
683.000000	96.237581
682.000000	96.337541
681.000000	96.451637
680.000000	96.570688
679.000000	96.676328
678.000000	96.747988
677.000000	96.770746
676.000000	96.734534
675.000000	96.642093
674.000000	96.519443
673.000000	96.417107
672.000000	96.405442
671.000000	96.577411
670.000000	97.009058
669.000000	97.609053
668.000000	98.046243
667.000000	98.105150
666.000000	97.923348
665.000000	97.689652
664.000000	97.485157
663.000000	97.314515
662.000000	97.155469
661.000000	97.019875
660.000000	96.942353
659.000000	96.945770
658.000000	97.021652
657.000000	97.144262
656.000000	97.283485
655.000000	97.410827
654.000000	97.502866
653.000000	97.548537
652.000000	97.551372
651.000000	97.518962
650.000000	97.458165
649.000000	97.377969
648.000000	97.287565
647.000000	97.192374
646.000000	97.098413
645.000000	97.020795
644.000000	96.982303
643.000000	97.001716
642.000000	97.083006
641.000000	97.212543
640.000000	97.361130
639.000000	97.487707
638.000000	97.551698
637.000000	97.529642
636.000000	97.422073
635.000000	97.251572
634.000000	97.060890
633.000000	96.904652
632.000000	96.829112
631.000000	96.851835
630.000000	96.957598
629.000000	97.110285
628.000000	97.266355
627.000000	97.384020
626.000000	97.433218
625.000000	97.408473
624.000000	97.329872
623.000000	97.228020
622.000000	97.127059
621.000000	97.039402
620.000000	96.971471
619.000000	96.929150
618.000000	96.916055
617.000000	96.927682
616.000000	96.951217
615.000000	96.975556
614.000000	97.001418
613.000000	97.037582
612.000000	97.084538
611.000000	97.124678
610.000000	97.133129
609.000000	97.093622
608.000000	97.002608
607.000000	96.868718
606.000000	96.715245
605.000000	96.578024
604.000000	96.489648
603.000000	96.459549
602.000000	96.467810
601.000000	96.474093
600.000000	96.429110
599.000000	96.287771
598.000000	96.026749
597.000000	95.654545
596.000000	95.205196
595.000000	94.721801
594.000000	94.233743
593.000000	93.731291
592.000000	93.153779
591.000000	92.426526
590.000000	91.544685
589.000000	90.632891
588.000000	89.897006
587.000000	89.487520
586.000000	89.398157
585.000000	89.510137
584.000000	89.738749
583.000000	90.092666
582.000000	90.594960
581.000000	91.201956
580.000000	91.817690
579.000000	92.360899
578.000000	92.794901
577.000000	93.118752
576.000000	93.355343
575.000000	93.539399
574.000000	93.694121
573.000000	93.819230
572.000000	93.902822
571.000000	93.935472
570.000000	93.911942
569.000000	93.825004
568.000000	93.672103
567.000000	93.456594
566.000000	93.168095
565.000000	92.765837
564.000000	92.192374
563.000000	91.423470
562.000000	90.503615
561.000000	89.532516
560.000000	88.615086
559.000000	87.808115
558.000000	87.100601
557.000000	86.464249
556.000000	85.950645
555.000000	85.711110
554.000000	85.890159
553.000000	86.500589
552.000000	87.410984
551.000000	88.419308
550.000000	89.328547
549.000000	90.016548
548.000000	90.467615
547.000000	90.738575
546.000000	90.895990
545.000000	90.985445
544.000000	91.038969
543.000000	91.081477
542.000000	91.121393
541.000000	91.146642
540.000000	91.145485
539.000000	91.119657
538.000000	91.074322
537.000000	91.008495
536.000000	90.919256
535.000000	90.805085
534.000000	90.658148
533.000000	90.467492
532.000000	90.235658
531.000000	89.990793
530.000000	89.774410
529.000000	89.617840
528.000000	89.530412
527.000000	89.495995
526.000000	89.462240
525.000000	89.351731
524.000000	89.104683
523.000000	88.700931
522.000000	88.150366
521.000000	87.484146
520.000000	86.761363
519.000000	86.058142
518.000000	85.426102
517.000000	84.869475
516.000000	84.374435
515.000000	83.940815
514.000000	83.575566
513.000000	83.288690
512.000000	83.108886
511.000000	83.086518
510.000000	83.253864
509.000000	83.594946
508.000000	84.066053
507.000000	84.618840
506.000000	85.201803
505.000000	85.776110
504.000000	86.343149
503.000000	86.934034
502.000000	87.561806
501.000000	88.207204
500.000000	88.853080
499.000000	89.500000
498.000000	90.132619
497.000000	90.705332
496.000000	91.170557
495.000000	91.499654
494.000000	91.678902
493.000000	91.708250
492.000000	91.626937
491.000000	91.517275
490.000000	91.459993
489.000000	91.496960
488.000000	91.628669
487.000000	91.825355
486.000000	92.021422
485.000000	92.115975
484.000000	92.008837
483.000000	91.635552
482.000000	90.980474
481.000000	90.088607
480.000000	89.082822
479.000000	88.137808
478.000000	87.385700
477.000000	86.844757
476.000000	86.453759
475.000000	86.160462
474.000000	85.950729
473.000000	85.845035
472.000000	85.908394
471.000000	86.220462
470.000000	86.798100
469.000000	87.562560
468.000000	88.389491
467.000000	89.159957
466.000000	89.789824
465.000000	90.256841
464.000000	90.596800
463.000000	90.880739
462.000000	91.180668
461.000000	91.539049
460.000000	91.968624
459.000000	92.458081
458.000000	92.953456
457.000000	93.363937
456.000000	93.628216
455.000000	93.753086
454.000000	93.773333
453.000000	93.711164
452.000000	93.589489
451.000000	93.454697
450.000000	93.353580
449.000000	93.309906
448.000000	93.335001
447.000000	93.441508
446.000000	93.631011
445.000000	93.882853
444.000000	94.154188
443.000000	94.388975
442.000000	94.533704
441.000000	94.560594
440.000000	94.479965
439.000000	94.323476
438.000000	94.119729
437.000000	93.889798
436.000000	93.669437
435.000000	93.511180
434.000000	93.442215
433.000000	93.437988
432.000000	93.450456
431.000000	93.441939
430.000000	93.387573
429.000000	93.258187
428.000000	93.039492
427.000000	92.768129
426.000000	92.511017
425.000000	92.306333
424.000000	92.163499
423.000000	92.109266
422.000000	92.175978
421.000000	92.361912
420.000000	92.645263
419.000000	93.013370
418.000000	93.415259
417.000000	93.753252
416.000000	93.997393
415.000000	94.178764
414.000000	94.310096
413.000000	94.375334
412.000000	94.355409
411.000000	94.248239
410.000000	94.080699
409.000000	93.903948
408.000000	93.797161
407.000000	93.839849
406.000000	94.036103
405.000000	94.289953
404.000000	94.525213
403.000000	94.739574
402.000000	94.954259
401.000000	95.092593
400.000000	95.078474
