PE IR       SUBTECH     SPECTRUM    ASCII       PEDS        4.00        
   -1
23ms121 trans.asc
24/10/15
15:51:52.00
24/10/15
15:51:52.00
Administrator
Sample 1273 By Administrator Date Tuesday, October 15 2024
400.000000
#HDR
-1
-1
#GR
cm-1
%T
1.0
0.0
4000.000000
-1.000000
3601
8
113.673139
7.805084
#DATA
4000.000000	75.803034
3999.000000	75.749239
3998.000000	75.703117
3997.000000	75.661556
3996.000000	75.618951
3995.000000	75.574078
3994.000000	75.531632
3993.000000	75.495246
3992.000000	75.461419
3991.000000	75.423215
3990.000000	75.377003
3989.000000	75.323706
3988.000000	75.265465
3987.000000	75.203251
3986.000000	75.137162
3985.000000	75.066317
3984.000000	74.988897
3983.000000	74.903017
3982.000000	74.808500
3981.000000	74.709717
3980.000000	74.615803
3979.000000	74.536608
3978.000000	74.480103
3977.000000	74.451043
3976.000000	74.449581
3975.000000	74.471822
3974.000000	74.513273
3973.000000	74.574330
3972.000000	74.656478
3971.000000	74.757035
3970.000000	74.868676
3969.000000	74.980628
3968.000000	75.083715
3967.000000	75.173989
3966.000000	75.252240
3965.000000	75.320192
3964.000000	75.376132
3963.000000	75.413838
3962.000000	75.429743
3961.000000	75.430569
3960.000000	75.425343
3959.000000	75.419825
3958.000000	75.418937
3957.000000	75.425880
3956.000000	75.443866
3955.000000	75.475433
3954.000000	75.524759
3953.000000	75.596543
3952.000000	75.692086
3951.000000	75.809792
3950.000000	75.939771
3949.000000	76.064470
3948.000000	76.180404
3947.000000	76.311514
3946.000000	76.482456
3945.000000	76.682645
3944.000000	76.870943
3943.000000	77.013270
3942.000000	77.113951
3941.000000	77.210975
3940.000000	77.326283
3939.000000	77.444471
3938.000000	77.544570
3937.000000	77.625689
3936.000000	77.708064
3935.000000	77.805190
3934.000000	77.913482
3933.000000	78.017268
3932.000000	78.094881
3931.000000	78.137173
3930.000000	78.152159
3929.000000	78.171803
3928.000000	78.232609
3927.000000	78.323564
3926.000000	78.390954
3925.000000	78.402438
3924.000000	78.382918
3923.000000	78.379059
3922.000000	78.403401
3921.000000	78.447370
3920.000000	78.514011
3919.000000	78.600078
3918.000000	78.676954
3917.000000	78.721762
3916.000000	78.753256
3915.000000	78.809598
3914.000000	78.894858
3913.000000	78.993570
3912.000000	79.086542
3911.000000	79.155872
3910.000000	79.203816
3909.000000	79.250398
3908.000000	79.332563
3907.000000	79.461472
3906.000000	79.594847
3905.000000	79.673537
3904.000000	79.689938
3903.000000	79.718481
3902.000000	79.832133
3901.000000	79.994603
3900.000000	80.110753
3899.000000	80.142775
3898.000000	80.124665
3897.000000	80.118700
3896.000000	80.157725
3895.000000	80.260718
3894.000000	80.431197
3893.000000	80.602986
3892.000000	80.638853
3891.000000	80.488374
3890.000000	80.324371
3889.000000	80.338507
3888.000000	80.521131
3887.000000	80.714358
3886.000000	80.753691
3885.000000	80.645781
3884.000000	80.578299
3883.000000	80.669877
3882.000000	80.843226
3881.000000	80.927195
3880.000000	80.832155
3879.000000	80.673789
3878.000000	80.640282
3877.000000	80.758871
3876.000000	80.892376
3875.000000	80.899344
3874.000000	80.810879
3873.000000	80.803015
3872.000000	80.940328
3871.000000	81.073291
3870.000000	81.027744
3869.000000	80.881067
3868.000000	80.865316
3867.000000	81.010004
3866.000000	81.174821
3865.000000	81.279781
3864.000000	81.297171
3863.000000	81.252399
3862.000000	81.205253
3861.000000	81.182896
3860.000000	81.172040
3859.000000	81.148423
3858.000000	81.140637
3857.000000	81.232366
3856.000000	81.491159
3855.000000	81.848181
3854.000000	81.963120
3853.000000	81.605673
3852.000000	81.178216
3851.000000	81.109103
3850.000000	81.282228
3849.000000	81.476222
3848.000000	81.615509
3847.000000	81.698933
3846.000000	81.755326
3845.000000	81.794371
3844.000000	81.776338
3843.000000	81.714235
3842.000000	81.689609
3841.000000	81.748690
3840.000000	81.868967
3839.000000	81.966140
3838.000000	81.960756
3837.000000	81.866779
3836.000000	81.793712
3835.000000	81.833322
3834.000000	81.959559
3833.000000	82.067315
3832.000000	82.085497
3831.000000	82.043668
3830.000000	82.041031
3829.000000	82.131940
3828.000000	82.226399
3827.000000	82.204833
3826.000000	82.097332
3825.000000	82.066520
3824.000000	82.218353
3823.000000	82.478530
3822.000000	82.605690
3821.000000	82.420070
3820.000000	82.150427
3819.000000	82.148014
3818.000000	82.401967
3817.000000	82.640979
3816.000000	82.649078
3815.000000	82.495746
3814.000000	82.411468
3813.000000	82.449856
3812.000000	82.518151
3811.000000	82.592893
3810.000000	82.733490
3809.000000	82.936609
3808.000000	83.047222
3807.000000	82.931935
3806.000000	82.722617
3805.000000	82.709452
3804.000000	82.958411
3803.000000	83.276309
3802.000000	83.395196
3801.000000	83.226573
3800.000000	83.037645
3799.000000	83.074057
3798.000000	83.261787
3797.000000	83.407640
3796.000000	83.431367
3795.000000	83.400991
3794.000000	83.409387
3793.000000	83.471516
3792.000000	83.551537
3791.000000	83.613638
3790.000000	83.650111
3789.000000	83.679156
3788.000000	83.725872
3787.000000	83.795946
3786.000000	83.849367
3785.000000	83.846567
3784.000000	83.816839
3783.000000	83.839938
3782.000000	83.946119
3781.000000	84.076826
3780.000000	84.132160
3779.000000	84.083020
3778.000000	84.015970
3777.000000	84.009139
3776.000000	84.034038
3775.000000	84.041648
3774.000000	84.058384
3773.000000	84.132301
3772.000000	84.232902
3771.000000	84.274010
3770.000000	84.215865
3769.000000	84.125329
3768.000000	84.111336
3767.000000	84.173355
3766.000000	84.206684
3765.000000	84.160119
3764.000000	84.103801
3763.000000	84.133041
3762.000000	84.232903
3761.000000	84.334027
3760.000000	84.386862
3759.000000	84.352432
3758.000000	84.247639
3757.000000	84.148141
3756.000000	84.123891
3755.000000	84.183032
3754.000000	84.293585
3753.000000	84.450682
3752.000000	84.625469
3751.000000	84.665334
3750.000000	84.466053
3749.000000	84.225687
3748.000000	84.259278
3747.000000	84.604520
3746.000000	85.053130
3745.000000	85.277883
3744.000000	85.058162
3743.000000	84.731492
3742.000000	84.681920
3741.000000	84.813115
3740.000000	84.966224
3739.000000	85.116879
3738.000000	85.277757
3737.000000	85.423776
3736.000000	85.529120
3735.000000	85.629596
3734.000000	85.738101
3733.000000	85.800269
3732.000000	85.770625
3731.000000	85.704165
3730.000000	85.715403
3729.000000	85.825906
3728.000000	85.961816
3727.000000	86.051102
3726.000000	86.088891
3725.000000	86.123461
3724.000000	86.172907
3723.000000	86.224449
3722.000000	86.248473
3721.000000	86.252363
3720.000000	86.278877
3719.000000	86.310951
3718.000000	86.311307
3717.000000	86.302137
3716.000000	86.340116
3715.000000	86.452839
3714.000000	86.618192
3713.000000	86.788872
3712.000000	86.883616
3711.000000	86.855208
3710.000000	86.780350
3709.000000	86.755552
3708.000000	86.786458
3707.000000	86.841141
3706.000000	86.916394
3705.000000	87.029151
3704.000000	87.168575
3703.000000	87.277432
3702.000000	87.289423
3701.000000	87.211046
3700.000000	87.151280
3699.000000	87.176970
3698.000000	87.236012
3697.000000	87.267727
3696.000000	87.270134
3695.000000	87.268486
3694.000000	87.276087
3693.000000	87.310727
3692.000000	87.396705
3691.000000	87.529686
3690.000000	87.640128
3689.000000	87.622717
3688.000000	87.490098
3687.000000	87.409043
3686.000000	87.467546
3685.000000	87.582853
3684.000000	87.674175
3683.000000	87.729983
3682.000000	87.754568
3681.000000	87.710072
3680.000000	87.607491
3679.000000	87.579995
3678.000000	87.724905
3677.000000	87.962326
3676.000000	88.011461
3675.000000	87.736528
3674.000000	87.478097
3673.000000	87.545536
3672.000000	87.820847
3671.000000	88.055331
3670.000000	88.068792
3669.000000	87.884477
3668.000000	87.731611
3667.000000	87.736310
3666.000000	87.816753
3665.000000	87.875562
3664.000000	87.894946
3663.000000	87.873093
3662.000000	87.804313
3661.000000	87.700286
3660.000000	87.628514
3659.000000	87.649811
3658.000000	87.717494
3657.000000	87.687603
3656.000000	87.478035
3655.000000	87.221364
3654.000000	87.089604
3653.000000	87.083021
3652.000000	87.125490
3651.000000	87.170977
3650.000000	87.155911
3649.000000	87.013952
3648.000000	86.782450
3647.000000	86.588998
3646.000000	86.497732
3645.000000	86.480529
3644.000000	86.481087
3643.000000	86.451380
3642.000000	86.378643
3641.000000	86.275062
3640.000000	86.155373
3639.000000	86.017858
3638.000000	85.871673
3637.000000	85.745702
3636.000000	85.628485
3635.000000	85.458752
3634.000000	85.211513
3633.000000	84.973148
3632.000000	84.856380
3631.000000	84.874773
3630.000000	84.888591
3629.000000	84.669414
3628.000000	84.231739
3627.000000	83.876742
3626.000000	83.723016
3625.000000	83.631706
3624.000000	83.507268
3623.000000	83.369222
3622.000000	83.253028
3621.000000	83.142741
3620.000000	82.968530
3619.000000	82.665678
3618.000000	82.298409
3617.000000	82.018983
3616.000000	81.876036
3615.000000	81.784300
3614.000000	81.641759
3613.000000	81.427355
3612.000000	81.208599
3611.000000	81.052619
3610.000000	80.944730
3609.000000	80.819334
3608.000000	80.634280
3607.000000	80.408099
3606.000000	80.194076
3605.000000	80.013160
3604.000000	79.854383
3603.000000	79.691367
3602.000000	79.492922
3601.000000	79.249383
3600.000000	78.990290
3599.000000	78.740360
3598.000000	78.509443
3597.000000	78.299390
3596.000000	78.086701
3595.000000	77.837139
3594.000000	77.536951
3593.000000	77.218690
3592.000000	76.938769
3591.000000	76.725670
3590.000000	76.562487
3589.000000	76.403159
3588.000000	76.186906
3587.000000	75.891757
3586.000000	75.582289
3585.000000	75.334571
3584.000000	75.154713
3583.000000	74.999422
3582.000000	74.834908
3581.000000	74.656553
3580.000000	74.473947
3579.000000	74.293509
3578.000000	74.115043
3577.000000	73.946097
3576.000000	73.790894
3575.000000	73.641349
3574.000000	73.486875
3573.000000	73.326708
3572.000000	73.178727
3571.000000	73.069603
3570.000000	73.013883
3569.000000	73.002112
3568.000000	72.997212
3567.000000	72.955425
3566.000000	72.882832
3565.000000	72.834006
3564.000000	72.838399
3563.000000	72.880435
3562.000000	72.934936
3561.000000	72.990500
3560.000000	73.045803
3559.000000	73.100429
3558.000000	73.153516
3557.000000	73.211961
3556.000000	73.289351
3555.000000	73.387960
3554.000000	73.491620
3553.000000	73.577641
3552.000000	73.638433
3551.000000	73.691061
3550.000000	73.757801
3549.000000	73.847345
3548.000000	73.954335
3547.000000	74.064741
3546.000000	74.162916
3545.000000	74.246524
3544.000000	74.324795
3543.000000	74.403239
3542.000000	74.478533
3541.000000	74.546420
3540.000000	74.609280
3539.000000	74.666384
3538.000000	74.713915
3537.000000	74.748781
3536.000000	74.770983
3535.000000	74.781907
3534.000000	74.782329
3533.000000	74.775512
3532.000000	74.764244
3531.000000	74.745289
3530.000000	74.707835
3529.000000	74.642468
3528.000000	74.551819
3527.000000	74.450286
3526.000000	74.351754
3525.000000	74.258715
3524.000000	74.159946
3523.000000	74.038695
3522.000000	73.890183
3521.000000	73.724457
3520.000000	73.550510
3519.000000	73.361613
3518.000000	73.146445
3517.000000	72.905659
3516.000000	72.646605
3515.000000	72.371810
3514.000000	72.082318
3513.000000	71.784139
3512.000000	71.481587
3511.000000	71.166701
3510.000000	70.825397
3509.000000	70.457271
3508.000000	70.079775
3507.000000	69.707866
3506.000000	69.339079
3505.000000	68.963089
3504.000000	68.575129
3503.000000	68.178941
3502.000000	67.784433
3501.000000	67.403984
3500.000000	67.044394
3499.000000	66.701018
3498.000000	66.365113
3497.000000	66.035075
3496.000000	65.716933
3495.000000	65.416112
3494.000000	65.136079
3493.000000	64.882148
3492.000000	64.658909
3491.000000	64.465828
3490.000000	64.299092
3489.000000	64.157138
3488.000000	64.042113
3487.000000	63.956963
3486.000000	63.906213
3485.000000	63.894750
3484.000000	63.919597
3483.000000	63.968187
3482.000000	64.031394
3481.000000	64.116318
3480.000000	64.237661
3479.000000	64.398979
3478.000000	64.590059
3477.000000	64.799970
3476.000000	65.023625
3475.000000	65.256850
3474.000000	65.495526
3473.000000	65.739515
3472.000000	65.990223
3471.000000	66.247072
3470.000000	66.511003
3469.000000	66.786698
3468.000000	67.076219
3467.000000	67.373753
3466.000000	67.672294
3465.000000	67.970062
3464.000000	68.265629
3463.000000	68.553189
3462.000000	68.830093
3461.000000	69.104273
3460.000000	69.385880
3459.000000	69.674268
3458.000000	69.962006
3457.000000	70.244956
3456.000000	70.524948
3455.000000	70.804282
3454.000000	71.081157
3453.000000	71.353082
3452.000000	71.620341
3451.000000	71.887381
3450.000000	72.159385
3449.000000	72.435423
3448.000000	72.706811
3447.000000	72.966063
3446.000000	73.218669
3445.000000	73.478081
3444.000000	73.747868
3443.000000	74.016933
3442.000000	74.274334
3441.000000	74.521409
3440.000000	74.765857
3439.000000	75.010128
3438.000000	75.253091
3437.000000	75.495709
3436.000000	75.741158
3435.000000	75.989736
3434.000000	76.235898
3433.000000	76.474480
3432.000000	76.705501
3431.000000	76.933856
3430.000000	77.164662
3429.000000	77.399399
3428.000000	77.635552
3427.000000	77.868358
3426.000000	78.095586
3425.000000	78.320121
3424.000000	78.546619
3423.000000	78.775716
3422.000000	79.004036
3421.000000	79.229456
3420.000000	79.453436
3419.000000	79.678287
3418.000000	79.903936
3417.000000	80.128844
3416.000000	80.352337
3415.000000	80.574992
3414.000000	80.797779
3413.000000	81.021499
3412.000000	81.246297
3411.000000	81.471724
3410.000000	81.697868
3409.000000	81.926152
3408.000000	82.157361
3407.000000	82.388448
3406.000000	82.615117
3405.000000	82.836085
3404.000000	83.053376
3403.000000	83.270398
3402.000000	83.492747
3401.000000	83.728075
3400.000000	83.977561
3399.000000	84.230147
3398.000000	84.471565
3397.000000	84.698626
3396.000000	84.919297
3395.000000	85.140526
3394.000000	85.363191
3393.000000	85.588015
3392.000000	85.818235
3391.000000	86.053720
3390.000000	86.288773
3389.000000	86.518060
3388.000000	86.741263
3387.000000	86.959790
3386.000000	87.173912
3385.000000	87.384509
3384.000000	87.593688
3383.000000	87.802631
3382.000000	88.011146
3381.000000	88.220224
3380.000000	88.430705
3379.000000	88.640996
3378.000000	88.849515
3377.000000	89.058335
3376.000000	89.270060
3375.000000	89.482209
3374.000000	89.689716
3373.000000	89.892255
3372.000000	90.095092
3371.000000	90.303574
3370.000000	90.520616
3369.000000	90.747502
3368.000000	90.982925
3367.000000	91.221979
3366.000000	91.459926
3365.000000	91.696498
3364.000000	91.934127
3363.000000	92.173777
3362.000000	92.415688
3361.000000	92.662441
3360.000000	92.916739
3359.000000	93.177085
3358.000000	93.438848
3357.000000	93.698968
3356.000000	93.956402
3355.000000	94.209804
3354.000000	94.459203
3353.000000	94.709124
3352.000000	94.965556
3351.000000	95.229334
3350.000000	95.495408
3349.000000	95.757158
3348.000000	96.010234
3347.000000	96.252833
3346.000000	96.486032
3345.000000	96.714033
3344.000000	96.939064
3343.000000	97.156717
3342.000000	97.359803
3341.000000	97.546073
3340.000000	97.718775
3339.000000	97.879085
3338.000000	98.020672
3337.000000	98.133339
3336.000000	98.208459
3335.000000	98.240801
3334.000000	98.227655
3333.000000	98.165293
3332.000000	98.047774
3331.000000	97.866157
3330.000000	97.610796
3329.000000	97.275756
3328.000000	96.857361
3327.000000	96.352398
3326.000000	95.756035
3325.000000	95.060837
3324.000000	94.258665
3323.000000	93.337969
3322.000000	92.287874
3321.000000	91.098569
3320.000000	89.754448
3319.000000	88.234685
3318.000000	86.511793
3317.000000	84.558332
3316.000000	82.345445
3315.000000	79.837519
3314.000000	77.007107
3313.000000	73.844673
3312.000000	70.364571
3311.000000	66.604574
3310.000000	62.621385
3309.000000	58.497769
3308.000000	54.333295
3307.000000	50.226163
3306.000000	46.265451
3305.000000	42.527215
3304.000000	39.068396
3303.000000	35.925367
3302.000000	33.119827
3301.000000	30.665080
3300.000000	28.569134
3299.000000	26.826544
3298.000000	25.426825
3297.000000	24.361233
3296.000000	23.604669
3295.000000	23.110202
3294.000000	22.810521
3293.000000	22.632563
3292.000000	22.509127
3291.000000	22.379012
3290.000000	22.205426
3289.000000	21.984609
3288.000000	21.738555
3287.000000	21.500395
3286.000000	21.301611
3285.000000	21.166380
3284.000000	21.100900
3283.000000	21.090356
3282.000000	21.110309
3281.000000	21.137965
3280.000000	21.152396
3279.000000	21.133039
3278.000000	21.068099
3277.000000	20.961737
3276.000000	20.827595
3275.000000	20.680213
3274.000000	20.537684
3273.000000	20.426353
3272.000000	20.375411
3271.000000	20.407230
3270.000000	20.537889
3269.000000	20.779277
3268.000000	21.133839
3267.000000	21.593584
3266.000000	22.143879
3265.000000	22.766667
3264.000000	23.433263
3263.000000	24.098559
3262.000000	24.709675
3261.000000	25.215878
3260.000000	25.568312
3259.000000	25.721913
3258.000000	25.649715
3257.000000	25.346872
3256.000000	24.827211
3255.000000	24.113319
3254.000000	23.235044
3253.000000	22.233931
3252.000000	21.146457
3251.000000	19.997253
3250.000000	18.805964
3249.000000	17.596401
3248.000000	16.398142
3247.000000	15.240258
3246.000000	14.154909
3245.000000	13.180175
3244.000000	12.350634
3243.000000	11.682869
3242.000000	11.174845
3241.000000	10.806176
3240.000000	10.535619
3239.000000	10.311126
3238.000000	10.087948
3237.000000	9.844249
3236.000000	9.577375
3235.000000	9.294636
3234.000000	9.012814
3233.000000	8.751479
3232.000000	8.519697
3231.000000	8.312516
3230.000000	8.125642
3229.000000	7.968609
3228.000000	7.857380
3227.000000	7.805084
3226.000000	7.824796
3225.000000	7.932108
3224.000000	8.138859
3223.000000	8.444929
3222.000000	8.843379
3221.000000	9.324708
3220.000000	9.868836
3219.000000	10.442878
3218.000000	11.011319
3217.000000	11.546199
3216.000000	12.025228
3215.000000	12.430602
3214.000000	12.758181
3213.000000	13.022319
3212.000000	13.245711
3211.000000	13.449532
3210.000000	13.656251
3209.000000	13.891657
3208.000000	14.176739
3207.000000	14.521775
3206.000000	14.932782
3205.000000	15.415692
3204.000000	15.971212
3203.000000	16.591164
3202.000000	17.265657
3201.000000	17.988967
3200.000000	18.752132
3199.000000	19.539746
3198.000000	20.337094
3197.000000	21.135167
3196.000000	21.925337
3195.000000	22.694790
3194.000000	23.432224
3193.000000	24.131326
3192.000000	24.784987
3191.000000	25.381065
3190.000000	25.910262
3189.000000	26.370777
3188.000000	26.762648
3187.000000	27.085377
3186.000000	27.343110
3185.000000	27.548751
3184.000000	27.715700
3183.000000	27.852192
3182.000000	27.966954
3181.000000	28.071049
3180.000000	28.172655
3179.000000	28.274629
3178.000000	28.382570
3177.000000	28.509537
3176.000000	28.668329
3175.000000	28.864847
3174.000000	29.102423
3173.000000	29.385894
3172.000000	29.715630
3171.000000	30.085986
3170.000000	30.491836
3169.000000	30.932525
3168.000000	31.406469
3167.000000	31.906249
3166.000000	32.425353
3165.000000	32.961408
3164.000000	33.510472
3163.000000	34.064262
3162.000000	34.615320
3161.000000	35.158610
3160.000000	35.683581
3159.000000	36.170638
3158.000000	36.595716
3157.000000	36.934709
3156.000000	37.157137
3155.000000	37.224702
3154.000000	37.102226
3153.000000	36.767155
3152.000000	36.220366
3151.000000	35.493766
3150.000000	34.655567
3149.000000	33.798235
3148.000000	33.003893
3147.000000	32.318041
3146.000000	31.743968
3145.000000	31.249405
3144.000000	30.776620
3143.000000	30.259678
3142.000000	29.650031
3141.000000	28.930479
3140.000000	28.108238
3139.000000	27.205740
3138.000000	26.259874
3137.000000	25.319132
3136.000000	24.429787
3135.000000	23.626534
3134.000000	22.937103
3133.000000	22.388124
3132.000000	21.997997
3131.000000	21.771791
3130.000000	21.709512
3129.000000	21.807510
3128.000000	22.056135
3127.000000	22.438222
3126.000000	22.936943
3125.000000	23.541608
3124.000000	24.236534
3123.000000	25.000450
3122.000000	25.815119
3121.000000	26.668984
3120.000000	27.550880
3119.000000	28.444327
3118.000000	29.335705
3117.000000	30.217659
3116.000000	31.081848
3115.000000	31.915516
3114.000000	32.708944
3113.000000	33.459250
3112.000000	34.163856
3111.000000	34.818735
3110.000000	35.423377
3109.000000	35.982378
3108.000000	36.496614
3107.000000	36.960833
3106.000000	37.373117
3105.000000	37.737804
3104.000000	38.060485
3103.000000	38.345022
3102.000000	38.600464
3101.000000	38.844988
3100.000000	39.098553
3099.000000	39.377105
3098.000000	39.694655
3097.000000	40.064015
3096.000000	40.489958
3095.000000	40.967680
3094.000000	41.489508
3093.000000	42.048748
3092.000000	42.636021
3091.000000	43.237731
3090.000000	43.842642
3089.000000	44.444209
3088.000000	45.035578
3087.000000	45.608691
3086.000000	46.159943
3085.000000	46.690922
3084.000000	47.201600
3083.000000	47.688261
3082.000000	48.149882
3081.000000	48.591286
3080.000000	49.017028
3079.000000	49.428081
3078.000000	49.826355
3077.000000	50.215270
3076.000000	50.594765
3075.000000	50.961080
3074.000000	51.313542
3073.000000	51.656572
3072.000000	51.992558
3071.000000	52.319430
3070.000000	52.637074
3069.000000	52.950387
3068.000000	53.263311
3067.000000	53.574134
3066.000000	53.879916
3065.000000	54.180970
3064.000000	54.478316
3063.000000	54.770676
3062.000000	55.056572
3061.000000	55.336324
3060.000000	55.610028
3059.000000	55.876736
3058.000000	56.137430
3057.000000	56.394837
3056.000000	56.648909
3055.000000	56.896587
3054.000000	57.136771
3053.000000	57.372256
3052.000000	57.604744
3051.000000	57.831712
3050.000000	58.050020
3049.000000	58.258946
3048.000000	58.458943
3047.000000	58.650747
3046.000000	58.837391
3045.000000	59.023526
3044.000000	59.210941
3043.000000	59.398046
3042.000000	59.584384
3041.000000	59.771153
3040.000000	59.956930
3039.000000	60.137414
3038.000000	60.311259
3037.000000	60.482476
3036.000000	60.655367
3035.000000	60.831038
3034.000000	61.009673
3033.000000	61.191457
3032.000000	61.373809
3031.000000	61.552815
3030.000000	61.728940
3029.000000	61.906487
3028.000000	62.086501
3027.000000	62.265644
3026.000000	62.443076
3025.000000	62.622496
3024.000000	62.805338
3023.000000	62.987383
3022.000000	63.164607
3021.000000	63.337885
3020.000000	63.509788
3019.000000	63.680277
3018.000000	63.848025
3017.000000	64.012223
3016.000000	64.170673
3015.000000	64.319485
3014.000000	64.456382
3013.000000	64.581419
3012.000000	64.692721
3011.000000	64.783844
3010.000000	64.847514
3009.000000	64.877513
3008.000000	64.865555
3007.000000	64.799915
3006.000000	64.667924
3005.000000	64.460482
3004.000000	64.172538
3003.000000	63.804734
3002.000000	63.366549
3001.000000	62.873663
3000.000000	62.340908
2999.000000	61.775605
2998.000000	61.182144
2997.000000	60.573589
2996.000000	59.983558
2995.000000	59.468893
2994.000000	59.092403
2993.000000	58.891560
2992.000000	58.854362
2991.000000	58.929250
2990.000000	59.056783
2989.000000	59.192721
2988.000000	59.309887
2987.000000	59.392852
2986.000000	59.440217
2985.000000	59.464154
2984.000000	59.483492
2983.000000	59.518543
2982.000000	59.590830
2981.000000	59.719781
2980.000000	59.912320
2979.000000	60.158390
2978.000000	60.440136
2977.000000	60.743819
2976.000000	61.065420
2975.000000	61.409090
2974.000000	61.781571
2973.000000	62.180689
2972.000000	62.585312
2971.000000	62.958894
2970.000000	63.262159
2969.000000	63.462438
2968.000000	63.531184
2967.000000	63.444169
2966.000000	63.187024
2965.000000	62.757734
2964.000000	62.163955
2963.000000	61.419339
2962.000000	60.548163
2961.000000	59.583921
2960.000000	58.560328
2959.000000	57.503189
2958.000000	56.431782
2957.000000	55.369826
2956.000000	54.355411
2955.000000	53.447257
2954.000000	52.710509
2953.000000	52.182288
2952.000000	51.843220
2951.000000	51.631391
2950.000000	51.492144
2949.000000	51.411548
2948.000000	51.411062
2947.000000	51.517550
2946.000000	51.737581
2945.000000	52.041486
2944.000000	52.362827
2943.000000	52.628461
2942.000000	52.804627
2941.000000	52.924015
2940.000000	53.071678
2939.000000	53.345445
2938.000000	53.819044
2937.000000	54.518865
2936.000000	55.418424
2935.000000	56.455360
2934.000000	57.559429
2933.000000	58.670981
2932.000000	59.743262
2931.000000	60.743563
2930.000000	61.656783
2929.000000	62.481907
2928.000000	63.222844
2927.000000	63.884373
2926.000000	64.476607
2925.000000	65.013228
2924.000000	65.502802
2923.000000	65.945876
2922.000000	66.341720
2921.000000	66.692370
2920.000000	66.998591
2919.000000	67.259569
2918.000000	67.477449
2917.000000	67.658115
2916.000000	67.806342
2915.000000	67.924549
2914.000000	68.017634
2913.000000	68.092978
2912.000000	68.155662
2911.000000	68.207983
2910.000000	68.253830
2909.000000	68.299209
2908.000000	68.346614
2907.000000	68.394782
2906.000000	68.444135
2905.000000	68.497549
2904.000000	68.554675
2903.000000	68.611468
2902.000000	68.665889
2901.000000	68.718715
2900.000000	68.768965
2899.000000	68.811738
2898.000000	68.842692
2897.000000	68.858387
2896.000000	68.852041
2895.000000	68.814160
2894.000000	68.738722
2893.000000	68.624373
2892.000000	68.468347
2891.000000	68.265191
2890.000000	68.013350
2889.000000	67.718917
2888.000000	67.391816
2887.000000	67.043548
2886.000000	66.689912
2885.000000	66.349886
2884.000000	66.039830
2883.000000	65.771209
2882.000000	65.554959
2881.000000	65.402396
2880.000000	65.319182
2879.000000	65.303808
2878.000000	65.352705
2877.000000	65.462466
2876.000000	65.625918
2875.000000	65.831297
2874.000000	66.066477
2873.000000	66.319919
2872.000000	66.577484
2871.000000	66.824584
2870.000000	67.054485
2869.000000	67.269777
2868.000000	67.475484
2867.000000	67.674977
2866.000000	67.872001
2865.000000	68.070170
2864.000000	68.268174
2863.000000	68.460853
2862.000000	68.646594
2861.000000	68.829011
2860.000000	69.010560
2859.000000	69.190437
2858.000000	69.370203
2857.000000	69.555738
2856.000000	69.751427
2855.000000	69.956852
2854.000000	70.170034
2853.000000	70.388186
2852.000000	70.603368
2851.000000	70.802549
2850.000000	70.975029
2849.000000	71.116959
2848.000000	71.228973
2847.000000	71.315018
2846.000000	71.384782
2845.000000	71.451660
2844.000000	71.525432
2843.000000	71.609441
2842.000000	71.705431
2841.000000	71.817104
2840.000000	71.947095
2839.000000	72.094437
2838.000000	72.256652
2837.000000	72.431139
2836.000000	72.613654
2835.000000	72.798765
2834.000000	72.982763
2833.000000	73.163819
2832.000000	73.339578
2831.000000	73.507692
2830.000000	73.668702
2829.000000	73.824866
2828.000000	73.976008
2827.000000	74.120066
2826.000000	74.257206
2825.000000	74.389438
2824.000000	74.516395
2823.000000	74.635376
2822.000000	74.745742
2821.000000	74.849286
2820.000000	74.946118
2819.000000	75.034473
2818.000000	75.114971
2817.000000	75.191000
2816.000000	75.264311
2815.000000	75.333943
2814.000000	75.400108
2813.000000	75.465551
2812.000000	75.532438
2811.000000	75.601431
2810.000000	75.673966
2809.000000	75.751652
2808.000000	75.833101
2807.000000	75.914958
2806.000000	75.996361
2805.000000	76.078869
2804.000000	76.161922
2803.000000	76.242370
2802.000000	76.318921
2801.000000	76.393248
2800.000000	76.466361
2799.000000	76.537550
2798.000000	76.607051
2797.000000	76.675857
2796.000000	76.742469
2795.000000	76.803592
2794.000000	76.858575
2793.000000	76.909706
2792.000000	76.957983
2791.000000	77.002383
2790.000000	77.043438
2789.000000	77.083450
2788.000000	77.122676
2787.000000	77.159194
2786.000000	77.193280
2785.000000	77.228367
2784.000000	77.267047
2783.000000	77.309750
2782.000000	77.357756
2781.000000	77.413536
2780.000000	77.477298
2779.000000	77.546569
2778.000000	77.619677
2777.000000	77.696296
2776.000000	77.774113
2775.000000	77.848566
2774.000000	77.916790
2773.000000	77.978744
2772.000000	78.034211
2771.000000	78.082274
2770.000000	78.124186
2769.000000	78.163289
2768.000000	78.201418
2767.000000	78.238034
2766.000000	78.273093
2765.000000	78.307520
2764.000000	78.340646
2763.000000	78.370766
2762.000000	78.398548
2761.000000	78.426650
2760.000000	78.455574
2759.000000	78.482936
2758.000000	78.506893
2757.000000	78.526658
2756.000000	78.539514
2755.000000	78.540917
2754.000000	78.528302
2753.000000	78.502364
2752.000000	78.464400
2751.000000	78.415933
2750.000000	78.361449
2749.000000	78.308018
2748.000000	78.261620
2747.000000	78.226583
2746.000000	78.208165
2745.000000	78.212100
2744.000000	78.240996
2743.000000	78.293406
2742.000000	78.366503
2741.000000	78.456488
2740.000000	78.556334
2739.000000	78.657434
2738.000000	78.754017
2737.000000	78.843737
2736.000000	78.924995
2735.000000	78.996821
2734.000000	79.061057
2733.000000	79.120987
2732.000000	79.177337
2731.000000	79.228591
2730.000000	79.274983
2729.000000	79.318495
2728.000000	79.359173
2727.000000	79.394756
2726.000000	79.424013
2725.000000	79.447702
2724.000000	79.466259
2723.000000	79.479895
2722.000000	79.490925
2721.000000	79.502728
2720.000000	79.516559
2719.000000	79.532104
2718.000000	79.550600
2717.000000	79.574199
2716.000000	79.602708
2715.000000	79.634295
2714.000000	79.669154
2713.000000	79.709072
2712.000000	79.753662
2711.000000	79.800509
2710.000000	79.848503
2709.000000	79.897723
2708.000000	79.946479
2707.000000	79.991906
2706.000000	80.033432
2705.000000	80.072579
2704.000000	80.109938
2703.000000	80.145637
2702.000000	80.181971
2701.000000	80.221786
2700.000000	80.264512
2699.000000	80.307030
2698.000000	80.347746
2697.000000	80.386416
2696.000000	80.420714
2695.000000	80.447249
2694.000000	80.465730
2693.000000	80.478675
2692.000000	80.487490
2691.000000	80.492184
2690.000000	80.494489
2689.000000	80.497342
2688.000000	80.501385
2687.000000	80.505610
2686.000000	80.510890
2685.000000	80.519175
2684.000000	80.529697
2683.000000	80.539814
2682.000000	80.549283
2681.000000	80.559921
2680.000000	80.571498
2679.000000	80.582007
2678.000000	80.591870
2677.000000	80.603741
2676.000000	80.618318
2675.000000	80.634331
2674.000000	80.652724
2673.000000	80.677061
2672.000000	80.709321
2671.000000	80.748997
2670.000000	80.796258
2669.000000	80.852063
2668.000000	80.915255
2667.000000	80.982823
2666.000000	81.053442
2665.000000	81.127524
2664.000000	81.203815
2663.000000	81.279702
2662.000000	81.354443
2661.000000	81.428603
2660.000000	81.500610
2659.000000	81.567439
2658.000000	81.628628
2657.000000	81.686274
2656.000000	81.741227
2655.000000	81.792684
2654.000000	81.841285
2653.000000	81.888453
2652.000000	81.932826
2651.000000	81.970689
2650.000000	81.999892
2649.000000	82.020595
2648.000000	82.032477
2647.000000	82.035297
2646.000000	82.032352
2645.000000	82.029606
2644.000000	82.031252
2643.000000	82.038853
2642.000000	82.054133
2641.000000	82.078957
2640.000000	82.112654
2639.000000	82.152837
2638.000000	82.199174
2637.000000	82.252879
2636.000000	82.312631
2635.000000	82.374892
2634.000000	82.437942
2633.000000	82.502456
2632.000000	82.568166
2631.000000	82.633290
2630.000000	82.697633
2629.000000	82.762731
2628.000000	82.828795
2627.000000	82.894339
2626.000000	82.958663
2625.000000	83.021657
2624.000000	83.081548
2623.000000	83.135808
2622.000000	83.184046
2621.000000	83.227253
2620.000000	83.264482
2619.000000	83.293703
2618.000000	83.315330
2617.000000	83.331545
2616.000000	83.342847
2615.000000	83.348221
2614.000000	83.348653
2613.000000	83.347109
2612.000000	83.344929
2611.000000	83.341659
2610.000000	83.337965
2609.000000	83.335649
2608.000000	83.334954
2607.000000	83.334858
2606.000000	83.335845
2605.000000	83.339293
2604.000000	83.344444
2603.000000	83.349102
2602.000000	83.353154
2601.000000	83.358254
2600.000000	83.364365
2599.000000	83.369548
2598.000000	83.372813
2597.000000	83.374043
2596.000000	83.371676
2595.000000	83.363619
2594.000000	83.350347
2593.000000	83.334344
2592.000000	83.316675
2591.000000	83.297073
2590.000000	83.276576
2589.000000	83.256993
2588.000000	83.238332
2587.000000	83.219775
2586.000000	83.202613
2585.000000	83.189223
2584.000000	83.179930
2583.000000	83.173942
2582.000000	83.172793
2581.000000	83.179284
2580.000000	83.193795
2579.000000	83.215051
2578.000000	83.243400
2577.000000	83.280288
2576.000000	83.324787
2575.000000	83.374209
2574.000000	83.427831
2573.000000	83.486225
2572.000000	83.548060
2571.000000	83.610711
2570.000000	83.673485
2569.000000	83.737187
2568.000000	83.800911
2567.000000	83.862824
2566.000000	83.923387
2565.000000	83.984594
2564.000000	84.046851
2563.000000	84.109738
2562.000000	84.174974
2561.000000	84.245104
2560.000000	84.319898
2559.000000	84.397478
2558.000000	84.477923
2557.000000	84.562379
2556.000000	84.649397
2555.000000	84.735580
2554.000000	84.819317
2553.000000	84.900472
2552.000000	84.977360
2551.000000	85.047632
2550.000000	85.111747
2549.000000	85.172070
2548.000000	85.229339
2547.000000	85.282989
2546.000000	85.333847
2545.000000	85.383261
2544.000000	85.430123
2543.000000	85.472653
2542.000000	85.512482
2541.000000	85.553384
2540.000000	85.596643
2539.000000	85.640815
2538.000000	85.685336
2537.000000	85.730689
2536.000000	85.775383
2535.000000	85.816503
2534.000000	85.852945
2533.000000	85.885269
2532.000000	85.913049
2531.000000	85.935595
2530.000000	85.954965
2529.000000	85.974658
2528.000000	85.995638
2527.000000	86.016446
2526.000000	86.036213
2525.000000	86.054595
2524.000000	86.069356
2523.000000	86.077631
2522.000000	86.079432
2521.000000	86.076528
2520.000000	86.068813
2519.000000	86.054496
2518.000000	86.033114
2517.000000	86.005318
2516.000000	85.969779
2515.000000	85.924362
2514.000000	85.869691
2513.000000	85.808657
2512.000000	85.743495
2511.000000	85.676091
2510.000000	85.610622
2509.000000	85.551891
2508.000000	85.501206
2507.000000	85.456977
2506.000000	85.418650
2505.000000	85.386364
2504.000000	85.357552
2503.000000	85.328139
2502.000000	85.297079
2501.000000	85.266982
2500.000000	85.240388
2499.000000	85.218857
2498.000000	85.205759
2497.000000	85.205438
2496.000000	85.219887
2495.000000	85.248410
2494.000000	85.289965
2493.000000	85.343320
2492.000000	85.404654
2491.000000	85.469104
2490.000000	85.534232
2489.000000	85.599617
2488.000000	85.664764
2487.000000	85.730002
2486.000000	85.798636
2485.000000	85.874290
2484.000000	85.956401
2483.000000	86.041491
2482.000000	86.127569
2481.000000	86.214254
2480.000000	86.299926
2479.000000	86.382529
2478.000000	86.462534
2477.000000	86.541515
2476.000000	86.618522
2475.000000	86.691092
2474.000000	86.759131
2473.000000	86.823994
2472.000000	86.884725
2471.000000	86.938586
2470.000000	86.984548
2469.000000	87.023354
2468.000000	87.054335
2467.000000	87.076203
2466.000000	87.090296
2465.000000	87.099336
2464.000000	87.103748
2463.000000	87.101657
2462.000000	87.092487
2461.000000	87.077428
2460.000000	87.056772
2459.000000	87.030644
2458.000000	87.001413
2457.000000	86.972556
2456.000000	86.945466
2455.000000	86.920171
2454.000000	86.898403
2453.000000	86.882497
2452.000000	86.872180
2451.000000	86.865741
2450.000000	86.864007
2449.000000	86.869347
2448.000000	86.881870
2447.000000	86.900115
2446.000000	86.924693
2445.000000	86.957968
2444.000000	86.999909
2443.000000	87.048107
2442.000000	87.101289
2441.000000	87.159123
2440.000000	87.219545
2439.000000	87.279568
2438.000000	87.338915
2437.000000	87.399647
2436.000000	87.462421
2435.000000	87.526403
2434.000000	87.591816
2433.000000	87.659174
2432.000000	87.726437
2431.000000	87.790341
2430.000000	87.850005
2429.000000	87.906040
2428.000000	87.956884
2427.000000	87.999439
2426.000000	88.033190
2425.000000	88.059883
2424.000000	88.079967
2423.000000	88.092850
2422.000000	88.099966
2421.000000	88.104382
2420.000000	88.106971
2419.000000	88.106728
2418.000000	88.104609
2417.000000	88.103676
2416.000000	88.105773
2415.000000	88.111173
2414.000000	88.121036
2413.000000	88.136407
2412.000000	88.154818
2411.000000	88.171387
2410.000000	88.183328
2409.000000	88.190316
2408.000000	88.191194
2407.000000	88.184261
2406.000000	88.171032
2405.000000	88.155761
2404.000000	88.140768
2403.000000	88.125656
2402.000000	88.110449
2401.000000	88.095545
2400.000000	88.077842
2399.000000	88.050632
2398.000000	88.008532
2397.000000	87.948484
2396.000000	87.866537
2395.000000	87.758038
2394.000000	87.622304
2393.000000	87.464708
2392.000000	87.291833
2391.000000	87.109197
2390.000000	86.923974
2389.000000	86.744500
2388.000000	86.577481
2387.000000	86.426458
2386.000000	86.296519
2385.000000	86.197417
2384.000000	86.136714
2383.000000	86.118330
2382.000000	86.143502
2381.000000	86.211896
2380.000000	86.318794
2379.000000	86.447962
2378.000000	86.580058
2377.000000	86.700102
2376.000000	86.794349
2375.000000	86.850385
2374.000000	86.861020
2373.000000	86.833956
2372.000000	86.784878
2371.000000	86.723736
2370.000000	86.651482
2369.000000	86.582006
2368.000000	86.533334
2367.000000	86.502731
2366.000000	86.476877
2365.000000	86.470620
2364.000000	86.496463
2363.000000	86.527643
2362.000000	86.554955
2361.000000	86.577194
2360.000000	86.605224
2359.000000	86.654249
2358.000000	86.690542
2357.000000	86.705229
2356.000000	86.660533
2355.000000	86.519561
2354.000000	86.295442
2353.000000	86.113075
2352.000000	86.178150
2351.000000	86.490930
2350.000000	86.888201
2349.000000	87.195764
2348.000000	87.359871
2347.000000	87.461221
2346.000000	87.507437
2345.000000	87.526535
2344.000000	87.488907
2343.000000	87.418383
2342.000000	87.376043
2341.000000	87.366439
2340.000000	87.394401
2339.000000	87.429034
2338.000000	87.494002
2337.000000	87.593486
2336.000000	87.745798
2335.000000	87.912323
2334.000000	88.082840
2333.000000	88.199661
2332.000000	88.292691
2331.000000	88.334507
2330.000000	88.389777
2329.000000	88.473724
2328.000000	88.575349
2327.000000	88.675509
2326.000000	88.721917
2325.000000	88.731182
2324.000000	88.690379
2323.000000	88.606600
2322.000000	88.490874
2321.000000	88.341245
2320.000000	88.197649
2319.000000	88.054825
2318.000000	87.943560
2317.000000	87.823379
2316.000000	87.690923
2315.000000	87.509037
2314.000000	87.301458
2313.000000	87.063781
2312.000000	86.819085
2311.000000	86.561704
2310.000000	86.305142
2309.000000	86.042558
2308.000000	85.777415
2307.000000	85.506893
2306.000000	85.244026
2305.000000	84.987750
2304.000000	84.743713
2303.000000	84.505386
2302.000000	84.288845
2301.000000	84.095463
2300.000000	83.933431
2299.000000	83.796231
2298.000000	83.688787
2297.000000	83.606536
2296.000000	83.543896
2295.000000	83.494429
2294.000000	83.454923
2293.000000	83.423902
2292.000000	83.391874
2291.000000	83.354465
2290.000000	83.308683
2289.000000	83.256735
2288.000000	83.195436
2287.000000	83.127302
2286.000000	83.057893
2285.000000	82.993419
2284.000000	82.932771
2283.000000	82.875763
2282.000000	82.827808
2281.000000	82.795467
2280.000000	82.781621
2279.000000	82.787188
2278.000000	82.817706
2277.000000	82.874839
2276.000000	82.955726
2275.000000	83.055563
2274.000000	83.174885
2273.000000	83.314206
2272.000000	83.469218
2271.000000	83.634844
2270.000000	83.810206
2269.000000	83.994645
2268.000000	84.184293
2267.000000	84.375042
2266.000000	84.566976
2265.000000	84.759730
2264.000000	84.947500
2263.000000	85.126276
2262.000000	85.295870
2261.000000	85.459619
2260.000000	85.618074
2259.000000	85.773758
2258.000000	85.933670
2257.000000	86.102635
2256.000000	86.281164
2255.000000	86.467400
2254.000000	86.664111
2253.000000	86.871890
2252.000000	87.087719
2251.000000	87.307770
2250.000000	87.532438
2249.000000	87.761310
2248.000000	87.990641
2247.000000	88.216917
2246.000000	88.439626
2245.000000	88.657347
2244.000000	88.864790
2243.000000	89.058422
2242.000000	89.239280
2241.000000	89.408880
2240.000000	89.565585
2239.000000	89.709154
2238.000000	89.843010
2237.000000	89.969038
2236.000000	90.084561
2235.000000	90.187227
2234.000000	90.278535
2233.000000	90.359468
2232.000000	90.427687
2231.000000	90.482499
2230.000000	90.528174
2229.000000	90.568877
2228.000000	90.604927
2227.000000	90.636058
2226.000000	90.664378
2225.000000	90.690181
2224.000000	90.709896
2223.000000	90.721127
2222.000000	90.725814
2221.000000	90.726060
2220.000000	90.721446
2219.000000	90.713732
2218.000000	90.709180
2217.000000	90.712898
2216.000000	90.724749
2215.000000	90.743623
2214.000000	90.770988
2213.000000	90.807037
2212.000000	90.848085
2211.000000	90.891193
2210.000000	90.937423
2209.000000	90.987684
2208.000000	91.039744
2207.000000	91.092147
2206.000000	91.146207
2205.000000	91.201119
2204.000000	91.251750
2203.000000	91.294627
2202.000000	91.332229
2201.000000	91.369056
2200.000000	91.408284
2199.000000	91.454827
2198.000000	91.515908
2197.000000	91.594602
2196.000000	91.686535
2195.000000	91.785575
2194.000000	91.888282
2193.000000	91.990633
2192.000000	92.086372
2191.000000	92.172143
2190.000000	92.249852
2189.000000	92.321050
2188.000000	92.383698
2187.000000	92.437151
2186.000000	92.484758
2185.000000	92.528485
2184.000000	92.565669
2183.000000	92.594360
2182.000000	92.617050
2181.000000	92.635997
2180.000000	92.649702
2179.000000	92.656907
2178.000000	92.659793
2177.000000	92.660195
2176.000000	92.657188
2175.000000	92.650937
2174.000000	92.644442
2173.000000	92.639055
2172.000000	92.632978
2171.000000	92.626570
2170.000000	92.623986
2169.000000	92.627168
2168.000000	92.633066
2167.000000	92.639287
2166.000000	92.647235
2165.000000	92.657114
2164.000000	92.665417
2163.000000	92.670584
2162.000000	92.676027
2161.000000	92.684851
2160.000000	92.696640
2159.000000	92.711848
2158.000000	92.733591
2157.000000	92.762070
2156.000000	92.792721
2155.000000	92.822807
2154.000000	92.854664
2153.000000	92.889985
2152.000000	92.926869
2151.000000	92.965353
2150.000000	93.009907
2149.000000	93.062989
2148.000000	93.121436
2147.000000	93.182298
2146.000000	93.246367
2145.000000	93.312943
2144.000000	93.377484
2143.000000	93.437885
2142.000000	93.497022
2141.000000	93.556657
2140.000000	93.614154
2139.000000	93.667788
2138.000000	93.719062
2137.000000	93.767273
2136.000000	93.807956
2135.000000	93.839573
2134.000000	93.865690
2133.000000	93.887679
2132.000000	93.901741
2131.000000	93.906045
2130.000000	93.904414
2129.000000	93.899372
2128.000000	93.887633
2127.000000	93.866052
2126.000000	93.836302
2125.000000	93.799855
2124.000000	93.754303
2123.000000	93.698676
2122.000000	93.637027
2121.000000	93.573364
2120.000000	93.508427
2119.000000	93.444114
2118.000000	93.385465
2117.000000	93.334787
2116.000000	93.288734
2115.000000	93.244273
2114.000000	93.202180
2113.000000	93.162252
2112.000000	93.121233
2111.000000	93.078915
2110.000000	93.040995
2109.000000	93.012816
2108.000000	92.995144
2107.000000	92.988283
2106.000000	92.994124
2105.000000	93.010994
2104.000000	93.032296
2103.000000	93.053022
2102.000000	93.072884
2101.000000	93.090542
2100.000000	93.101988
2099.000000	93.107329
2098.000000	93.113175
2097.000000	93.125971
2096.000000	93.147640
2095.000000	93.181507
2094.000000	93.234462
2093.000000	93.308990
2092.000000	93.400210
2091.000000	93.503912
2090.000000	93.620642
2089.000000	93.749300
2088.000000	93.883769
2087.000000	94.019637
2086.000000	94.156916
2085.000000	94.292842
2084.000000	94.420013
2083.000000	94.534760
2082.000000	94.639981
2081.000000	94.737351
2080.000000	94.824614
2079.000000	94.903379
2078.000000	94.981259
2077.000000	95.062950
2076.000000	95.145695
2075.000000	95.227985
2074.000000	95.313237
2073.000000	95.401816
2072.000000	95.489026
2071.000000	95.571370
2070.000000	95.650521
2069.000000	95.727234
2068.000000	95.797932
2067.000000	95.860225
2066.000000	95.915868
2065.000000	95.966539
2064.000000	96.012689
2063.000000	96.058314
2062.000000	96.109037
2061.000000	96.164135
2060.000000	96.217685
2059.000000	96.269005
2058.000000	96.323809
2057.000000	96.383461
2056.000000	96.442404
2055.000000	96.497967
2054.000000	96.553367
2053.000000	96.609232
2052.000000	96.662011
2051.000000	96.710788
2050.000000	96.759322
2049.000000	96.809342
2048.000000	96.857715
2047.000000	96.902311
2046.000000	96.946137
2045.000000	96.991199
2044.000000	97.034429
2043.000000	97.073985
2042.000000	97.113753
2041.000000	97.157486
2040.000000	97.204181
2039.000000	97.253081
2038.000000	97.306069
2037.000000	97.361798
2036.000000	97.414387
2035.000000	97.461870
2034.000000	97.508962
2033.000000	97.557843
2032.000000	97.604792
2031.000000	97.649783
2030.000000	97.699284
2029.000000	97.755859
2028.000000	97.813484
2027.000000	97.866564
2026.000000	97.917493
2025.000000	97.968088
2024.000000	98.015239
2023.000000	98.054983
2022.000000	98.089613
2021.000000	98.123237
2020.000000	98.153997
2019.000000	98.177225
2018.000000	98.192636
2017.000000	98.203545
2016.000000	98.212743
2015.000000	98.223489
2014.000000	98.238413
2013.000000	98.253405
2012.000000	98.258933
2011.000000	98.252316
2010.000000	98.242275
2009.000000	98.236287
2008.000000	98.232198
2007.000000	98.227909
2006.000000	98.229450
2005.000000	98.240160
2004.000000	98.254989
2003.000000	98.268124
2002.000000	98.282253
2001.000000	98.300076
2000.000000	98.316852
1999.000000	98.333153
1998.000000	98.353297
1997.000000	98.380220
1996.000000	98.414654
1995.000000	98.455899
1994.000000	98.497706
1993.000000	98.529334
1992.000000	98.547408
1991.000000	98.564597
1990.000000	98.597065
1989.000000	98.645511
1988.000000	98.697307
1987.000000	98.743908
1986.000000	98.788776
1985.000000	98.836447
1984.000000	98.883812
1983.000000	98.925959
1982.000000	98.963604
1981.000000	98.999245
1980.000000	99.032691
1979.000000	99.066514
1978.000000	99.100731
1977.000000	99.134809
1976.000000	99.171860
1975.000000	99.217542
1974.000000	99.272250
1973.000000	99.331601
1972.000000	99.394564
1971.000000	99.462876
1970.000000	99.531964
1969.000000	99.590650
1968.000000	99.631958
1967.000000	99.659834
1966.000000	99.685180
1965.000000	99.717365
1964.000000	99.758308
1963.000000	99.800523
1962.000000	99.833443
1961.000000	99.856048
1960.000000	99.880709
1959.000000	99.917251
1958.000000	99.958476
1957.000000	99.989953
1956.000000	100.008203
1955.000000	100.020674
1954.000000	100.031097
1953.000000	100.036229
1952.000000	100.033340
1951.000000	100.020499
1950.000000	99.999044
1949.000000	99.966337
1948.000000	99.917499
1947.000000	99.857290
1946.000000	99.796868
1945.000000	99.739853
1944.000000	99.679439
1943.000000	99.612983
1942.000000	99.556089
1941.000000	99.533397
1940.000000	99.559221
1939.000000	99.627492
1938.000000	99.716223
1937.000000	99.806394
1936.000000	99.897017
1935.000000	99.995630
1934.000000	100.098471
1933.000000	100.193472
1932.000000	100.274562
1931.000000	100.343816
1930.000000	100.409788
1929.000000	100.467306
1928.000000	100.508308
1927.000000	100.542056
1926.000000	100.581834
1925.000000	100.628633
1924.000000	100.656972
1923.000000	100.660496
1922.000000	100.670488
1921.000000	100.711291
1920.000000	100.769514
1919.000000	100.814703
1918.000000	100.834587
1917.000000	100.844899
1916.000000	100.859939
1915.000000	100.882734
1914.000000	100.905326
1913.000000	100.910909
1912.000000	100.887032
1911.000000	100.840966
1910.000000	100.791933
1909.000000	100.739729
1908.000000	100.677317
1907.000000	100.615045
1906.000000	100.567573
1905.000000	100.532702
1904.000000	100.480256
1903.000000	100.405304
1902.000000	100.335363
1901.000000	100.273805
1900.000000	100.200073
1899.000000	100.117087
1898.000000	100.049510
1897.000000	100.004200
1896.000000	99.953050
1895.000000	99.888056
1894.000000	99.845181
1893.000000	99.847516
1892.000000	99.872250
1891.000000	99.890219
1890.000000	99.899507
1889.000000	99.913537
1888.000000	99.940750
1887.000000	99.991573
1886.000000	100.072844
1885.000000	100.160874
1884.000000	100.218642
1883.000000	100.247878
1882.000000	100.282490
1881.000000	100.322566
1880.000000	100.339399
1879.000000	100.331875
1878.000000	100.325583
1877.000000	100.333678
1876.000000	100.340422
1875.000000	100.335854
1874.000000	100.343980
1873.000000	100.385789
1872.000000	100.447053
1871.000000	100.509935
1870.000000	100.571661
1869.000000	100.627802
1868.000000	100.671777
1867.000000	100.724336
1866.000000	100.821867
1865.000000	100.957906
1864.000000	101.083286
1863.000000	101.174979
1862.000000	101.262534
1861.000000	101.365639
1860.000000	101.461552
1859.000000	101.539977
1858.000000	101.631286
1857.000000	101.749992
1856.000000	101.866676
1855.000000	101.963085
1854.000000	102.060692
1853.000000	102.161965
1852.000000	102.242087
1851.000000	102.307434
1850.000000	102.371874
1849.000000	102.432805
1848.000000	102.479244
1847.000000	102.524087
1846.000000	102.584093
1845.000000	102.631473
1844.000000	102.639226
1843.000000	102.648196
1842.000000	102.711713
1841.000000	102.812699
1840.000000	102.904263
1839.000000	102.963296
1838.000000	103.004849
1837.000000	103.057120
1836.000000	103.117020
1835.000000	103.182637
1834.000000	103.269942
1833.000000	103.383443
1832.000000	103.509917
1831.000000	103.612705
1830.000000	103.652322
1829.000000	103.658257
1828.000000	103.694422
1827.000000	103.778217
1826.000000	103.876299
1825.000000	103.956530
1824.000000	104.022857
1823.000000	104.099070
1822.000000	104.198174
1821.000000	104.312054
1820.000000	104.417910
1819.000000	104.497292
1818.000000	104.567543
1817.000000	104.658904
1816.000000	104.752555
1815.000000	104.820487
1814.000000	104.875197
1813.000000	104.937836
1812.000000	104.991300
1811.000000	104.996874
1810.000000	104.986437
1809.000000	105.017958
1808.000000	105.075228
1807.000000	105.121987
1806.000000	105.175571
1805.000000	105.258847
1804.000000	105.340974
1803.000000	105.397762
1802.000000	105.456080
1801.000000	105.539738
1800.000000	105.628735
1799.000000	105.689492
1798.000000	105.744564
1797.000000	105.815431
1796.000000	105.872060
1795.000000	105.900899
1794.000000	105.928739
1793.000000	105.961697
1792.000000	105.970505
1791.000000	105.951383
1790.000000	105.961245
1789.000000	106.023446
1788.000000	106.092859
1787.000000	106.131046
1786.000000	106.162939
1785.000000	106.224852
1784.000000	106.300593
1783.000000	106.375512
1782.000000	106.450446
1781.000000	106.507664
1780.000000	106.549613
1779.000000	106.590561
1778.000000	106.656415
1777.000000	106.739894
1776.000000	106.817465
1775.000000	106.901883
1774.000000	107.004039
1773.000000	107.101662
1772.000000	107.183271
1771.000000	107.247849
1770.000000	107.302134
1769.000000	107.386742
1768.000000	107.520895
1767.000000	107.666491
1766.000000	107.797351
1765.000000	107.931778
1764.000000	108.085757
1763.000000	108.217588
1762.000000	108.277027
1761.000000	108.307656
1760.000000	108.378881
1759.000000	108.475639
1758.000000	108.560144
1757.000000	108.607664
1756.000000	108.651232
1755.000000	108.708079
1754.000000	108.739949
1753.000000	108.749590
1752.000000	108.788838
1751.000000	108.870520
1750.000000	108.947823
1749.000000	108.991467
1748.000000	109.006917
1747.000000	109.019492
1746.000000	109.018769
1745.000000	108.999279
1744.000000	108.992335
1743.000000	108.995077
1742.000000	108.991515
1741.000000	108.992876
1740.000000	108.998442
1739.000000	108.975957
1738.000000	108.919472
1737.000000	108.856810
1736.000000	108.824097
1735.000000	108.785127
1734.000000	108.721358
1733.000000	108.716078
1732.000000	108.788300
1731.000000	108.848219
1730.000000	108.850936
1729.000000	108.796407
1728.000000	108.724249
1727.000000	108.673631
1726.000000	108.629468
1725.000000	108.576308
1724.000000	108.510163
1723.000000	108.427838
1722.000000	108.373954
1721.000000	108.375746
1720.000000	108.390726
1719.000000	108.334005
1718.000000	108.218802
1717.000000	108.191804
1716.000000	108.250130
1715.000000	108.286610
1714.000000	108.327915
1713.000000	108.426473
1712.000000	108.530016
1711.000000	108.605104
1710.000000	108.715986
1709.000000	108.905441
1708.000000	109.132947
1707.000000	109.348534
1706.000000	109.556163
1705.000000	109.770386
1704.000000	109.938812
1703.000000	110.067529
1702.000000	110.280357
1701.000000	110.578963
1700.000000	110.812824
1699.000000	110.923634
1698.000000	111.034740
1697.000000	111.214905
1696.000000	111.398909
1695.000000	111.534009
1694.000000	111.693566
1693.000000	111.882877
1692.000000	112.044903
1691.000000	112.160141
1690.000000	112.243741
1689.000000	112.304332
1688.000000	112.359682
1687.000000	112.452177
1686.000000	112.607948
1685.000000	112.744198
1684.000000	112.811684
1683.000000	112.919102
1682.000000	113.077971
1681.000000	113.174012
1680.000000	113.220597
1679.000000	113.281281
1678.000000	113.357193
1677.000000	113.414919
1676.000000	113.453398
1675.000000	113.507776
1674.000000	113.558502
1673.000000	113.577222
1672.000000	113.605642
1671.000000	113.656895
1670.000000	113.673139
1669.000000	113.607410
1668.000000	113.525259
1667.000000	113.497474
1666.000000	113.483067
1665.000000	113.422555
1664.000000	113.288580
1663.000000	113.093434
1662.000000	112.864538
1661.000000	112.584425
1660.000000	112.286618
1659.000000	112.019504
1658.000000	111.735188
1657.000000	111.377912
1656.000000	110.978325
1655.000000	110.559761
1654.000000	109.826649
1653.000000	108.675548
1652.000000	107.566595
1651.000000	106.711529
1650.000000	105.823969
1649.000000	104.624992
1648.000000	102.821440
1647.000000	100.286411
1646.000000	97.306931
1645.000000	94.313371
1644.000000	91.431548
1643.000000	88.564980
1642.000000	85.673237
1641.000000	82.873735
1640.000000	80.444831
1639.000000	78.599995
1638.000000	77.401415
1637.000000	76.863149
1636.000000	77.068126
1635.000000	78.017908
1634.000000	79.429737
1633.000000	81.038673
1632.000000	82.762170
1631.000000	84.602579
1630.000000	86.526827
1629.000000	88.451445
1628.000000	90.290709
1627.000000	91.983938
1626.000000	93.500730
1625.000000	94.876108
1624.000000	96.190738
1623.000000	97.462653
1622.000000	98.608877
1621.000000	99.561107
1620.000000	100.390593
1619.000000	101.218810
1618.000000	102.077325
1617.000000	102.910100
1616.000000	103.687459
1615.000000	104.394390
1614.000000	104.956555
1613.000000	105.329209
1612.000000	105.552277
1611.000000	105.657982
1610.000000	105.558563
1609.000000	105.111909
1608.000000	104.255728
1607.000000	102.946492
1606.000000	101.016379
1605.000000	98.240091
1604.000000	94.580621
1603.000000	90.204915
1602.000000	85.386477
1601.000000	80.430794
1600.000000	75.494700
1599.000000	70.392656
1598.000000	64.594194
1597.000000	57.633011
1596.000000	49.627224
1595.000000	41.377972
1594.000000	33.931300
1593.000000	28.025251
1592.000000	23.947065
1591.000000	21.649609
1590.000000	20.797549
1589.000000	20.806369
1588.000000	21.094004
1587.000000	21.290438
1586.000000	21.172502
1585.000000	20.644000
1584.000000	19.845707
1583.000000	19.118411
1582.000000	18.718266
1581.000000	18.656989
1580.000000	18.858295
1579.000000	19.299575
1578.000000	19.921425
1577.000000	20.524575
1576.000000	20.919252
1575.000000	21.141674
1574.000000	21.303963
1573.000000	21.426175
1572.000000	21.598178
1571.000000	22.082281
1570.000000	23.131146
1569.000000	24.712019
1568.000000	26.646205
1567.000000	28.904700
1566.000000	31.475453
1565.000000	34.143048
1564.000000	36.609988
1563.000000	38.775006
1562.000000	40.775198
1561.000000	42.895249
1560.000000	45.519931
1559.000000	48.807034
1558.000000	52.119651
1557.000000	54.820832
1556.000000	57.063194
1555.000000	59.241464
1554.000000	61.424076
1553.000000	63.426421
1552.000000	65.169771
1551.000000	66.751534
1550.000000	68.254770
1549.000000	69.642748
1548.000000	70.880897
1547.000000	72.049806
1546.000000	73.226095
1545.000000	74.371968
1544.000000	75.422875
1543.000000	76.397100
1542.000000	77.369696
1541.000000	78.351323
1540.000000	79.274021
1539.000000	80.126189
1538.000000	80.922311
1537.000000	81.638399
1536.000000	82.293491
1535.000000	82.955511
1534.000000	83.616251
1533.000000	84.205581
1532.000000	84.721404
1531.000000	85.215785
1530.000000	85.730766
1529.000000	86.246739
1528.000000	86.703188
1527.000000	87.109370
1526.000000	87.515382
1525.000000	87.921257
1524.000000	88.306827
1523.000000	88.676869
1522.000000	89.033998
1521.000000	89.366628
1520.000000	89.686710
1519.000000	90.024485
1518.000000	90.362088
1517.000000	90.644200
1516.000000	90.847148
1515.000000	91.026169
1514.000000	91.237423
1513.000000	91.485694
1512.000000	91.725800
1511.000000	91.917433
1510.000000	92.081626
1509.000000	92.268636
1508.000000	92.448795
1507.000000	92.552832
1506.000000	92.678088
1505.000000	92.913079
1504.000000	93.182741
1503.000000	93.424928
1502.000000	93.654869
1501.000000	93.892922
1500.000000	94.133201
1499.000000	94.355190
1498.000000	94.575529
1497.000000	94.868535
1496.000000	95.256245
1495.000000	95.688333
1494.000000	96.139544
1493.000000	96.603419
1492.000000	97.057427
1491.000000	97.471456
1490.000000	97.855228
1489.000000	98.249755
1488.000000	98.641721
1487.000000	99.009025
1486.000000	99.394999
1485.000000	99.780199
1484.000000	100.121127
1483.000000	100.442813
1482.000000	100.763514
1481.000000	101.065355
1480.000000	101.327111
1479.000000	101.582555
1478.000000	101.864856
1477.000000	102.146457
1476.000000	102.373728
1475.000000	102.585363
1474.000000	102.861477
1473.000000	103.178923
1472.000000	103.480322
1471.000000	103.745079
1470.000000	103.953047
1469.000000	104.049979
1468.000000	103.977307
1467.000000	103.679376
1466.000000	103.023326
1465.000000	101.788488
1464.000000	99.875441
1463.000000	97.308425
1462.000000	94.059841
1461.000000	90.088672
1460.000000	85.434126
1459.000000	80.143695
1458.000000	74.210409
1457.000000	68.166666
1456.000000	63.204479
1455.000000	59.787130
1454.000000	57.262374
1453.000000	55.015319
1452.000000	53.030032
1451.000000	51.643679
1450.000000	51.173992
1449.000000	51.786438
1448.000000	53.441179
1447.000000	55.789579
1446.000000	58.363632
1445.000000	60.943810
1444.000000	63.583295
1443.000000	66.296647
1442.000000	68.949088
1441.000000	71.400901
1440.000000	73.606727
1439.000000	75.606824
1438.000000	77.529760
1437.000000	79.541585
1436.000000	81.629903
1435.000000	83.577517
1434.000000	85.272593
1433.000000	86.812805
1432.000000	88.273730
1431.000000	89.586990
1430.000000	90.673125
1429.000000	91.579269
1428.000000	92.373215
1427.000000	93.071469
1426.000000	93.690193
1425.000000	94.274118
1424.000000	94.870906
1423.000000	95.439191
1422.000000	95.932995
1421.000000	96.398204
1420.000000	96.884398
1419.000000	97.336024
1418.000000	97.706864
1417.000000	98.082015
1416.000000	98.507829
1415.000000	98.921656
1414.000000	99.264960
1413.000000	99.561326
1412.000000	99.857366
1411.000000	100.123964
1410.000000	100.316061
1409.000000	100.458198
1408.000000	100.550573
1407.000000	100.500161
1406.000000	100.175703
1405.000000	99.479437
1404.000000	98.411158
1403.000000	97.057387
1402.000000	95.570720
1401.000000	94.125774
1400.000000	92.848910
1399.000000	91.779477
1398.000000	90.912171
1397.000000	90.317671
1396.000000	90.197783
1395.000000	90.773932
1394.000000	92.030622
1393.000000	93.672208
1392.000000	95.360161
1391.000000	96.865152
1390.000000	98.092672
1389.000000	99.086624
1388.000000	99.977174
1387.000000	100.865272
1386.000000	101.745027
1385.000000	102.541113
1384.000000	103.187033
1383.000000	103.639619
1382.000000	103.905044
1381.000000	104.055554
1380.000000	104.168787
1379.000000	104.273558
1378.000000	104.351380
1377.000000	104.356072
1376.000000	104.200725
1375.000000	103.749129
1374.000000	102.847721
1373.000000	101.385996
1372.000000	99.278294
1371.000000	96.404979
1370.000000	92.688297
1369.000000	88.334660
1368.000000	84.000474
1367.000000	80.516516
1366.000000	78.367332
1365.000000	77.481035
1364.000000	77.471790
1363.000000	78.044461
1362.000000	79.208637
1361.000000	81.131425
1360.000000	83.815291
1359.000000	86.970159
1358.000000	90.148739
1357.000000	92.965263
1356.000000	95.241821
1355.000000	97.001321
1354.000000	98.371385
1353.000000	99.496265
1352.000000	100.468077
1351.000000	101.321737
1350.000000	102.066435
1349.000000	102.707681
1348.000000	103.264008
1347.000000	103.751983
1346.000000	104.181522
1345.000000	104.565364
1344.000000	104.919564
1343.000000	105.251277
1342.000000	105.559516
1341.000000	105.848248
1340.000000	106.129785
1339.000000	106.415606
1338.000000	106.706516
1337.000000	106.998347
1336.000000	107.281843
1335.000000	107.539127
1334.000000	107.755611
1333.000000	107.930813
1332.000000	108.069240
1331.000000	108.167692
1330.000000	108.216547
1329.000000	108.209499
1328.000000	108.131440
1327.000000	107.940849
1326.000000	107.555736
1325.000000	106.841885
1324.000000	105.628743
1323.000000	103.737623
1322.000000	101.062980
1321.000000	97.688799
1320.000000	93.947552
1319.000000	90.341623
1318.000000	87.309316
1317.000000	85.012074
1316.000000	83.361780
1315.000000	82.261957
1314.000000	81.768101
1313.000000	81.991857
1312.000000	82.868038
1311.000000	84.071432
1310.000000	85.241792
1309.000000	86.277660
1308.000000	87.389310
1307.000000	88.875540
1306.000000	90.846592
1305.000000	93.145997
1304.000000	95.478209
1303.000000	97.569759
1302.000000	99.264535
1301.000000	100.539012
1300.000000	101.441398
1299.000000	102.021372
1298.000000	102.304743
1297.000000	102.299100
1296.000000	102.002250
1295.000000	101.388246
1294.000000	100.421934
1293.000000	99.095626
1292.000000	97.439304
1291.000000	95.516271
1290.000000	93.380327
1289.000000	91.015478
1288.000000	88.287439
1287.000000	84.972574
1286.000000	80.938705
1285.000000	76.380713
1284.000000	71.899653
1283.000000	68.321257
1282.000000	66.351779
1281.000000	66.273077
1280.000000	67.898472
1279.000000	70.722635
1278.000000	74.113768
1277.000000	77.503932
1276.000000	80.466866
1275.000000	82.737245
1274.000000	84.270333
1273.000000	85.308751
1272.000000	86.318025
1271.000000	87.721532
1270.000000	89.636928
1269.000000	91.856640
1268.000000	94.062301
1267.000000	96.037680
1266.000000	97.726757
1265.000000	99.168894
1264.000000	100.415517
1263.000000	101.496686
1262.000000	102.429345
1261.000000	103.238386
1260.000000	103.955034
1259.000000	104.599489
1258.000000	105.183571
1257.000000	105.719778
1256.000000	106.219649
1255.000000	106.685904
1254.000000	107.115623
1253.000000	107.513105
1252.000000	107.884875
1251.000000	108.228430
1250.000000	108.537409
1249.000000	108.813313
1248.000000	109.064199
1247.000000	109.292621
1246.000000	109.498092
1245.000000	109.690106
1244.000000	109.883755
1243.000000	110.085469
1242.000000	110.294658
1241.000000	110.515082
1240.000000	110.751083
1239.000000	110.994703
1238.000000	111.230358
1237.000000	111.448058
1236.000000	111.639311
1235.000000	111.786314
1234.000000	111.867553
1233.000000	111.874407
1232.000000	111.806830
1231.000000	111.655068
1230.000000	111.403540
1229.000000	111.034267
1228.000000	110.518760
1227.000000	109.795059
1226.000000	108.753778
1225.000000	107.255235
1224.000000	105.125829
1223.000000	102.193400
1222.000000	98.366277
1221.000000	93.705216
1220.000000	88.462826
1219.000000	83.017326
1218.000000	77.746917
1217.000000	72.915532
1216.000000	68.627295
1215.000000	64.854596
1214.000000	61.514555
1213.000000	58.548798
1212.000000	55.959751
1211.000000	53.791563
1210.000000	52.051576
1209.000000	50.707098
1208.000000	49.741319
1207.000000	49.168937
1206.000000	49.018855
1205.000000	49.284110
1204.000000	49.914010
1203.000000	50.821391
1202.000000	51.900581
1201.000000	53.112332
1200.000000	54.528838
1199.000000	56.290843
1198.000000	58.508862
1197.000000	61.194510
1196.000000	64.276585
1195.000000	67.621993
1194.000000	71.062897
1193.000000	74.445398
1192.000000	77.662508
1191.000000	80.646340
1190.000000	83.350903
1189.000000	85.756634
1188.000000	87.868723
1187.000000	89.703533
1186.000000	91.266155
1185.000000	92.563520
1184.000000	93.618022
1183.000000	94.448037
1182.000000	95.066519
1181.000000	95.481747
1180.000000	95.706814
1179.000000	95.763728
1178.000000	95.679781
1177.000000	95.498893
1176.000000	95.274118
1175.000000	95.051527
1174.000000	94.866394
1173.000000	94.749965
1172.000000	94.730430
1171.000000	94.821171
1170.000000	95.017576
1169.000000	95.308075
1168.000000	95.678979
1167.000000	96.098640
1166.000000	96.509655
1165.000000	96.846241
1164.000000	97.058991
1163.000000	97.137205
1162.000000	97.127801
1161.000000	97.134921
1160.000000	97.276923
1159.000000	97.622554
1158.000000	98.168589
1157.000000	98.870479
1156.000000	99.680600
1155.000000	100.555945
1154.000000	101.451298
1153.000000	102.322870
1152.000000	103.126757
1151.000000	103.810956
1150.000000	104.325927
1149.000000	104.656241
1148.000000	104.827306
1147.000000	104.885161
1146.000000	104.878118
1145.000000	104.842806
1144.000000	104.792358
1143.000000	104.691892
1142.000000	104.463533
1141.000000	104.023751
1140.000000	103.294247
1139.000000	102.206329
1138.000000	100.678314
1137.000000	98.611129
1136.000000	95.897147
1135.000000	92.394002
1134.000000	87.954963
1133.000000	82.464382
1132.000000	75.905871
1131.000000	68.457926
1130.000000	60.538636
1129.000000	52.781112
1128.000000	45.915038
1127.000000	40.563457
1126.000000	37.028092
1125.000000	35.259415
1124.000000	34.943926
1123.000000	35.613744
1122.000000	36.727089
1121.000000	37.741231
1120.000000	38.255633
1119.000000	38.060226
1118.000000	37.126220
1117.000000	35.649043
1116.000000	34.092295
1115.000000	33.126095
1114.000000	33.374985
1113.000000	35.164083
1112.000000	38.429156
1111.000000	42.736998
1110.000000	47.397240
1109.000000	51.662474
1108.000000	54.961981
1107.000000	57.035379
1106.000000	57.916409
1105.000000	57.850913
1104.000000	57.250740
1103.000000	56.661091
1102.000000	56.637155
1101.000000	57.556354
1100.000000	59.490070
1099.000000	62.222828
1098.000000	65.391944
1097.000000	68.647943
1096.000000	71.732520
1095.000000	74.493462
1094.000000	76.887554
1093.000000	78.968599
1092.000000	80.840221
1091.000000	82.597840
1090.000000	84.309525
1089.000000	86.030157
1088.000000	87.805146
1087.000000	89.641534
1086.000000	91.501613
1085.000000	93.322258
1084.000000	95.029288
1083.000000	96.553935
1082.000000	97.853459
1081.000000	98.932279
1080.000000	99.824347
1079.000000	100.554880
1078.000000	101.142860
1077.000000	101.604777
1076.000000	101.943566
1075.000000	102.132142
1074.000000	102.109471
1073.000000	101.814313
1072.000000	101.165023
1071.000000	100.041316
1070.000000	98.294578
1069.000000	95.736813
1068.000000	92.170009
1067.000000	87.390498
1066.000000	81.268959
1065.000000	73.889357
1064.000000	65.615287
1063.000000	57.076970
1062.000000	48.994464
1061.000000	41.927043
1060.000000	36.079675
1059.000000	31.285060
1058.000000	27.151387
1057.000000	23.382330
1056.000000	20.070087
1055.000000	17.678259
1054.000000	16.816394
1053.000000	17.879356
1052.000000	20.856713
1051.000000	25.347184
1050.000000	30.681365
1049.000000	36.206403
1048.000000	41.473302
1047.000000	46.276085
1046.000000	50.590176
1045.000000	54.480918
1044.000000	58.032356
1043.000000	61.288151
1042.000000	64.241446
1041.000000	66.869861
1040.000000	69.185303
1039.000000	71.221049
1038.000000	73.014979
1037.000000	74.612450
1036.000000	76.054786
1035.000000	77.373583
1034.000000	78.582770
1033.000000	79.695318
1032.000000	80.732238
1031.000000	81.704702
1030.000000	82.614880
1029.000000	83.467985
1028.000000	84.276774
1027.000000	85.052561
1026.000000	85.801508
1025.000000	86.536208
1024.000000	87.270642
1023.000000	88.001987
1022.000000	88.713145
1021.000000	89.384196
1020.000000	89.994142
1019.000000	90.501878
1018.000000	90.838787
1017.000000	90.925859
1016.000000	90.652736
1015.000000	89.876491
1014.000000	88.438818
1013.000000	86.202454
1012.000000	83.110661
1011.000000	79.222291
1010.000000	74.767368
1009.000000	70.153837
1008.000000	65.881714
1007.000000	62.411044
1006.000000	60.082785
1005.000000	59.082120
1004.000000	59.390828
1003.000000	60.730212
1002.000000	62.567401
1001.000000	64.287476
1000.000000	65.378974
999.000000	65.502460
998.000000	64.503238
997.000000	62.480011
996.000000	59.859167
995.000000	57.305191
994.000000	55.430750
993.000000	54.526906
992.000000	54.535401
991.000000	55.248719
990.000000	56.522912
989.000000	58.339289
988.000000	60.730076
987.000000	63.626497
986.000000	66.811521
985.000000	70.004545
984.000000	72.978070
983.000000	75.618031
982.000000	77.903529
981.000000	79.868062
980.000000	81.563137
979.000000	83.038878
978.000000	84.328961
977.000000	85.461625
976.000000	86.464605
975.000000	87.355946
974.000000	88.150849
973.000000	88.864375
972.000000	89.515290
971.000000	90.118656
970.000000	90.680924
969.000000	91.209921
968.000000	91.713738
967.000000	92.194688
966.000000	92.649018
965.000000	93.072970
964.000000	93.466366
963.000000	93.827469
962.000000	94.155622
961.000000	94.458213
960.000000	94.746049
959.000000	95.024596
958.000000	95.294353
957.000000	95.558925
956.000000	95.823781
955.000000	96.086961
954.000000	96.341297
953.000000	96.583464
952.000000	96.813902
951.000000	97.030170
950.000000	97.228424
949.000000	97.411104
948.000000	97.583704
947.000000	97.746371
946.000000	97.897114
945.000000	98.039314
944.000000	98.178312
943.000000	98.313268
942.000000	98.442009
941.000000	98.571199
940.000000	98.711476
939.000000	98.865271
938.000000	99.027852
937.000000	99.196993
936.000000	99.371916
935.000000	99.546193
934.000000	99.712324
933.000000	99.871205
932.000000	100.027831
931.000000	100.180711
930.000000	100.324213
929.000000	100.457786
928.000000	100.583873
927.000000	100.700989
926.000000	100.809013
925.000000	100.916411
924.000000	101.032714
923.000000	101.157610
922.000000	101.286217
921.000000	101.419679
920.000000	101.560565
919.000000	101.703673
918.000000	101.841882
917.000000	101.975815
916.000000	102.107630
915.000000	102.231289
914.000000	102.340132
913.000000	102.438749
912.000000	102.536350
911.000000	102.634592
910.000000	102.732315
909.000000	102.835673
908.000000	102.952234
907.000000	103.080774
906.000000	103.217432
905.000000	103.364607
904.000000	103.521726
903.000000	103.674677
902.000000	103.803216
901.000000	103.892395
900.000000	103.921876
899.000000	103.849941
898.000000	103.628269
897.000000	103.231155
896.000000	102.682091
895.000000	102.059617
894.000000	101.461057
893.000000	100.923435
892.000000	100.359637
891.000000	99.613946
890.000000	98.621572
889.000000	97.505101
888.000000	96.485500
887.000000	95.721194
886.000000	95.253482
885.000000	95.071846
884.000000	95.162781
883.000000	95.461564
882.000000	95.830153
881.000000	96.143949
880.000000	96.407858
879.000000	96.765833
878.000000	97.374669
877.000000	98.275911
876.000000	99.362987
875.000000	100.456070
874.000000	101.413374
873.000000	102.186210
872.000000	102.794770
871.000000	103.273270
870.000000	103.646116
869.000000	103.925386
868.000000	104.106927
867.000000	104.162899
866.000000	104.058391
865.000000	103.787353
864.000000	103.387149
863.000000	102.936502
862.000000	102.543318
861.000000	102.314510
860.000000	102.308069
859.000000	102.506313
858.000000	102.838859
857.000000	103.232371
856.000000	103.639775
855.000000	104.035739
854.000000	104.411581
853.000000	104.770182
852.000000	105.111539
851.000000	105.423380
850.000000	105.693446
849.000000	105.923305
848.000000	106.119884
847.000000	106.282570
846.000000	106.409855
845.000000	106.511846
844.000000	106.601061
843.000000	106.679959
842.000000	106.749897
841.000000	106.822746
840.000000	106.910794
839.000000	107.012109
838.000000	107.119010
837.000000	107.232580
836.000000	107.355230
835.000000	107.478042
834.000000	107.589520
833.000000	107.689238
832.000000	107.779988
831.000000	107.855553
830.000000	107.911291
829.000000	107.958098
828.000000	108.011092
827.000000	108.072405
826.000000	108.138735
825.000000	108.215362
824.000000	108.305734
823.000000	108.397348
822.000000	108.476114
821.000000	108.545246
820.000000	108.614372
819.000000	108.680989
818.000000	108.737176
817.000000	108.783631
816.000000	108.820273
815.000000	108.833773
814.000000	108.808185
813.000000	108.735681
812.000000	108.602721
811.000000	108.378764
810.000000	108.046101
809.000000	107.641530
808.000000	107.252923
807.000000	106.971297
806.000000	106.844963
805.000000	106.860960
804.000000	106.954128
803.000000	107.040880
802.000000	107.061394
801.000000	106.993002
800.000000	106.824785
799.000000	106.535793
798.000000	106.098937
797.000000	105.490187
796.000000	104.675397
795.000000	103.607620
794.000000	102.259832
793.000000	100.654468
792.000000	98.869482
791.000000	97.029916
790.000000	95.298308
789.000000	93.840578
788.000000	92.772211
787.000000	92.127632
786.000000	91.878396
785.000000	91.964159
784.000000	92.292880
783.000000	92.742699
782.000000	93.188807
781.000000	93.541217
780.000000	93.761413
779.000000	93.865206
778.000000	93.933196
777.000000	94.093384
776.000000	94.461628
775.000000	95.087594
774.000000	95.950689
773.000000	96.989010
772.000000	98.118881
771.000000	99.253980
770.000000	100.336582
769.000000	101.347738
768.000000	102.279495
767.000000	103.111543
766.000000	103.828130
765.000000	104.435883
764.000000	104.949266
763.000000	105.373748
762.000000	105.719292
761.000000	106.011462
760.000000	106.269721
759.000000	106.492923
758.000000	106.678809
757.000000	106.840262
756.000000	106.986876
755.000000	107.109698
754.000000	107.202134
753.000000	107.276194
752.000000	107.342121
751.000000	107.390908
750.000000	107.412344
749.000000	107.411053
748.000000	107.387377
747.000000	107.322693
746.000000	107.201184
745.000000	107.025640
744.000000	106.797115
743.000000	106.502466
742.000000	106.140562
741.000000	105.739840
740.000000	105.333106
739.000000	104.937638
738.000000	104.572176
737.000000	104.261443
736.000000	103.999555
735.000000	103.732585
734.000000	103.400382
733.000000	102.975831
732.000000	102.454737
731.000000	101.847957
730.000000	101.211136
729.000000	100.650854
728.000000	100.270586
727.000000	100.121059
726.000000	100.209926
725.000000	100.525044
724.000000	101.017540
723.000000	101.596016
722.000000	102.180887
721.000000	102.751924
720.000000	103.319781
719.000000	103.875576
718.000000	104.396226
717.000000	104.869472
716.000000	105.281930
715.000000	105.607605
714.000000	105.836478
713.000000	105.991323
712.000000	106.094089
711.000000	106.144170
710.000000	106.152220
709.000000	106.159095
708.000000	106.196501
707.000000	106.259566
706.000000	106.339448
705.000000	106.453275
704.000000	106.611395
703.000000	106.785834
702.000000	106.951144
701.000000	107.117030
700.000000	107.286646
699.000000	107.430171
698.000000	107.527249
697.000000	107.599940
696.000000	107.663732
695.000000	107.687717
694.000000	107.655589
693.000000	107.605937
692.000000	107.567588
691.000000	107.517753
690.000000	107.443721
689.000000	107.394763
688.000000	107.406724
687.000000	107.431972
686.000000	107.426136
685.000000	107.424133
684.000000	107.459038
683.000000	107.493168
682.000000	107.500799
681.000000	107.535566
680.000000	107.630281
679.000000	107.731746
678.000000	107.808577
677.000000	107.901308
676.000000	108.035965
675.000000	108.180366
674.000000	108.331955
673.000000	108.595523
672.000000	109.119341
671.000000	109.961761
670.000000	111.055065
669.000000	111.940832
668.000000	111.828280
667.000000	110.924540
666.000000	110.152016
665.000000	109.694929
664.000000	109.437120
663.000000	109.348176
662.000000	109.392914
661.000000	109.476679
660.000000	109.519438
659.000000	109.521029
658.000000	109.505375
657.000000	109.446337
656.000000	109.332134
655.000000	109.230958
654.000000	109.186215
653.000000	109.154192
652.000000	109.115199
651.000000	109.117381
650.000000	109.166684
649.000000	109.188835
648.000000	109.153928
647.000000	109.118605
646.000000	109.108258
645.000000	109.077725
644.000000	109.009215
643.000000	108.950221
642.000000	108.927325
641.000000	108.901154
640.000000	108.848755
639.000000	108.807752
638.000000	108.798496
637.000000	108.787733
636.000000	108.762716
635.000000	108.759728
634.000000	108.795219
633.000000	108.837915
632.000000	108.869812
631.000000	108.912062
630.000000	108.964526
629.000000	108.981556
628.000000	108.938574
627.000000	108.863848
626.000000	108.781791
625.000000	108.685395
624.000000	108.579315
623.000000	108.501097
622.000000	108.474489
621.000000	108.481219
620.000000	108.496253
619.000000	108.510562
618.000000	108.513321
617.000000	108.490317
616.000000	108.449101
615.000000	108.409381
614.000000	108.361652
613.000000	108.276598
612.000000	108.156418
611.000000	108.035097
610.000000	107.927962
609.000000	107.816430
608.000000	107.689633
607.000000	107.558296
606.000000	107.421006
605.000000	107.264905
604.000000	107.095104
603.000000	106.926765
602.000000	106.745308
601.000000	106.507812
600.000000	106.185727
599.000000	105.775414
598.000000	105.264754
597.000000	104.627947
596.000000	103.865821
595.000000	103.016592
594.000000	102.107737
593.000000	101.114040
592.000000	99.963729
591.000000	98.588030
590.000000	97.001880
589.000000	95.379062
588.000000	94.015522
587.000000	93.140823
586.000000	92.751454
585.000000	92.685781
584.000000	92.871558
583.000000	93.389338
582.000000	94.287682
581.000000	95.450578
580.000000	96.675621
579.000000	97.806656
578.000000	98.748010
577.000000	99.444804
576.000000	99.907920
575.000000	100.211764
574.000000	100.421505
573.000000	100.555777
572.000000	100.629639
571.000000	100.674850
570.000000	100.696444
569.000000	100.645259
568.000000	100.466299
567.000000	100.116824
566.000000	99.515853
565.000000	98.535932
564.000000	97.085792
563.000000	95.210706
562.000000	93.099263
561.000000	91.010277
560.000000	89.175848
559.000000	87.695871
558.000000	86.485980
557.000000	85.404141
556.000000	84.501870
555.000000	84.082369
554.000000	84.460187
553.000000	85.689770
552.000000	87.539990
551.000000	89.632979
550.000000	91.572197
549.000000	93.082370
548.000000	94.106741
547.000000	94.751717
546.000000	95.136609
545.000000	95.330630
544.000000	95.400302
543.000000	95.425357
542.000000	95.441843
541.000000	95.417511
540.000000	95.323138
539.000000	95.173964
538.000000	94.986243
537.000000	94.749063
536.000000	94.463319
535.000000	94.161335
534.000000	93.862418
533.000000	93.556198
532.000000	93.243004
531.000000	92.958065
530.000000	92.723336
529.000000	92.507819
528.000000	92.257688
527.000000	91.935463
526.000000	91.500278
525.000000	90.902917
524.000000	90.129821
523.000000	89.210192
522.000000	88.180281
521.000000	87.073551
520.000000	85.952406
519.000000	84.895351
518.000000	83.922511
517.000000	82.979663
516.000000	82.025856
515.000000	81.086102
514.000000	80.207269
513.000000	79.437187
512.000000	78.867363
511.000000	78.636348
510.000000	78.827155
509.000000	79.399419
508.000000	80.263618
507.000000	81.356616
506.000000	82.620620
505.000000	83.989485
504.000000	85.432774
503.000000	86.950252
502.000000	88.481739
501.000000	89.891973
500.000000	91.080039
499.000000	92.045311
498.000000	92.824737
497.000000	93.445586
496.000000	93.946330
495.000000	94.380334
494.000000	94.780542
493.000000	95.139146
492.000000	95.454572
491.000000	95.749288
490.000000	96.017307
489.000000	96.215813
488.000000	96.313344
487.000000	96.311033
486.000000	96.180583
485.000000	95.817485
484.000000	95.105440
483.000000	93.996799
482.000000	92.527405
481.000000	90.815878
480.000000	89.095749
479.000000	87.662828
478.000000	86.692824
477.000000	86.127450
476.000000	85.767592
475.000000	85.442299
474.000000	85.063112
473.000000	84.647173
472.000000	84.376171
471.000000	84.521912
470.000000	85.219327
469.000000	86.380337
468.000000	87.838975
467.000000	89.446641
466.000000	91.044207
465.000000	92.482343
464.000000	93.689251
463.000000	94.691465
462.000000	95.542786
461.000000	96.262645
460.000000	96.856528
459.000000	97.346948
458.000000	97.759250
457.000000	98.114066
456.000000	98.439710
455.000000	98.749368
454.000000	99.017950
453.000000	99.206172
452.000000	99.319282
451.000000	99.410999
450.000000	99.504300
449.000000	99.570343
448.000000	99.591630
447.000000	99.593408
446.000000	99.600603
445.000000	99.613780
444.000000	99.631795
443.000000	99.670863
442.000000	99.734299
441.000000	99.798928
440.000000	99.852776
439.000000	99.897910
438.000000	99.912307
437.000000	99.853509
436.000000	99.722805
435.000000	99.567924
434.000000	99.388810
433.000000	99.103377
432.000000	98.644239
431.000000	98.048134
430.000000	97.419021
429.000000	96.833405
428.000000	96.348130
427.000000	96.037243
426.000000	95.915676
425.000000	95.891834
424.000000	95.892093
423.000000	95.961097
422.000000	96.144908
421.000000	96.371031
420.000000	96.541693
419.000000	96.708736
418.000000	97.013632
417.000000	97.445063
416.000000	97.898825
415.000000	98.334301
414.000000	98.730757
413.000000	99.027395
412.000000	99.177224
411.000000	99.202370
410.000000	99.149753
409.000000	99.024255
408.000000	98.853967
407.000000	98.738467
406.000000	98.730042
405.000000	98.753389
404.000000	98.756727
403.000000	98.801036
402.000000	98.943666
401.000000	99.094109
400.000000	99.161534
