PE IR       SUBTECH     SPECTRUM    ASCII       PEDS        4.00        
   -1
23ms070-cis.asc
24/10/22
14:51:06.00
24/10/22
14:51:06.00
Administrator
Sample 1325 By Administrator Date Tuesday, October 22 2024
400.000000
#HDR
-1
-1
#GR
cm-1
%T
1.0
0.0
4000.000000
-1.000000
3601
8
94.259512
11.665609
#DATA
4000.000000	74.753743
3999.000000	74.738942
3998.000000	74.728525
3997.000000	74.721365
3996.000000	74.715922
3995.000000	74.711649
3994.000000	74.709427
3993.000000	74.710155
3992.000000	74.713196
3991.000000	74.716937
3990.000000	74.721035
3989.000000	74.727397
3988.000000	74.738497
3987.000000	74.755299
3986.000000	74.777343
3985.000000	74.803861
3984.000000	74.834057
3983.000000	74.866996
3982.000000	74.902159
3981.000000	74.939911
3980.000000	74.980954
3979.000000	75.025441
3978.000000	75.072585
3977.000000	75.120984
3976.000000	75.169494
3975.000000	75.217067
3974.000000	75.262276
3973.000000	75.304023
3972.000000	75.342269
3971.000000	75.378007
3970.000000	75.412250
3969.000000	75.446524
3968.000000	75.482969
3967.000000	75.523290
3966.000000	75.568239
3965.000000	75.617726
3964.000000	75.671176
3963.000000	75.727497
3962.000000	75.785301
3961.000000	75.843584
3960.000000	75.902379
3959.000000	75.962046
3958.000000	76.021663
3957.000000	76.080981
3956.000000	76.141373
3955.000000	76.204083
3954.000000	76.268827
3953.000000	76.332918
3952.000000	76.393173
3951.000000	76.447292
3950.000000	76.495499
3949.000000	76.540986
3948.000000	76.586926
3947.000000	76.635459
3946.000000	76.687119
3945.000000	76.738502
3944.000000	76.782317
3943.000000	76.813440
3942.000000	76.837394
3941.000000	76.866514
3940.000000	76.907672
3939.000000	76.958601
3938.000000	77.011560
3937.000000	77.062343
3936.000000	77.113621
3935.000000	77.167852
3934.000000	77.222161
3933.000000	77.269328
3932.000000	77.306960
3931.000000	77.338475
3930.000000	77.366825
3929.000000	77.394533
3928.000000	77.423422
3927.000000	77.454183
3926.000000	77.481464
3925.000000	77.497389
3924.000000	77.506130
3923.000000	77.520440
3922.000000	77.543416
3921.000000	77.566304
3920.000000	77.581912
3919.000000	77.594362
3918.000000	77.609109
3917.000000	77.624041
3916.000000	77.636383
3915.000000	77.648302
3914.000000	77.663226
3913.000000	77.681099
3912.000000	77.700125
3911.000000	77.724720
3910.000000	77.758153
3909.000000	77.800997
3908.000000	77.852298
3907.000000	77.906080
3906.000000	77.953113
3905.000000	77.982840
3904.000000	77.999530
3903.000000	78.023271
3902.000000	78.064822
3901.000000	78.115355
3900.000000	78.156709
3899.000000	78.181669
3898.000000	78.203010
3897.000000	78.234585
3896.000000	78.277723
3895.000000	78.329566
3894.000000	78.384501
3893.000000	78.438856
3892.000000	78.487538
3891.000000	78.528012
3890.000000	78.565829
3889.000000	78.613089
3888.000000	78.679951
3887.000000	78.756631
3886.000000	78.818410
3885.000000	78.861267
3884.000000	78.902381
3883.000000	78.948070
3882.000000	78.982549
3881.000000	78.989166
3880.000000	78.976642
3879.000000	78.971007
3878.000000	78.987010
3877.000000	79.021999
3876.000000	79.061071
3875.000000	79.083462
3874.000000	79.084311
3873.000000	79.088046
3872.000000	79.122345
3871.000000	79.176558
3870.000000	79.215644
3869.000000	79.238085
3868.000000	79.268563
3867.000000	79.316887
3866.000000	79.363311
3865.000000	79.381968
3864.000000	79.381615
3863.000000	79.390396
3862.000000	79.413225
3861.000000	79.448753
3860.000000	79.497820
3859.000000	79.559502
3858.000000	79.635079
3857.000000	79.728760
3856.000000	79.835315
3855.000000	79.906961
3854.000000	79.915322
3853.000000	79.922657
3852.000000	79.966464
3851.000000	79.999255
3850.000000	79.988906
3849.000000	79.955070
3848.000000	79.927603
3847.000000	79.926109
3846.000000	79.949109
3845.000000	79.985658
3844.000000	80.028707
3843.000000	80.072268
3842.000000	80.115938
3841.000000	80.170423
3840.000000	80.229811
3839.000000	80.281680
3838.000000	80.330131
3837.000000	80.378385
3836.000000	80.416173
3835.000000	80.433233
3834.000000	80.437862
3833.000000	80.444495
3832.000000	80.454155
3831.000000	80.466938
3830.000000	80.489884
3829.000000	80.525466
3828.000000	80.566956
3827.000000	80.604425
3826.000000	80.633092
3825.000000	80.668825
3824.000000	80.730251
3823.000000	80.809510
3822.000000	80.873399
3821.000000	80.904755
3820.000000	80.926381
3819.000000	80.964567
3818.000000	81.023119
3817.000000	81.077322
3816.000000	81.100761
3815.000000	81.104483
3814.000000	81.116468
3813.000000	81.136341
3812.000000	81.147083
3811.000000	81.151760
3810.000000	81.171926
3809.000000	81.218697
3808.000000	81.278943
3807.000000	81.331887
3806.000000	81.376231
3805.000000	81.429070
3804.000000	81.496782
3803.000000	81.568908
3802.000000	81.615850
3801.000000	81.634731
3800.000000	81.653718
3799.000000	81.677479
3798.000000	81.691306
3797.000000	81.685521
3796.000000	81.669922
3795.000000	81.665172
3794.000000	81.682423
3793.000000	81.711505
3792.000000	81.738207
3791.000000	81.763601
3790.000000	81.795386
3789.000000	81.832801
3788.000000	81.870077
3787.000000	81.904953
3786.000000	81.938904
3785.000000	81.970891
3784.000000	81.998817
3783.000000	82.028317
3782.000000	82.064426
3781.000000	82.099281
3780.000000	82.119897
3779.000000	82.130687
3778.000000	82.148674
3777.000000	82.182334
3776.000000	82.222990
3775.000000	82.259297
3774.000000	82.291872
3773.000000	82.330424
3772.000000	82.379021
3771.000000	82.429175
3770.000000	82.473900
3769.000000	82.519062
3768.000000	82.569566
3767.000000	82.622560
3766.000000	82.672675
3765.000000	82.713618
3764.000000	82.750271
3763.000000	82.798244
3762.000000	82.861470
3761.000000	82.923134
3760.000000	82.967449
3759.000000	83.010772
3758.000000	83.069433
3757.000000	83.134691
3756.000000	83.200779
3755.000000	83.276103
3754.000000	83.366421
3753.000000	83.453823
3752.000000	83.522410
3751.000000	83.598597
3750.000000	83.702896
3749.000000	83.803138
3748.000000	83.870614
3747.000000	83.928939
3746.000000	83.999345
3745.000000	84.057175
3744.000000	84.098436
3743.000000	84.145971
3742.000000	84.185731
3741.000000	84.200804
3740.000000	84.204711
3739.000000	84.233442
3738.000000	84.306533
3737.000000	84.396571
3736.000000	84.464332
3735.000000	84.497926
3734.000000	84.521652
3733.000000	84.555620
3732.000000	84.591734
3731.000000	84.615677
3730.000000	84.624949
3729.000000	84.633499
3728.000000	84.652843
3727.000000	84.673241
3726.000000	84.686407
3725.000000	84.699566
3724.000000	84.717508
3723.000000	84.729817
3722.000000	84.730543
3721.000000	84.733428
3720.000000	84.751119
3719.000000	84.789938
3718.000000	84.843887
3717.000000	84.901287
3716.000000	84.964281
3715.000000	85.038419
3714.000000	85.122431
3713.000000	85.204714
3712.000000	85.277876
3711.000000	85.347559
3710.000000	85.415971
3709.000000	85.482365
3708.000000	85.543112
3707.000000	85.593980
3706.000000	85.637392
3705.000000	85.680233
3704.000000	85.723729
3703.000000	85.761251
3702.000000	85.791393
3701.000000	85.824480
3700.000000	85.865486
3699.000000	85.911179
3698.000000	85.958849
3697.000000	86.003384
3696.000000	86.045581
3695.000000	86.092949
3694.000000	86.148668
3693.000000	86.206420
3692.000000	86.255537
3691.000000	86.291547
3690.000000	86.324847
3689.000000	86.379334
3688.000000	86.457839
3687.000000	86.526536
3686.000000	86.558082
3685.000000	86.559617
3684.000000	86.550633
3683.000000	86.550770
3682.000000	86.575564
3681.000000	86.621642
3680.000000	86.672308
3679.000000	86.717557
3678.000000	86.775956
3677.000000	86.856021
3676.000000	86.933926
3675.000000	87.001565
3674.000000	87.061015
3673.000000	87.108981
3672.000000	87.149277
3671.000000	87.173322
3670.000000	87.171845
3669.000000	87.166644
3668.000000	87.174259
3667.000000	87.181699
3666.000000	87.177910
3665.000000	87.168790
3664.000000	87.164738
3663.000000	87.175294
3662.000000	87.198744
3661.000000	87.223475
3660.000000	87.248498
3659.000000	87.280401
3658.000000	87.323981
3657.000000	87.373507
3656.000000	87.424942
3655.000000	87.480170
3654.000000	87.535331
3653.000000	87.587498
3652.000000	87.635050
3651.000000	87.669116
3650.000000	87.695048
3649.000000	87.739948
3648.000000	87.807603
3647.000000	87.867139
3646.000000	87.894373
3645.000000	87.895122
3644.000000	87.888367
3643.000000	87.887308
3642.000000	87.890453
3641.000000	87.896135
3640.000000	87.910531
3639.000000	87.934603
3638.000000	87.962205
3637.000000	87.989790
3636.000000	88.024241
3635.000000	88.066613
3634.000000	88.103364
3633.000000	88.126055
3632.000000	88.143189
3631.000000	88.163302
3630.000000	88.171034
3629.000000	88.160680
3628.000000	88.157408
3627.000000	88.160047
3626.000000	88.135133
3625.000000	88.073143
3624.000000	87.993221
3623.000000	87.915313
3622.000000	87.845842
3621.000000	87.773878
3620.000000	87.684466
3619.000000	87.582375
3618.000000	87.483856
3617.000000	87.392150
3616.000000	87.301962
3615.000000	87.204641
3614.000000	87.091947
3613.000000	86.968388
3612.000000	86.849622
3611.000000	86.743484
3610.000000	86.642283
3609.000000	86.533859
3608.000000	86.411357
3607.000000	86.276334
3606.000000	86.130975
3605.000000	85.977802
3604.000000	85.821953
3603.000000	85.666324
3602.000000	85.515052
3601.000000	85.374122
3600.000000	85.248027
3599.000000	85.134736
3598.000000	85.026116
3597.000000	84.912152
3596.000000	84.790860
3595.000000	84.659720
3594.000000	84.516985
3593.000000	84.367907
3592.000000	84.220527
3591.000000	84.085041
3590.000000	83.972804
3589.000000	83.891138
3588.000000	83.840157
3587.000000	83.815736
3586.000000	83.806107
3585.000000	83.794057
3584.000000	83.764854
3583.000000	83.712265
3582.000000	83.639877
3581.000000	83.555739
3580.000000	83.466950
3579.000000	83.374332
3578.000000	83.277349
3577.000000	83.177963
3576.000000	83.079490
3575.000000	82.983329
3574.000000	82.887783
3573.000000	82.791951
3572.000000	82.693973
3571.000000	82.590095
3570.000000	82.478251
3569.000000	82.357201
3568.000000	82.224397
3567.000000	82.080272
3566.000000	81.928963
3565.000000	81.771527
3564.000000	81.606370
3563.000000	81.432176
3562.000000	81.248502
3561.000000	81.056680
3560.000000	80.859020
3559.000000	80.657179
3558.000000	80.452153
3557.000000	80.245771
3556.000000	80.038720
3555.000000	79.828418
3554.000000	79.609790
3553.000000	79.380521
3552.000000	79.143909
3551.000000	78.903064
3550.000000	78.656374
3549.000000	78.400124
3548.000000	78.131793
3547.000000	77.851302
3546.000000	77.559867
3545.000000	77.259745
3544.000000	76.952809
3543.000000	76.638078
3542.000000	76.311983
3541.000000	75.972524
3540.000000	75.619528
3539.000000	75.251534
3538.000000	74.865901
3537.000000	74.463099
3536.000000	74.048424
3535.000000	73.624818
3534.000000	73.190033
3533.000000	72.739763
3532.000000	72.271079
3531.000000	71.780768
3530.000000	71.264359
3529.000000	70.720820
3528.000000	70.154567
3527.000000	69.570640
3526.000000	68.969457
3525.000000	68.348464
3524.000000	67.706263
3523.000000	67.043153
3522.000000	66.359477
3521.000000	65.655667
3520.000000	64.931654
3519.000000	64.185002
3518.000000	63.412859
3517.000000	62.616651
3516.000000	61.802067
3515.000000	60.972885
3514.000000	60.129373
3513.000000	59.271013
3512.000000	58.395552
3511.000000	57.496717
3510.000000	56.570163
3509.000000	55.622428
3508.000000	54.667011
3507.000000	53.709717
3506.000000	52.743108
3505.000000	51.757286
3504.000000	50.752016
3503.000000	49.736368
3502.000000	48.720769
3501.000000	47.712125
3500.000000	46.711735
3499.000000	45.714679
3498.000000	44.714714
3497.000000	43.712119
3496.000000	42.714277
3495.000000	41.728002
3494.000000	40.756079
3493.000000	39.801503
3492.000000	38.867634
3491.000000	37.952892
3490.000000	37.052283
3489.000000	36.166164
3488.000000	35.302916
3487.000000	34.471512
3486.000000	33.675488
3485.000000	32.913793
3484.000000	32.180762
3483.000000	31.466094
3482.000000	30.762947
3481.000000	30.077195
3480.000000	29.422257
3479.000000	28.802839
3478.000000	28.210252
3477.000000	27.633381
3476.000000	27.066694
3475.000000	26.508315
3474.000000	25.957602
3473.000000	25.417572
3472.000000	24.894617
3471.000000	24.394684
3470.000000	23.925915
3469.000000	23.503005
3468.000000	23.141673
3467.000000	22.848268
3466.000000	22.619563
3465.000000	22.452536
3464.000000	22.346959
3463.000000	22.301145
3462.000000	22.314447
3461.000000	22.392129
3460.000000	22.540754
3459.000000	22.756977
3458.000000	23.026921
3457.000000	23.336653
3456.000000	23.675206
3455.000000	24.029335
3454.000000	24.383584
3453.000000	24.724915
3452.000000	25.042278
3451.000000	25.321837
3450.000000	25.547260
3449.000000	25.705964
3448.000000	25.790515
3447.000000	25.795988
3446.000000	25.723426
3445.000000	25.581706
3444.000000	25.381600
3443.000000	25.130025
3442.000000	24.832985
3441.000000	24.503545
3440.000000	24.159280
3439.000000	23.814300
3438.000000	23.481241
3437.000000	23.177659
3436.000000	22.922411
3435.000000	22.725164
3434.000000	22.584759
3433.000000	22.497072
3432.000000	22.461805
3431.000000	22.481807
3430.000000	22.563159
3429.000000	22.715962
3428.000000	22.947199
3427.000000	23.256677
3426.000000	23.640884
3425.000000	24.099952
3424.000000	24.637416
3423.000000	25.252055
3422.000000	25.939534
3421.000000	26.697040
3420.000000	27.521202
3419.000000	28.404456
3418.000000	29.335272
3417.000000	30.303818
3416.000000	31.301660
3415.000000	32.318748
3414.000000	33.347042
3413.000000	34.383015
3412.000000	35.423189
3411.000000	36.459240
3410.000000	37.481700
3409.000000	38.486382
3408.000000	39.471732
3407.000000	40.431720
3406.000000	41.357262
3405.000000	42.243476
3404.000000	43.091216
3403.000000	43.904542
3402.000000	44.691010
3401.000000	45.461537
3400.000000	46.223301
3399.000000	46.971526
3398.000000	47.694084
3397.000000	48.383601
3396.000000	49.040574
3395.000000	49.668358
3394.000000	50.270872
3393.000000	50.855770
3392.000000	51.432768
3391.000000	52.006016
3390.000000	52.572788
3389.000000	53.128903
3388.000000	53.672570
3387.000000	54.203291
3386.000000	54.721060
3385.000000	55.228028
3384.000000	55.727207
3383.000000	56.219776
3382.000000	56.706375
3381.000000	57.189645
3380.000000	57.672447
3379.000000	58.154136
3378.000000	58.632199
3377.000000	59.106693
3376.000000	59.578939
3375.000000	60.047126
3374.000000	60.507134
3373.000000	60.957727
3372.000000	61.401703
3371.000000	61.842345
3370.000000	62.282175
3369.000000	62.723873
3368.000000	63.168385
3367.000000	63.612346
3366.000000	64.050476
3365.000000	64.480386
3364.000000	64.902719
3363.000000	65.318088
3362.000000	65.727247
3361.000000	66.132854
3360.000000	66.537517
3359.000000	66.940189
3358.000000	67.337521
3357.000000	67.728294
3356.000000	68.113013
3355.000000	68.490458
3354.000000	68.858357
3353.000000	69.217620
3352.000000	69.572732
3351.000000	69.926971
3350.000000	70.279602
3349.000000	70.627776
3348.000000	70.968589
3347.000000	71.299783
3346.000000	71.620863
3345.000000	71.933780
3344.000000	72.240634
3343.000000	72.540302
3342.000000	72.830025
3341.000000	73.109700
3340.000000	73.382322
3339.000000	73.650256
3338.000000	73.912622
3337.000000	74.166791
3336.000000	74.409731
3335.000000	74.638174
3334.000000	74.849791
3333.000000	75.043831
3332.000000	75.220019
3331.000000	75.376192
3330.000000	75.508818
3329.000000	75.616046
3328.000000	75.697436
3327.000000	75.752124
3326.000000	75.777723
3325.000000	75.770401
3324.000000	75.725684
3323.000000	75.637340
3322.000000	75.499767
3321.000000	75.309866
3320.000000	75.064543
3319.000000	74.759557
3318.000000	74.389096
3317.000000	73.948538
3316.000000	73.432888
3315.000000	72.832195
3314.000000	72.134972
3313.000000	71.330683
3312.000000	70.410442
3311.000000	69.365667
3310.000000	68.186656
3309.000000	66.870300
3308.000000	65.417774
3307.000000	63.830083
3306.000000	62.107774
3305.000000	60.248825
3304.000000	58.252356
3303.000000	56.115409
3302.000000	53.837019
3301.000000	51.426105
3300.000000	48.899528
3299.000000	46.282684
3298.000000	43.612889
3297.000000	40.942818
3296.000000	38.333524
3295.000000	35.841865
3294.000000	33.515047
3293.000000	31.393021
3292.000000	29.502988
3291.000000	27.845992
3290.000000	26.401588
3289.000000	25.135668
3288.000000	24.008823
3287.000000	22.982645
3286.000000	22.023667
3285.000000	21.114404
3284.000000	20.248847
3283.000000	19.427218
3282.000000	18.659425
3281.000000	17.965064
3280.000000	17.369125
3279.000000	16.892157
3278.000000	16.550539
3277.000000	16.361433
3276.000000	16.334466
3275.000000	16.465656
3274.000000	16.738865
3273.000000	17.129825
3272.000000	17.606640
3271.000000	18.124928
3270.000000	18.633719
3269.000000	19.084434
3268.000000	19.433054
3267.000000	19.642537
3266.000000	19.692576
3265.000000	19.585056
3264.000000	19.338609
3263.000000	18.981879
3262.000000	18.550815
3261.000000	18.090397
3260.000000	17.645997
3259.000000	17.253539
3258.000000	16.941334
3257.000000	16.733784
3256.000000	16.646034
3255.000000	16.678801
3254.000000	16.822943
3253.000000	17.064264
3252.000000	17.384327
3251.000000	17.756781
3250.000000	18.153367
3249.000000	18.552314
3248.000000	18.935398
3247.000000	19.284643
3246.000000	19.584835
3245.000000	19.827691
3244.000000	20.009780
3243.000000	20.130533
3242.000000	20.194505
3241.000000	20.213274
3240.000000	20.199506
3239.000000	20.160042
3238.000000	20.100200
3237.000000	20.027521
3236.000000	19.949570
3235.000000	19.872031
3234.000000	19.800702
3233.000000	19.741252
3232.000000	19.690692
3231.000000	19.634482
3230.000000	19.557309
3229.000000	19.452157
3228.000000	19.316721
3227.000000	19.146392
3226.000000	18.937045
3225.000000	18.690648
3224.000000	18.411340
3223.000000	18.101237
3222.000000	17.763953
3221.000000	17.408878
3220.000000	17.047330
3219.000000	16.686636
3218.000000	16.332564
3217.000000	15.991815
3216.000000	15.667270
3215.000000	15.355117
3214.000000	15.051166
3213.000000	14.755642
3212.000000	14.467916
3211.000000	14.182352
3210.000000	13.894541
3209.000000	13.607797
3208.000000	13.328203
3207.000000	13.058234
3206.000000	12.800196
3205.000000	12.560075
3204.000000	12.343610
3203.000000	12.152092
3202.000000	11.986879
3201.000000	11.853787
3200.000000	11.756935
3199.000000	11.694803
3198.000000	11.665609
3197.000000	11.672023
3196.000000	11.716830
3195.000000	11.796923
3194.000000	11.908903
3193.000000	12.053565
3192.000000	12.230472
3191.000000	12.434803
3190.000000	12.661656
3189.000000	12.910819
3188.000000	13.181863
3187.000000	13.469275
3186.000000	13.768208
3185.000000	14.078567
3184.000000	14.400402
3183.000000	14.729837
3182.000000	15.063605
3181.000000	15.403007
3180.000000	15.748124
3179.000000	16.093792
3178.000000	16.435241
3177.000000	16.772793
3176.000000	17.107036
3175.000000	17.434405
3174.000000	17.751839
3173.000000	18.060815
3172.000000	18.362885
3171.000000	18.655525
3170.000000	18.936839
3169.000000	19.209256
3168.000000	19.474343
3167.000000	19.729252
3166.000000	19.971399
3165.000000	20.202491
3164.000000	20.423740
3163.000000	20.631667
3162.000000	20.823237
3161.000000	20.999349
3160.000000	21.160419
3159.000000	21.303377
3158.000000	21.426606
3157.000000	21.534260
3156.000000	21.631114
3155.000000	21.718625
3154.000000	21.799843
3153.000000	21.882577
3152.000000	21.973571
3151.000000	22.073233
3150.000000	22.180088
3149.000000	22.295765
3148.000000	22.421735
3147.000000	22.555754
3146.000000	22.695827
3145.000000	22.843245
3144.000000	22.997891
3143.000000	23.155314
3142.000000	23.311835
3141.000000	23.468346
3140.000000	23.625228
3139.000000	23.778102
3138.000000	23.922226
3137.000000	24.056518
3136.000000	24.179192
3135.000000	24.283541
3134.000000	24.362621
3133.000000	24.412707
3132.000000	24.429624
3131.000000	24.405276
3130.000000	24.331211
3129.000000	24.203787
3128.000000	24.021144
3127.000000	23.782495
3126.000000	23.493388
3125.000000	23.166928
3124.000000	22.818200
3123.000000	22.459280
3122.000000	22.102875
3121.000000	21.763619
3120.000000	21.450643
3119.000000	21.163470
3118.000000	20.898569
3117.000000	20.655369
3116.000000	20.432311
3115.000000	20.223316
3114.000000	20.022237
3113.000000	19.827084
3112.000000	19.636412
3111.000000	19.446889
3110.000000	19.259003
3109.000000	19.079226
3108.000000	18.913379
3107.000000	18.762651
3106.000000	18.628943
3105.000000	18.519597
3104.000000	18.441447
3103.000000	18.396601
3102.000000	18.388104
3101.000000	18.423147
3100.000000	18.508472
3099.000000	18.644735
3098.000000	18.830573
3097.000000	19.067325
3096.000000	19.353991
3095.000000	19.685582
3094.000000	20.057765
3093.000000	20.470007
3092.000000	20.921273
3091.000000	21.405427
3090.000000	21.916326
3089.000000	22.450282
3088.000000	23.001683
3087.000000	23.562153
3086.000000	24.126252
3085.000000	24.694524
3084.000000	25.266631
3083.000000	25.836960
3082.000000	26.400277
3081.000000	26.956493
3080.000000	27.507048
3079.000000	28.050891
3078.000000	28.587152
3077.000000	29.116507
3076.000000	29.637094
3075.000000	30.143331
3074.000000	30.632052
3073.000000	31.105793
3072.000000	31.566941
3071.000000	32.013961
3070.000000	32.445718
3069.000000	32.865297
3068.000000	33.276338
3067.000000	33.678642
3066.000000	34.070956
3065.000000	34.453986
3064.000000	34.828113
3063.000000	35.192103
3062.000000	35.546008
3061.000000	35.892575
3060.000000	36.233111
3059.000000	36.565539
3058.000000	36.888996
3057.000000	37.206113
3056.000000	37.519046
3055.000000	37.826615
3054.000000	38.127821
3053.000000	38.424857
3052.000000	38.719889
3051.000000	39.012348
3050.000000	39.301126
3049.000000	39.586238
3048.000000	39.866751
3047.000000	40.140332
3046.000000	40.407094
3045.000000	40.670568
3044.000000	40.933265
3043.000000	41.194857
3042.000000	41.455501
3041.000000	41.716815
3040.000000	41.977633
3039.000000	42.233200
3038.000000	42.481238
3037.000000	42.724956
3036.000000	42.968354
3035.000000	43.212145
3034.000000	43.456062
3033.000000	43.701121
3032.000000	43.947017
3031.000000	44.191194
3030.000000	44.432711
3029.000000	44.673237
3028.000000	44.912603
3027.000000	45.147499
3026.000000	45.376631
3025.000000	45.602966
3024.000000	45.827951
3023.000000	46.047533
3022.000000	46.256293
3021.000000	46.451549
3020.000000	46.630987
3019.000000	46.788835
3018.000000	46.918065
3017.000000	47.013922
3016.000000	47.073897
3015.000000	47.098819
3014.000000	47.097079
3013.000000	47.086763
3012.000000	47.090473
3011.000000	47.128865
3010.000000	47.217743
3009.000000	47.365026
3008.000000	47.566195
3007.000000	47.804288
3006.000000	48.056288
3005.000000	48.298111
3004.000000	48.503420
3003.000000	48.642162
3002.000000	48.684202
3001.000000	48.603697
3000.000000	48.385616
2999.000000	48.037477
2998.000000	47.603918
2997.000000	47.167514
2996.000000	46.827645
2995.000000	46.669461
2994.000000	46.737461
2993.000000	47.023784
2992.000000	47.471605
2991.000000	47.999470
2990.000000	48.533540
2989.000000	49.027402
2988.000000	49.461658
2987.000000	49.833506
2986.000000	50.149798
2985.000000	50.420446
2984.000000	50.651838
2983.000000	50.843988
2982.000000	50.995185
2981.000000	51.104355
2980.000000	51.167840
2979.000000	51.177566
2978.000000	51.125779
2977.000000	51.012711
2976.000000	50.848541
2975.000000	50.653993
2974.000000	50.459412
2973.000000	50.297952
2972.000000	50.193437
2971.000000	50.150688
2970.000000	50.154058
2969.000000	50.168350
2968.000000	50.140928
2967.000000	50.015143
2966.000000	49.755296
2965.000000	49.365903
2964.000000	48.889809
2963.000000	48.390501
2962.000000	47.933447
2961.000000	47.571028
2960.000000	47.334193
2959.000000	47.233003
2958.000000	47.266144
2957.000000	47.425128
2956.000000	47.690647
2955.000000	48.031979
2954.000000	48.413251
2953.000000	48.798846
2952.000000	49.151352
2951.000000	49.435878
2950.000000	49.632665
2949.000000	49.746973
2948.000000	49.802605
2947.000000	49.822973
2946.000000	49.811053
2945.000000	49.732543
2944.000000	49.517065
2943.000000	49.092154
2942.000000	48.446827
2941.000000	47.679577
2940.000000	46.987873
2939.000000	46.593275
2938.000000	46.642715
2937.000000	47.147070
2936.000000	47.987532
2935.000000	48.984545
2934.000000	49.978480
2933.000000	50.874456
2932.000000	51.639411
2931.000000	52.279306
2930.000000	52.819250
2929.000000	53.287581
2928.000000	53.706144
2927.000000	54.087143
2926.000000	54.438719
2925.000000	54.767748
2924.000000	55.077000
2923.000000	55.364292
2922.000000	55.627209
2921.000000	55.865562
2920.000000	56.077668
2919.000000	56.259752
2918.000000	56.410521
2917.000000	56.533637
2916.000000	56.634054
2915.000000	56.715013
2914.000000	56.780138
2913.000000	56.834260
2912.000000	56.879986
2911.000000	56.916155
2910.000000	56.940475
2909.000000	56.950422
2908.000000	56.939943
2907.000000	56.897392
2906.000000	56.808711
2905.000000	56.659333
2904.000000	56.432267
2903.000000	56.110576
2902.000000	55.686199
2901.000000	55.168127
2900.000000	54.585078
2899.000000	53.984986
2898.000000	53.431096
2897.000000	52.990762
2896.000000	52.715328
2895.000000	52.625534
2894.000000	52.712336
2893.000000	52.944852
2892.000000	53.279764
2891.000000	53.671057
2890.000000	54.081228
2889.000000	54.485260
2888.000000	54.867232
2887.000000	55.216731
2886.000000	55.528778
2885.000000	55.803697
2884.000000	56.042834
2883.000000	56.247417
2882.000000	56.421267
2881.000000	56.571364
2880.000000	56.704347
2879.000000	56.824822
2878.000000	56.937616
2877.000000	57.047824
2876.000000	57.157109
2875.000000	57.262699
2874.000000	57.362033
2873.000000	57.455675
2872.000000	57.545426
2871.000000	57.633780
2870.000000	57.726815
2869.000000	57.833951
2868.000000	57.961737
2867.000000	58.109481
2866.000000	58.271809
2865.000000	58.442239
2864.000000	58.613193
2863.000000	58.776917
2862.000000	58.929492
2861.000000	59.072134
2860.000000	59.207208
2859.000000	59.335276
2858.000000	59.457305
2857.000000	59.576710
2856.000000	59.697189
2855.000000	59.820671
2854.000000	59.948088
2853.000000	60.078848
2852.000000	60.207754
2851.000000	60.325286
2850.000000	60.423342
2849.000000	60.499674
2848.000000	60.556944
2847.000000	60.600622
2846.000000	60.638697
2845.000000	60.679721
2844.000000	60.728664
2843.000000	60.785935
2842.000000	60.851055
2841.000000	60.925180
2840.000000	61.009176
2839.000000	61.102013
2838.000000	61.202239
2837.000000	61.308742
2836.000000	61.419396
2835.000000	61.531559
2834.000000	61.644776
2833.000000	61.760706
2832.000000	61.879669
2831.000000	61.999645
2830.000000	62.119319
2829.000000	62.239228
2828.000000	62.358923
2827.000000	62.475847
2826.000000	62.588184
2825.000000	62.696393
2824.000000	62.800935
2823.000000	62.900922
2822.000000	62.996265
2821.000000	63.088748
2820.000000	63.179605
2819.000000	63.268150
2818.000000	63.353719
2817.000000	63.436756
2816.000000	63.516982
2815.000000	63.592706
2814.000000	63.663188
2813.000000	63.729680
2812.000000	63.793229
2811.000000	63.853576
2810.000000	63.911063
2809.000000	63.967426
2808.000000	64.023649
2807.000000	64.079039
2806.000000	64.133322
2805.000000	64.187501
2804.000000	64.241772
2803.000000	64.294801
2802.000000	64.346019
2801.000000	64.396637
2800.000000	64.447594
2799.000000	64.498499
2798.000000	64.549243
2797.000000	64.600315
2796.000000	64.650721
2795.000000	64.697989
2794.000000	64.741259
2793.000000	64.782269
2792.000000	64.822524
2791.000000	64.861771
2790.000000	64.900052
2789.000000	64.938656
2788.000000	64.977726
2787.000000	65.015147
2786.000000	65.049167
2785.000000	65.080465
2784.000000	65.110902
2783.000000	65.142495
2782.000000	65.178474
2781.000000	65.222706
2780.000000	65.276601
2779.000000	65.338209
2778.000000	65.405200
2777.000000	65.476826
2776.000000	65.552075
2775.000000	65.628241
2774.000000	65.702673
2773.000000	65.774161
2772.000000	65.841776
2771.000000	65.904446
2770.000000	65.962645
2769.000000	66.018623
2768.000000	66.073786
2767.000000	66.127334
2766.000000	66.178252
2765.000000	66.226714
2764.000000	66.272658
2763.000000	66.315034
2762.000000	66.353356
2761.000000	66.388352
2760.000000	66.420236
2759.000000	66.448071
2758.000000	66.471779
2757.000000	66.492842
2756.000000	66.512143
2755.000000	66.528939
2754.000000	66.542883
2753.000000	66.555715
2752.000000	66.570329
2751.000000	66.589605
2750.000000	66.616360
2749.000000	66.651978
2748.000000	66.693806
2747.000000	66.735575
2746.000000	66.771598
2745.000000	66.799866
2744.000000	66.821520
2743.000000	66.839463
2742.000000	66.857497
2741.000000	66.878032
2740.000000	66.899288
2739.000000	66.916461
2738.000000	66.927023
2737.000000	66.934355
2736.000000	66.946389
2735.000000	66.972390
2734.000000	67.020251
2733.000000	67.092762
2732.000000	67.184777
2731.000000	67.285691
2730.000000	67.385790
2729.000000	67.479954
2728.000000	67.566101
2727.000000	67.643318
2726.000000	67.712489
2725.000000	67.775961
2724.000000	67.834799
2723.000000	67.887726
2722.000000	67.933039
2721.000000	67.969783
2720.000000	67.997181
2719.000000	68.014993
2718.000000	68.025538
2717.000000	68.033709
2716.000000	68.044016
2715.000000	68.059206
2714.000000	68.081608
2713.000000	68.113233
2712.000000	68.153668
2711.000000	68.199823
2710.000000	68.248473
2709.000000	68.297549
2708.000000	68.344855
2707.000000	68.387915
2706.000000	68.425976
2705.000000	68.460121
2704.000000	68.490488
2703.000000	68.515153
2702.000000	68.532252
2701.000000	68.540970
2700.000000	68.540311
2699.000000	68.529046
2698.000000	68.508006
2697.000000	68.481021
2696.000000	68.452567
2695.000000	68.426124
2694.000000	68.404722
2693.000000	68.390396
2692.000000	68.382219
2691.000000	68.376896
2690.000000	68.372292
2689.000000	68.368962
2688.000000	68.368004
2687.000000	68.369509
2686.000000	68.373869
2685.000000	68.382270
2684.000000	68.395041
2683.000000	68.411607
2682.000000	68.432511
2681.000000	68.459725
2680.000000	68.494083
2679.000000	68.534161
2678.000000	68.578175
2677.000000	68.624584
2676.000000	68.670402
2675.000000	68.711312
2674.000000	68.744449
2673.000000	68.769442
2672.000000	68.786397
2671.000000	68.795160
2670.000000	68.797589
2669.000000	68.798699
2668.000000	68.804375
2667.000000	68.819201
2666.000000	68.846467
2665.000000	68.887553
2664.000000	68.939929
2663.000000	68.997484
2662.000000	69.053652
2661.000000	69.103048
2660.000000	69.140603
2659.000000	69.162039
2658.000000	69.166583
2657.000000	69.157905
2656.000000	69.141671
2655.000000	69.123565
2654.000000	69.109885
2653.000000	69.107267
2652.000000	69.120298
2651.000000	69.150430
2650.000000	69.197146
2649.000000	69.257881
2648.000000	69.326824
2647.000000	69.396176
2646.000000	69.459960
2645.000000	69.515938
2644.000000	69.563981
2643.000000	69.605280
2642.000000	69.643535
2641.000000	69.684200
2640.000000	69.731005
2639.000000	69.784149
2638.000000	69.841829
2637.000000	69.901504
2636.000000	69.959438
2635.000000	70.011466
2634.000000	70.055526
2633.000000	70.091997
2632.000000	70.121299
2631.000000	70.143154
2630.000000	70.158361
2629.000000	70.169438
2628.000000	70.178469
2627.000000	70.185899
2626.000000	70.192050
2625.000000	70.197608
2624.000000	70.202413
2623.000000	70.205614
2622.000000	70.207542
2621.000000	70.209683
2620.000000	70.211946
2619.000000	70.211893
2618.000000	70.207002
2617.000000	70.195826
2616.000000	70.176875
2615.000000	70.148409
2614.000000	70.110508
2613.000000	70.065721
2612.000000	70.017093
2611.000000	69.967598
2610.000000	69.921556
2609.000000	69.884222
2608.000000	69.858935
2607.000000	69.846333
2606.000000	69.846353
2605.000000	69.859305
2604.000000	69.884444
2603.000000	69.919597
2602.000000	69.963377
2601.000000	70.014907
2600.000000	70.071396
2599.000000	70.128100
2598.000000	70.181309
2597.000000	70.229919
2596.000000	70.273633
2595.000000	70.312252
2594.000000	70.347494
2593.000000	70.383113
2592.000000	70.421857
2591.000000	70.463686
2590.000000	70.507089
2589.000000	70.550028
2588.000000	70.589214
2587.000000	70.620816
2586.000000	70.643408
2585.000000	70.659019
2584.000000	70.671108
2583.000000	70.683497
2582.000000	70.701431
2581.000000	70.730824
2580.000000	70.774983
2579.000000	70.833338
2578.000000	70.903380
2577.000000	70.982279
2576.000000	71.066108
2575.000000	71.150294
2574.000000	71.232342
2573.000000	71.312264
2572.000000	71.390095
2571.000000	71.464613
2570.000000	71.534959
2569.000000	71.601490
2568.000000	71.664257
2567.000000	71.722314
2566.000000	71.775461
2565.000000	71.825171
2564.000000	71.872937
2563.000000	71.919446
2562.000000	71.965597
2561.000000	72.012566
2560.000000	72.060133
2559.000000	72.106316
2558.000000	72.149446
2557.000000	72.189193
2556.000000	72.225552
2555.000000	72.258888
2554.000000	72.291509
2553.000000	72.327369
2552.000000	72.369242
2551.000000	72.417370
2550.000000	72.470795
2549.000000	72.528070
2548.000000	72.586085
2547.000000	72.640403
2546.000000	72.687900
2545.000000	72.728070
2544.000000	72.761432
2543.000000	72.788537
2542.000000	72.810899
2541.000000	72.830746
2540.000000	72.848998
2539.000000	72.864168
2538.000000	72.873936
2537.000000	72.876307
2536.000000	72.868763
2535.000000	72.848968
2534.000000	72.816795
2533.000000	72.774857
2532.000000	72.726525
2531.000000	72.674408
2530.000000	72.621410
2529.000000	72.570834
2528.000000	72.524734
2527.000000	72.483472
2526.000000	72.447133
2525.000000	72.415732
2524.000000	72.387527
2523.000000	72.359026
2522.000000	72.327454
2521.000000	72.291714
2520.000000	72.250645
2519.000000	72.202223
2518.000000	72.145303
2517.000000	72.080699
2516.000000	72.009713
2515.000000	71.933726
2514.000000	71.855737
2513.000000	71.780615
2512.000000	71.712922
2511.000000	71.655839
2510.000000	71.612214
2509.000000	71.584606
2508.000000	71.573629
2507.000000	71.577252
2506.000000	71.593295
2505.000000	71.620392
2504.000000	71.656707
2503.000000	71.700032
2502.000000	71.748817
2501.000000	71.802031
2500.000000	71.856947
2499.000000	71.909077
2498.000000	71.954956
2497.000000	71.993064
2496.000000	72.022073
2495.000000	72.040448
2494.000000	72.048643
2493.000000	72.049642
2492.000000	72.047043
2491.000000	72.043801
2490.000000	72.043219
2489.000000	72.048808
2488.000000	72.061953
2487.000000	72.081244
2486.000000	72.104502
2485.000000	72.129903
2484.000000	72.154953
2483.000000	72.176852
2482.000000	72.194798
2481.000000	72.210580
2480.000000	72.226417
2479.000000	72.243708
2478.000000	72.264295
2477.000000	72.290662
2476.000000	72.324128
2475.000000	72.364459
2474.000000	72.411513
2473.000000	72.465924
2472.000000	72.527296
2471.000000	72.593642
2470.000000	72.663132
2469.000000	72.734524
2468.000000	72.805836
2467.000000	72.874210
2466.000000	72.937792
2465.000000	72.996286
2464.000000	73.049463
2463.000000	73.096808
2462.000000	73.139082
2461.000000	73.178443
2460.000000	73.216089
2459.000000	73.251384
2458.000000	73.283141
2457.000000	73.310403
2456.000000	73.331813
2455.000000	73.345889
2454.000000	73.353039
2453.000000	73.355807
2452.000000	73.357148
2451.000000	73.359829
2450.000000	73.367339
2449.000000	73.383166
2448.000000	73.408520
2447.000000	73.442232
2446.000000	73.482966
2445.000000	73.530078
2444.000000	73.581781
2443.000000	73.634831
2442.000000	73.686626
2441.000000	73.736132
2440.000000	73.782800
2439.000000	73.826193
2438.000000	73.867111
2437.000000	73.907011
2436.000000	73.945758
2435.000000	73.981105
2434.000000	74.010800
2433.000000	74.033559
2432.000000	74.047807
2431.000000	74.051985
2430.000000	74.046237
2429.000000	74.032581
2428.000000	74.012574
2427.000000	73.985909
2426.000000	73.952177
2425.000000	73.911750
2424.000000	73.865209
2423.000000	73.813637
2422.000000	73.760193
2421.000000	73.710085
2420.000000	73.668167
2419.000000	73.637692
2418.000000	73.620743
2417.000000	73.617770
2416.000000	73.625670
2415.000000	73.638492
2414.000000	73.650404
2413.000000	73.656689
2412.000000	73.652221
2411.000000	73.631847
2410.000000	73.593363
2409.000000	73.538513
2408.000000	73.471072
2407.000000	73.395103
2406.000000	73.315725
2405.000000	73.238394
2404.000000	73.166427
2403.000000	73.100921
2402.000000	73.043530
2401.000000	72.997263
2400.000000	72.963713
2399.000000	72.941615
2398.000000	72.928295
2397.000000	72.920774
2396.000000	72.914263
2395.000000	72.902553
2394.000000	72.881147
2393.000000	72.849054
2392.000000	72.807640
2391.000000	72.760414
2390.000000	72.715169
2389.000000	72.683190
2388.000000	72.675925
2387.000000	72.702022
2386.000000	72.768073
2385.000000	72.878625
2384.000000	73.032076
2383.000000	73.219771
2382.000000	73.427578
2381.000000	73.638269
2380.000000	73.831845
2379.000000	73.987327
2378.000000	74.092286
2377.000000	74.146930
2376.000000	74.160122
2375.000000	74.143718
2374.000000	74.110926
2373.000000	74.078755
2372.000000	74.060108
2371.000000	74.056503
2370.000000	74.063592
2369.000000	74.086912
2368.000000	74.132967
2367.000000	74.194901
2366.000000	74.269166
2365.000000	74.368764
2364.000000	74.493486
2363.000000	74.634304
2362.000000	74.781777
2361.000000	74.913640
2360.000000	75.018450
2359.000000	75.076963
2358.000000	75.075473
2357.000000	75.023514
2356.000000	74.922153
2355.000000	74.798124
2354.000000	74.693546
2353.000000	74.693547
2352.000000	74.825356
2351.000000	74.989236
2350.000000	75.078925
2349.000000	75.063138
2348.000000	75.031505
2347.000000	75.058216
2346.000000	75.116691
2345.000000	75.160190
2344.000000	75.144625
2343.000000	75.113794
2342.000000	75.088338
2341.000000	75.075223
2340.000000	75.067799
2339.000000	75.055114
2338.000000	75.044145
2337.000000	75.038164
2336.000000	75.054026
2335.000000	75.083363
2334.000000	75.114206
2333.000000	75.106437
2332.000000	75.052984
2331.000000	74.923861
2330.000000	74.776762
2329.000000	74.623198
2328.000000	74.512912
2327.000000	74.439389
2326.000000	74.402578
2325.000000	74.390954
2324.000000	74.371882
2323.000000	74.329603
2322.000000	74.249972
2321.000000	74.145178
2320.000000	74.036634
2319.000000	73.937468
2318.000000	73.873091
2317.000000	73.834487
2316.000000	73.823962
2315.000000	73.801108
2314.000000	73.759216
2313.000000	73.669829
2312.000000	73.550685
2311.000000	73.396354
2310.000000	73.230835
2309.000000	73.048442
2308.000000	72.862031
2307.000000	72.665030
2306.000000	72.471284
2305.000000	72.280777
2304.000000	72.103721
2303.000000	71.932523
2302.000000	71.772874
2301.000000	71.617221
2300.000000	71.471753
2299.000000	71.329408
2298.000000	71.198139
2297.000000	71.074710
2296.000000	70.966158
2295.000000	70.871121
2294.000000	70.797155
2293.000000	70.747140
2292.000000	70.724421
2291.000000	70.727895
2290.000000	70.756424
2289.000000	70.808183
2288.000000	70.878428
2287.000000	70.963747
2286.000000	71.061198
2285.000000	71.170179
2284.000000	71.285745
2283.000000	71.403527
2282.000000	71.519180
2281.000000	71.630582
2280.000000	71.733382
2279.000000	71.824215
2278.000000	71.903030
2277.000000	71.972445
2276.000000	72.036421
2275.000000	72.098094
2274.000000	72.163309
2273.000000	72.237466
2272.000000	72.324355
2271.000000	72.424811
2270.000000	72.539273
2269.000000	72.666990
2268.000000	72.805137
2267.000000	72.949455
2266.000000	73.097583
2265.000000	73.248060
2264.000000	73.399359
2263.000000	73.550332
2262.000000	73.700710
2261.000000	73.850990
2260.000000	73.998269
2259.000000	74.138982
2258.000000	74.269909
2257.000000	74.389228
2256.000000	74.495078
2255.000000	74.586467
2254.000000	74.666690
2253.000000	74.741440
2252.000000	74.817214
2251.000000	74.898002
2250.000000	74.986531
2249.000000	75.082230
2248.000000	75.181584
2247.000000	75.278772
2246.000000	75.368914
2245.000000	75.448660
2244.000000	75.516154
2243.000000	75.571696
2242.000000	75.618058
2241.000000	75.658934
2240.000000	75.696412
2239.000000	75.730946
2238.000000	75.762081
2237.000000	75.788314
2236.000000	75.807062
2235.000000	75.816823
2234.000000	75.819360
2233.000000	75.819092
2232.000000	75.820826
2231.000000	75.828726
2230.000000	75.845712
2229.000000	75.871687
2228.000000	75.902839
2227.000000	75.933986
2226.000000	75.961692
2225.000000	75.984334
2224.000000	76.001064
2223.000000	76.012294
2222.000000	76.020691
2221.000000	76.029661
2220.000000	76.041222
2219.000000	76.056062
2218.000000	76.074631
2217.000000	76.096695
2216.000000	76.120888
2215.000000	76.146386
2214.000000	76.174517
2213.000000	76.207290
2212.000000	76.245265
2211.000000	76.288085
2210.000000	76.335894
2209.000000	76.388126
2208.000000	76.441525
2207.000000	76.491025
2206.000000	76.532157
2205.000000	76.561775
2204.000000	76.577687
2203.000000	76.579871
2202.000000	76.571622
2201.000000	76.558117
2200.000000	76.543931
2199.000000	76.532507
2198.000000	76.526596
2197.000000	76.527205
2196.000000	76.532905
2195.000000	76.541720
2194.000000	76.553435
2193.000000	76.568999
2192.000000	76.588886
2191.000000	76.613797
2190.000000	76.645864
2189.000000	76.687357
2188.000000	76.738427
2187.000000	76.797411
2186.000000	76.862062
2185.000000	76.928973
2184.000000	76.993042
2183.000000	77.049681
2182.000000	77.097426
2181.000000	77.137182
2180.000000	77.170241
2179.000000	77.198417
2178.000000	77.224828
2177.000000	77.252166
2176.000000	77.280186
2175.000000	77.306275
2174.000000	77.327762
2173.000000	77.342643
2172.000000	77.349258
2171.000000	77.347374
2170.000000	77.339357
2169.000000	77.328737
2168.000000	77.317883
2167.000000	77.307973
2166.000000	77.300090
2165.000000	77.294677
2164.000000	77.290639
2163.000000	77.286835
2162.000000	77.283934
2161.000000	77.283804
2160.000000	77.287887
2159.000000	77.297546
2158.000000	77.314750
2157.000000	77.340350
2156.000000	77.372051
2155.000000	77.405501
2154.000000	77.436943
2153.000000	77.463863
2152.000000	77.484670
2151.000000	77.499796
2150.000000	77.512562
2149.000000	77.527144
2148.000000	77.545800
2147.000000	77.568891
2146.000000	77.595861
2145.000000	77.624415
2144.000000	77.650038
2143.000000	77.668218
2142.000000	77.677301
2141.000000	77.678490
2140.000000	77.674149
2139.000000	77.667488
2138.000000	77.662632
2137.000000	77.662739
2136.000000	77.667883
2135.000000	77.675462
2134.000000	77.681895
2133.000000	77.682961
2132.000000	77.674162
2131.000000	77.653074
2130.000000	77.621265
2129.000000	77.582926
2128.000000	77.542508
2127.000000	77.504578
2126.000000	77.474126
2125.000000	77.454645
2124.000000	77.446146
2123.000000	77.446649
2122.000000	77.454913
2121.000000	77.470643
2120.000000	77.493379
2119.000000	77.522869
2118.000000	77.559463
2117.000000	77.602361
2116.000000	77.648095
2115.000000	77.692089
2114.000000	77.731127
2113.000000	77.763248
2112.000000	77.786802
2111.000000	77.801511
2110.000000	77.809506
2109.000000	77.813860
2108.000000	77.816786
2107.000000	77.820262
2106.000000	77.826991
2105.000000	77.838748
2104.000000	77.854125
2103.000000	77.869474
2102.000000	77.880952
2101.000000	77.884727
2100.000000	77.876964
2099.000000	77.855432
2098.000000	77.821754
2097.000000	77.780039
2096.000000	77.734736
2095.000000	77.690916
2094.000000	77.654373
2093.000000	77.629323
2092.000000	77.616970
2091.000000	77.617583
2090.000000	77.632581
2089.000000	77.662829
2088.000000	77.706107
2087.000000	77.758407
2086.000000	77.816174
2085.000000	77.875341
2084.000000	77.930194
2083.000000	77.975264
2082.000000	78.007357
2081.000000	78.024577
2080.000000	78.025365
2079.000000	78.009985
2078.000000	77.982348
2077.000000	77.947294
2076.000000	77.907544
2075.000000	77.864784
2074.000000	77.820223
2073.000000	77.773589
2072.000000	77.721309
2071.000000	77.658968
2070.000000	77.585578
2069.000000	77.502974
2068.000000	77.412295
2067.000000	77.313966
2066.000000	77.210772
2065.000000	77.107907
2064.000000	77.008852
2063.000000	76.913058
2062.000000	76.817855
2061.000000	76.720510
2060.000000	76.618923
2059.000000	76.512574
2058.000000	76.403322
2057.000000	76.294267
2056.000000	76.188198
2055.000000	76.088087
2054.000000	75.997319
2053.000000	75.918308
2052.000000	75.850504
2051.000000	75.791653
2050.000000	75.740716
2049.000000	75.698081
2048.000000	75.662997
2047.000000	75.634391
2046.000000	75.613776
2045.000000	75.603278
2044.000000	75.601646
2043.000000	75.605631
2042.000000	75.614465
2041.000000	75.630017
2040.000000	75.652920
2039.000000	75.682474
2038.000000	75.719886
2037.000000	75.768091
2036.000000	75.829016
2035.000000	75.903269
2034.000000	75.991240
2033.000000	76.091258
2032.000000	76.197683
2031.000000	76.303829
2030.000000	76.405422
2029.000000	76.500467
2028.000000	76.586556
2027.000000	76.663738
2026.000000	76.735894
2025.000000	76.808964
2024.000000	76.885737
2023.000000	76.965639
2022.000000	77.048492
2021.000000	77.133655
2020.000000	77.216723
2019.000000	77.292055
2018.000000	77.359299
2017.000000	77.423981
2016.000000	77.491601
2015.000000	77.564640
2014.000000	77.644502
2013.000000	77.732282
2012.000000	77.826791
2011.000000	77.925176
2010.000000	78.024967
2009.000000	78.123747
2008.000000	78.217531
2007.000000	78.304058
2006.000000	78.384504
2005.000000	78.462401
2004.000000	78.539857
2003.000000	78.617071
2002.000000	78.695685
2001.000000	78.774756
2000.000000	78.852017
1999.000000	78.924102
1998.000000	78.988418
1997.000000	79.046014
1996.000000	79.100826
1995.000000	79.154762
1994.000000	79.206769
1993.000000	79.258212
1992.000000	79.316128
1991.000000	79.386988
1990.000000	79.468787
1989.000000	79.553229
1988.000000	79.634210
1987.000000	79.711887
1986.000000	79.788935
1985.000000	79.866026
1984.000000	79.943017
1983.000000	80.021531
1982.000000	80.104567
1981.000000	80.190653
1980.000000	80.277135
1979.000000	80.360884
1978.000000	80.438682
1977.000000	80.509209
1976.000000	80.575437
1975.000000	80.642142
1974.000000	80.711518
1973.000000	80.783767
1972.000000	80.860069
1971.000000	80.940444
1970.000000	81.018930
1969.000000	81.085986
1968.000000	81.136259
1967.000000	81.171906
1966.000000	81.197450
1965.000000	81.214159
1964.000000	81.220789
1963.000000	81.217420
1962.000000	81.206421
1961.000000	81.192224
1960.000000	81.179210
1959.000000	81.168220
1958.000000	81.155763
1957.000000	81.138001
1956.000000	81.116190
1955.000000	81.097133
1954.000000	81.086656
1953.000000	81.088454
1952.000000	81.102793
1951.000000	81.130246
1950.000000	81.170334
1949.000000	81.215184
1948.000000	81.254744
1947.000000	81.286177
1946.000000	81.311119
1945.000000	81.326378
1944.000000	81.325327
1943.000000	81.312257
1942.000000	81.304331
1941.000000	81.313444
1940.000000	81.335105
1939.000000	81.357633
1938.000000	81.373502
1937.000000	81.381444
1936.000000	81.381573
1935.000000	81.372477
1934.000000	81.353573
1933.000000	81.329903
1932.000000	81.305278
1931.000000	81.284543
1930.000000	81.272899
1929.000000	81.267508
1928.000000	81.266426
1927.000000	81.268312
1926.000000	81.276533
1925.000000	81.285026
1924.000000	81.282879
1923.000000	81.278038
1922.000000	81.293458
1921.000000	81.334788
1920.000000	81.381037
1919.000000	81.407921
1918.000000	81.418914
1917.000000	81.429356
1916.000000	81.435749
1915.000000	81.425273
1914.000000	81.396822
1913.000000	81.360900
1912.000000	81.325834
1911.000000	81.297319
1910.000000	81.282111
1909.000000	81.282079
1908.000000	81.294347
1907.000000	81.308460
1906.000000	81.322354
1905.000000	81.335076
1904.000000	81.342173
1903.000000	81.349785
1902.000000	81.372296
1901.000000	81.414929
1900.000000	81.474820
1899.000000	81.547790
1898.000000	81.634173
1897.000000	81.725675
1896.000000	81.803147
1895.000000	81.859463
1894.000000	81.906279
1893.000000	81.951730
1892.000000	81.987988
1891.000000	82.008203
1890.000000	82.025843
1889.000000	82.062661
1888.000000	82.120966
1887.000000	82.186951
1886.000000	82.249118
1885.000000	82.300833
1884.000000	82.337890
1883.000000	82.365394
1882.000000	82.393078
1881.000000	82.423286
1880.000000	82.455945
1879.000000	82.493789
1878.000000	82.542142
1877.000000	82.602291
1876.000000	82.662366
1875.000000	82.711013
1874.000000	82.753309
1873.000000	82.799059
1872.000000	82.846238
1871.000000	82.884436
1870.000000	82.911261
1869.000000	82.942234
1868.000000	82.991247
1867.000000	83.053979
1866.000000	83.120510
1865.000000	83.180850
1864.000000	83.225200
1863.000000	83.254952
1862.000000	83.284684
1861.000000	83.324796
1860.000000	83.373680
1859.000000	83.429625
1858.000000	83.497007
1857.000000	83.573379
1856.000000	83.644017
1855.000000	83.696981
1854.000000	83.734939
1853.000000	83.756789
1852.000000	83.768795
1851.000000	83.778474
1850.000000	83.791554
1849.000000	83.817918
1848.000000	83.871662
1847.000000	83.959937
1846.000000	84.062862
1845.000000	84.144466
1844.000000	84.199363
1843.000000	84.246158
1842.000000	84.284013
1841.000000	84.302440
1840.000000	84.303979
1839.000000	84.301314
1838.000000	84.317495
1837.000000	84.360233
1836.000000	84.416175
1835.000000	84.476547
1834.000000	84.542543
1833.000000	84.608624
1832.000000	84.660970
1831.000000	84.678750
1830.000000	84.674221
1829.000000	84.689739
1828.000000	84.739488
1827.000000	84.802214
1826.000000	84.854565
1825.000000	84.903690
1824.000000	84.967715
1823.000000	85.039222
1822.000000	85.098274
1821.000000	85.140341
1820.000000	85.173674
1819.000000	85.201049
1818.000000	85.229664
1817.000000	85.266976
1816.000000	85.308513
1815.000000	85.345528
1814.000000	85.369577
1813.000000	85.381036
1812.000000	85.375369
1811.000000	85.351033
1810.000000	85.328596
1809.000000	85.323806
1808.000000	85.328386
1807.000000	85.333309
1806.000000	85.345744
1805.000000	85.370588
1804.000000	85.391729
1803.000000	85.396763
1802.000000	85.384113
1801.000000	85.370558
1800.000000	85.363135
1799.000000	85.358716
1798.000000	85.363554
1797.000000	85.387551
1796.000000	85.432837
1795.000000	85.498033
1794.000000	85.564440
1793.000000	85.611819
1792.000000	85.636520
1791.000000	85.644245
1790.000000	85.640101
1789.000000	85.631092
1788.000000	85.620433
1787.000000	85.611325
1786.000000	85.615893
1785.000000	85.644618
1784.000000	85.689286
1783.000000	85.738778
1782.000000	85.765411
1781.000000	85.763142
1780.000000	85.749548
1779.000000	85.741363
1778.000000	85.740476
1777.000000	85.742859
1776.000000	85.769726
1775.000000	85.844502
1774.000000	85.944299
1773.000000	86.032978
1772.000000	86.125112
1771.000000	86.221447
1770.000000	86.292532
1769.000000	86.331585
1768.000000	86.351345
1767.000000	86.373658
1766.000000	86.409452
1765.000000	86.463199
1764.000000	86.524372
1763.000000	86.569406
1762.000000	86.587788
1761.000000	86.607678
1760.000000	86.635974
1759.000000	86.661114
1758.000000	86.666445
1757.000000	86.654037
1756.000000	86.666932
1755.000000	86.718859
1754.000000	86.782259
1753.000000	86.832795
1752.000000	86.872002
1751.000000	86.911695
1750.000000	86.955585
1749.000000	86.984592
1748.000000	87.003776
1747.000000	87.039754
1746.000000	87.087661
1745.000000	87.139934
1744.000000	87.202722
1743.000000	87.282916
1742.000000	87.371186
1741.000000	87.439854
1740.000000	87.460316
1739.000000	87.448779
1738.000000	87.439094
1737.000000	87.458678
1736.000000	87.495117
1735.000000	87.495622
1734.000000	87.511948
1733.000000	87.602284
1732.000000	87.676683
1731.000000	87.680687
1730.000000	87.639898
1729.000000	87.585271
1728.000000	87.539065
1727.000000	87.506360
1726.000000	87.476689
1725.000000	87.458702
1724.000000	87.456267
1723.000000	87.471503
1722.000000	87.515978
1721.000000	87.588018
1720.000000	87.653178
1719.000000	87.654383
1718.000000	87.620696
1717.000000	87.642448
1716.000000	87.692372
1715.000000	87.706332
1714.000000	87.711186
1713.000000	87.744685
1712.000000	87.790844
1711.000000	87.828709
1710.000000	87.867146
1709.000000	87.915910
1708.000000	87.965687
1707.000000	87.986849
1706.000000	87.984723
1705.000000	88.003083
1704.000000	88.065934
1703.000000	88.187756
1702.000000	88.339699
1701.000000	88.427039
1700.000000	88.485988
1699.000000	88.570283
1698.000000	88.651595
1697.000000	88.719661
1696.000000	88.758976
1695.000000	88.805810
1694.000000	88.863786
1693.000000	88.900078
1692.000000	88.917784
1691.000000	88.930087
1690.000000	88.942207
1689.000000	88.947505
1688.000000	88.968250
1687.000000	89.030694
1686.000000	89.105639
1685.000000	89.106637
1684.000000	89.099328
1683.000000	89.169434
1682.000000	89.225225
1681.000000	89.210023
1680.000000	89.162595
1679.000000	89.140757
1678.000000	89.151438
1677.000000	89.144673
1676.000000	89.077730
1675.000000	89.001526
1674.000000	88.958979
1673.000000	88.934047
1672.000000	88.913229
1671.000000	88.899674
1670.000000	88.894574
1669.000000	88.887646
1668.000000	88.860045
1667.000000	88.809372
1666.000000	88.745799
1665.000000	88.668010
1664.000000	88.557277
1663.000000	88.448155
1662.000000	88.380225
1661.000000	88.320552
1660.000000	88.231472
1659.000000	88.112350
1658.000000	87.965514
1657.000000	87.799091
1656.000000	87.649534
1655.000000	87.462899
1654.000000	87.061307
1653.000000	86.518791
1652.000000	86.016471
1651.000000	85.471683
1650.000000	84.823827
1649.000000	83.995090
1648.000000	82.781568
1647.000000	81.051106
1646.000000	78.883342
1645.000000	76.390404
1644.000000	73.566172
1643.000000	70.343739
1642.000000	66.680695
1641.000000	62.679073
1640.000000	58.663906
1639.000000	54.997400
1638.000000	51.866447
1637.000000	49.326889
1636.000000	47.590066
1635.000000	46.958862
1634.000000	47.382993
1633.000000	48.543468
1632.000000	50.192604
1631.000000	52.190582
1630.000000	54.431620
1629.000000	56.817023
1628.000000	59.240267
1627.000000	61.563888
1626.000000	63.695501
1625.000000	65.683746
1624.000000	67.627511
1623.000000	69.512890
1622.000000	71.198602
1621.000000	72.610130
1620.000000	73.834416
1619.000000	74.986612
1618.000000	76.102449
1617.000000	77.167293
1616.000000	78.141620
1615.000000	78.927856
1614.000000	79.486287
1613.000000	79.896952
1612.000000	80.255657
1611.000000	80.587530
1610.000000	80.840478
1609.000000	80.972687
1608.000000	80.980554
1607.000000	80.839535
1606.000000	80.469644
1605.000000	79.808237
1604.000000	78.856611
1603.000000	77.618925
1602.000000	76.102808
1601.000000	74.393958
1600.000000	72.660756
1599.000000	71.065603
1598.000000	69.694396
1597.000000	68.578649
1596.000000	67.721511
1595.000000	67.073807
1594.000000	66.522941
1593.000000	65.964111
1592.000000	65.364578
1591.000000	64.727792
1590.000000	64.040025
1589.000000	63.287216
1588.000000	62.483137
1587.000000	61.628247
1586.000000	60.678987
1585.000000	59.591525
1584.000000	58.394759
1583.000000	57.136905
1582.000000	55.813728
1581.000000	54.422986
1580.000000	53.020053
1579.000000	51.608464
1578.000000	50.006615
1577.000000	47.950115
1576.000000	45.493505
1575.000000	43.104738
1574.000000	41.107926
1573.000000	39.437291
1572.000000	37.927093
1571.000000	36.508711
1570.000000	35.237806
1569.000000	34.234458
1568.000000	33.599772
1567.000000	33.355090
1566.000000	33.419973
1565.000000	33.669136
1564.000000	34.057465
1563.000000	34.621422
1562.000000	35.397913
1561.000000	36.389683
1560.000000	37.650598
1559.000000	39.269562
1558.000000	40.979671
1557.000000	42.366315
1556.000000	43.447508
1555.000000	44.424194
1554.000000	45.338189
1553.000000	46.125704
1552.000000	46.785672
1551.000000	47.419181
1550.000000	48.131327
1549.000000	48.950972
1548.000000	49.877177
1547.000000	50.941298
1546.000000	52.157713
1545.000000	53.463426
1544.000000	54.774142
1543.000000	56.058097
1542.000000	57.338228
1541.000000	58.625723
1540.000000	59.908292
1539.000000	61.121504
1538.000000	62.155748
1537.000000	63.004724
1536.000000	63.789549
1535.000000	64.631290
1534.000000	65.547060
1533.000000	66.468333
1532.000000	67.312471
1531.000000	68.067844
1530.000000	68.779854
1529.000000	69.464380
1528.000000	70.119382
1527.000000	70.765526
1526.000000	71.402371
1525.000000	71.994819
1524.000000	72.534195
1523.000000	73.045695
1522.000000	73.534283
1521.000000	73.980340
1520.000000	74.372778
1519.000000	74.727963
1518.000000	75.069165
1517.000000	75.402835
1516.000000	75.740810
1515.000000	76.096853
1514.000000	76.450852
1513.000000	76.774760
1512.000000	77.054416
1511.000000	77.309902
1510.000000	77.568254
1509.000000	77.841247
1508.000000	78.121738
1507.000000	78.461003
1506.000000	78.894538
1505.000000	79.287580
1504.000000	79.550533
1503.000000	79.746744
1502.000000	79.934765
1501.000000	80.114797
1500.000000	80.285620
1499.000000	80.467070
1498.000000	80.673025
1497.000000	80.908175
1496.000000	81.165474
1495.000000	81.432227
1494.000000	81.684252
1493.000000	81.901164
1492.000000	82.074704
1491.000000	82.209841
1490.000000	82.326962
1489.000000	82.441383
1488.000000	82.546609
1487.000000	82.645222
1486.000000	82.733356
1485.000000	82.757956
1484.000000	82.693205
1483.000000	82.529369
1482.000000	82.223378
1481.000000	81.729111
1480.000000	81.043438
1479.000000	80.146129
1478.000000	78.916974
1477.000000	77.240039
1476.000000	75.155345
1475.000000	72.802565
1474.000000	70.212327
1473.000000	67.433293
1472.000000	64.802934
1471.000000	62.714025
1470.000000	61.248643
1469.000000	60.293970
1468.000000	59.792560
1467.000000	59.789840
1466.000000	60.352659
1465.000000	61.444467
1464.000000	62.839464
1463.000000	64.185724
1462.000000	65.221870
1461.000000	65.847138
1460.000000	66.036959
1459.000000	65.746338
1458.000000	64.911447
1457.000000	63.692247
1456.000000	62.546286
1455.000000	61.774900
1454.000000	61.325430
1453.000000	61.062444
1452.000000	60.913994
1451.000000	60.858600
1450.000000	60.902039
1449.000000	61.073345
1448.000000	61.389827
1447.000000	61.827551
1446.000000	62.328328
1445.000000	62.877077
1444.000000	63.511482
1443.000000	64.258521
1442.000000	65.135451
1441.000000	66.167925
1440.000000	67.381291
1439.000000	68.779135
1438.000000	70.356763
1437.000000	72.054085
1436.000000	73.677975
1435.000000	75.004127
1434.000000	76.011728
1433.000000	76.839430
1432.000000	77.575851
1431.000000	78.217107
1430.000000	78.751310
1429.000000	79.204311
1428.000000	79.590369
1427.000000	79.918479
1426.000000	80.203309
1425.000000	80.469807
1424.000000	80.745180
1423.000000	81.028932
1422.000000	81.316399
1421.000000	81.603221
1420.000000	81.861661
1419.000000	82.065352
1418.000000	82.235144
1417.000000	82.407246
1416.000000	82.591390
1415.000000	82.777605
1414.000000	82.961764
1413.000000	83.157904
1412.000000	83.370556
1411.000000	83.576608
1410.000000	83.760563
1409.000000	83.936211
1408.000000	84.104822
1407.000000	84.257016
1406.000000	84.393100
1405.000000	84.526117
1404.000000	84.659264
1403.000000	84.761290
1402.000000	84.786834
1401.000000	84.674775
1400.000000	84.356454
1399.000000	83.842049
1398.000000	83.282706
1397.000000	82.879506
1396.000000	82.752647
1395.000000	82.899062
1394.000000	83.202104
1393.000000	83.526362
1392.000000	83.822257
1391.000000	84.127760
1390.000000	84.503499
1389.000000	84.980403
1388.000000	85.539795
1387.000000	86.125776
1386.000000	86.672450
1385.000000	87.130334
1384.000000	87.478781
1383.000000	87.716699
1382.000000	87.871819
1381.000000	87.982799
1380.000000	88.061580
1379.000000	88.087865
1378.000000	88.026328
1377.000000	87.815352
1376.000000	87.309865
1375.000000	86.248053
1374.000000	84.292916
1373.000000	81.182439
1372.000000	76.923376
1371.000000	71.949623
1370.000000	67.152075
1369.000000	63.660265
1368.000000	62.288381
1367.000000	62.988184
1366.000000	64.923975
1365.000000	67.040558
1364.000000	68.498422
1363.000000	68.843006
1362.000000	68.114116
1361.000000	66.881522
1360.000000	66.018461
1359.000000	66.277370
1358.000000	67.917816
1357.000000	70.597239
1356.000000	73.631964
1355.000000	76.415778
1354.000000	78.667210
1353.000000	80.399590
1352.000000	81.735365
1351.000000	82.788021
1350.000000	83.634633
1349.000000	84.322500
1348.000000	84.880862
1347.000000	85.335873
1346.000000	85.719780
1345.000000	86.060298
1344.000000	86.373099
1343.000000	86.664331
1342.000000	86.939649
1341.000000	87.203403
1340.000000	87.455389
1339.000000	87.693547
1338.000000	87.913975
1337.000000	88.110302
1336.000000	88.272518
1335.000000	88.387404
1334.000000	88.435085
1333.000000	88.366576
1332.000000	88.089126
1331.000000	87.485487
1330.000000	86.459357
1329.000000	84.977979
1328.000000	83.050837
1327.000000	80.678626
1326.000000	77.864281
1325.000000	74.746460
1324.000000	71.753620
1323.000000	69.520281
1322.000000	68.511150
1321.000000	68.692525
1320.000000	69.593558
1319.000000	70.674242
1318.000000	71.645552
1317.000000	72.484318
1316.000000	73.254413
1315.000000	73.997377
1314.000000	74.749950
1313.000000	75.587854
1312.000000	76.598901
1311.000000	77.809090
1310.000000	79.141100
1309.000000	80.442110
1308.000000	81.548672
1307.000000	82.347572
1306.000000	82.798793
1305.000000	82.904420
1304.000000	82.669741
1303.000000	82.087026
1302.000000	81.147359
1301.000000	79.883468
1300.000000	78.421803
1299.000000	77.001855
1298.000000	75.900255
1297.000000	75.281797
1296.000000	75.101272
1295.000000	75.131641
1294.000000	75.082124
1293.000000	74.708450
1292.000000	73.864797
1291.000000	72.502656
1290.000000	70.631050
1289.000000	68.300738
1288.000000	65.667868
1287.000000	63.079086
1286.000000	61.019074
1285.000000	59.890331
1284.000000	59.807588
1283.000000	60.595040
1282.000000	61.981587
1281.000000	63.771395
1280.000000	65.831552
1279.000000	67.958669
1278.000000	69.832399
1277.000000	71.146383
1276.000000	71.767282
1275.000000	71.773058
1274.000000	71.390302
1273.000000	70.925823
1272.000000	70.713228
1271.000000	71.032235
1270.000000	72.000907
1269.000000	73.521100
1268.000000	75.336876
1267.000000	77.167162
1266.000000	78.817697
1265.000000	80.214883
1264.000000	81.370909
1263.000000	82.330912
1262.000000	83.141418
1261.000000	83.841008
1260.000000	84.455226
1259.000000	84.994633
1258.000000	85.466677
1257.000000	85.878728
1256.000000	86.234786
1255.000000	86.538130
1254.000000	86.797370
1253.000000	87.028690
1252.000000	87.246576
1251.000000	87.460069
1250.000000	87.677028
1249.000000	87.902417
1248.000000	88.132351
1247.000000	88.354648
1246.000000	88.558430
1245.000000	88.739141
1244.000000	88.894019
1243.000000	89.022157
1242.000000	89.129442
1241.000000	89.225913
1240.000000	89.316194
1239.000000	89.396663
1238.000000	89.462969
1237.000000	89.511391
1236.000000	89.533007
1235.000000	89.516665
1234.000000	89.458349
1233.000000	89.363495
1232.000000	89.238565
1231.000000	89.086560
1230.000000	88.911453
1229.000000	88.712945
1228.000000	88.477376
1227.000000	88.176863
1226.000000	87.775808
1225.000000	87.238448
1224.000000	86.521565
1223.000000	85.578674
1222.000000	84.370706
1221.000000	82.867630
1220.000000	81.059578
1219.000000	78.964041
1218.000000	76.633692
1217.000000	74.154643
1216.000000	71.639446
1215.000000	69.225618
1214.000000	67.072158
1213.000000	65.342150
1212.000000	64.171630
1211.000000	63.631498
1210.000000	63.676747
1209.000000	64.149564
1208.000000	64.830113
1207.000000	65.489638
1206.000000	65.938766
1205.000000	66.051409
1204.000000	65.770356
1203.000000	65.102662
1202.000000	64.119944
1201.000000	62.970015
1200.000000	61.876782
1199.000000	61.098513
1198.000000	60.843652
1197.000000	61.193937
1196.000000	62.098145
1195.000000	63.412679
1194.000000	64.967828
1193.000000	66.628759
1192.000000	68.310886
1191.000000	69.971638
1190.000000	71.587564
1189.000000	73.142280
1188.000000	74.622604
1187.000000	76.012483
1186.000000	77.291318
1185.000000	78.442196
1184.000000	79.459315
1183.000000	80.345459
1182.000000	81.114332
1181.000000	81.782741
1180.000000	82.363300
1179.000000	82.865926
1178.000000	83.299558
1177.000000	83.675240
1176.000000	83.992914
1175.000000	84.235337
1174.000000	84.377130
1173.000000	84.384832
1172.000000	84.219808
1171.000000	83.833977
1170.000000	83.175130
1169.000000	82.199467
1168.000000	80.877568
1167.000000	79.225403
1166.000000	77.339917
1165.000000	75.412487
1164.000000	73.700219
1163.000000	72.458747
1162.000000	71.853388
1161.000000	71.910267
1160.000000	72.530327
1159.000000	73.532009
1158.000000	74.720919
1157.000000	75.935046
1156.000000	77.061364
1155.000000	78.032306
1154.000000	78.812765
1153.000000	79.391268
1152.000000	79.768884
1151.000000	79.949196
1150.000000	79.930430
1149.000000	79.712653
1148.000000	79.282694
1147.000000	78.607396
1146.000000	77.634965
1145.000000	76.284307
1144.000000	74.462211
1143.000000	72.076126
1142.000000	69.081345
1141.000000	65.547267
1140.000000	61.686032
1139.000000	57.820291
1138.000000	54.258198
1137.000000	51.158543
1136.000000	48.483664
1135.000000	46.083681
1134.000000	43.842771
1133.000000	41.842955
1132.000000	40.417189
1131.000000	40.007584
1130.000000	40.951003
1129.000000	43.277298
1128.000000	46.678446
1127.000000	50.610849
1126.000000	54.443838
1125.000000	57.609641
1124.000000	59.687307
1123.000000	60.423534
1122.000000	59.742521
1121.000000	57.758395
1120.000000	54.710603
1119.000000	50.923097
1118.000000	46.835496
1117.000000	43.065772
1116.000000	40.371753
1115.000000	39.411796
1114.000000	40.420074
1113.000000	43.065567
1112.000000	46.592674
1111.000000	50.078875
1110.000000	52.760650
1109.000000	54.321320
1108.000000	54.996329
1107.000000	55.389031
1106.000000	56.077546
1105.000000	57.291351
1104.000000	58.856913
1103.000000	60.346356
1102.000000	61.247103
1101.000000	61.137559
1100.000000	59.872759
1099.000000	57.751119
1098.000000	55.518219
1097.000000	54.101569
1096.000000	54.181261
1095.000000	55.871820
1094.000000	58.722067
1093.000000	62.019341
1092.000000	65.168347
1091.000000	67.860997
1090.000000	70.041174
1089.000000	71.786271
1088.000000	73.208276
1087.000000	74.408200
1086.000000	75.464378
1085.000000	76.426525
1084.000000	77.311927
1083.000000	78.123241
1082.000000	78.856852
1081.000000	79.509845
1080.000000	80.078809
1079.000000	80.553042
1078.000000	80.923971
1077.000000	81.176206
1076.000000	81.280309
1075.000000	81.191500
1074.000000	80.838721
1073.000000	80.134600
1072.000000	78.944767
1071.000000	77.081172
1070.000000	74.314515
1069.000000	70.377875
1068.000000	65.076330
1067.000000	58.455854
1066.000000	50.992428
1065.000000	43.629550
1064.000000	37.515164
1063.000000	33.479636
1062.000000	31.549273
1061.000000	30.886724
1060.000000	30.281590
1059.000000	28.917395
1058.000000	26.828880
1057.000000	24.842078
1056.000000	24.040472
1055.000000	25.087693
1054.000000	27.936431
1053.000000	31.981447
1052.000000	36.478837
1051.000000	40.872149
1050.000000	44.862051
1049.000000	48.368369
1048.000000	51.441888
1047.000000	54.172130
1046.000000	56.618096
1045.000000	58.801190
1044.000000	60.724514
1043.000000	62.396593
1042.000000	63.838186
1041.000000	65.071752
1040.000000	66.130200
1039.000000	67.044964
1038.000000	67.839858
1037.000000	68.531987
1036.000000	69.130317
1035.000000	69.642750
1034.000000	70.072277
1033.000000	70.420921
1032.000000	70.698277
1031.000000	70.920215
1030.000000	71.107162
1029.000000	71.276888
1028.000000	71.439481
1027.000000	71.594659
1026.000000	71.727306
1025.000000	71.813146
1024.000000	71.824494
1023.000000	71.735440
1022.000000	71.529245
1021.000000	71.193310
1020.000000	70.717960
1019.000000	70.084828
1018.000000	69.255689
1017.000000	68.177796
1016.000000	66.789169
1015.000000	65.052610
1014.000000	63.000760
1013.000000	60.775795
1012.000000	58.628226
1011.000000	56.835009
1010.000000	55.558130
1009.000000	54.736118
1008.000000	54.119523
1007.000000	53.455902
1006.000000	52.733942
1005.000000	52.266706
1004.000000	52.512989
1003.000000	53.747005
1002.000000	55.830737
1001.000000	58.302524
1000.000000	60.644160
999.000000	62.494060
998.000000	63.699496
997.000000	64.263597
996.000000	64.293765
995.000000	63.981630
994.000000	63.592030
993.000000	63.420136
992.000000	63.708426
991.000000	64.547369
990.000000	65.830391
989.000000	67.323828
988.000000	68.803899
987.000000	70.142064
986.000000	71.306461
985.000000	72.318234
984.000000	73.209940
983.000000	74.004401
982.000000	74.710720
981.000000	75.329835
980.000000	75.865073
979.000000	76.330941
978.000000	76.745009
977.000000	77.122569
976.000000	77.475579
975.000000	77.811785
974.000000	78.134482
973.000000	78.439987
972.000000	78.722498
971.000000	78.979662
970.000000	79.213504
969.000000	79.430007
968.000000	79.637792
967.000000	79.846902
966.000000	80.064497
965.000000	80.290028
964.000000	80.515893
963.000000	80.731137
962.000000	80.925662
961.000000	81.093598
960.000000	81.236021
959.000000	81.362546
958.000000	81.488182
957.000000	81.627063
956.000000	81.787692
955.000000	81.971431
954.000000	82.172447
953.000000	82.377992
952.000000	82.572003
951.000000	82.742142
950.000000	82.884511
949.000000	83.003012
948.000000	83.106704
947.000000	83.208761
946.000000	83.324210
945.000000	83.463430
944.000000	83.626766
943.000000	83.805266
942.000000	83.985506
941.000000	84.153466
940.000000	84.297176
939.000000	84.411545
938.000000	84.501877
937.000000	84.580626
936.000000	84.660780
935.000000	84.752433
934.000000	84.861987
933.000000	84.989266
932.000000	85.125771
931.000000	85.259864
930.000000	85.383889
929.000000	85.495176
928.000000	85.592901
927.000000	85.678603
926.000000	85.758701
925.000000	85.840830
924.000000	85.927407
923.000000	86.015913
922.000000	86.104159
921.000000	86.191071
920.000000	86.273452
919.000000	86.348146
918.000000	86.417931
917.000000	86.489816
916.000000	86.567393
915.000000	86.648931
914.000000	86.731392
913.000000	86.810980
912.000000	86.877716
911.000000	86.918208
910.000000	86.920167
909.000000	86.866970
908.000000	86.727662
907.000000	86.453556
906.000000	85.991575
905.000000	85.292427
904.000000	84.324629
903.000000	83.123120
902.000000	81.849307
901.000000	80.786790
900.000000	80.230816
899.000000	80.328393
898.000000	80.993305
897.000000	81.979701
896.000000	83.027765
895.000000	83.971971
894.000000	84.760262
893.000000	85.404068
892.000000	85.931276
891.000000	86.363920
890.000000	86.715680
889.000000	86.991963
888.000000	87.193011
887.000000	87.309017
886.000000	87.311919
885.000000	87.153979
884.000000	86.789973
883.000000	86.233460
882.000000	85.581918
881.000000	84.964503
880.000000	84.439843
879.000000	83.953747
878.000000	83.422613
877.000000	82.868227
876.000000	82.462874
875.000000	82.417791
874.000000	82.822457
873.000000	83.576766
872.000000	84.466895
871.000000	85.298809
870.000000	85.977438
869.000000	86.500444
868.000000	86.905574
867.000000	87.232151
866.000000	87.508107
865.000000	87.749804
864.000000	87.961328
863.000000	88.139906
862.000000	88.283744
861.000000	88.394265
860.000000	88.476360
859.000000	88.538591
858.000000	88.595086
857.000000	88.660742
856.000000	88.743124
855.000000	88.841552
854.000000	88.951152
853.000000	89.064030
852.000000	89.167713
851.000000	89.249000
850.000000	89.302198
849.000000	89.331532
848.000000	89.347268
847.000000	89.363067
846.000000	89.394561
845.000000	89.453557
844.000000	89.540923
843.000000	89.647046
842.000000	89.758210
841.000000	89.859677
840.000000	89.936584
839.000000	89.980599
838.000000	89.998065
837.000000	90.006803
836.000000	90.023596
835.000000	90.057681
834.000000	90.113118
833.000000	90.189809
832.000000	90.280811
831.000000	90.374231
830.000000	90.460361
829.000000	90.535233
828.000000	90.599284
827.000000	90.658002
826.000000	90.722742
825.000000	90.803454
824.000000	90.899039
823.000000	90.999326
822.000000	91.095509
821.000000	91.182452
820.000000	91.253772
819.000000	91.303943
818.000000	91.335426
817.000000	91.356833
816.000000	91.372637
815.000000	91.380424
814.000000	91.376319
813.000000	91.353894
812.000000	91.298652
811.000000	91.189342
810.000000	91.008273
809.000000	90.746285
808.000000	90.394923
807.000000	89.944119
806.000000	89.380779
805.000000	88.683255
804.000000	87.816317
803.000000	86.729089
802.000000	85.368394
801.000000	83.684049
800.000000	81.637519
799.000000	79.223356
798.000000	76.481090
797.000000	73.496601
796.000000	70.386083
795.000000	67.283015
794.000000	64.327067
793.000000	61.656509
792.000000	59.399659
791.000000	57.664850
790.000000	56.530071
789.000000	56.025115
788.000000	56.128646
787.000000	56.761291
786.000000	57.798695
785.000000	59.099160
784.000000	60.517950
783.000000	61.917905
782.000000	63.173778
781.000000	64.184197
780.000000	64.880007
779.000000	65.233192
778.000000	65.263342
777.000000	65.030392
776.000000	64.607381
775.000000	64.054630
774.000000	63.427393
773.000000	62.805842
772.000000	62.316114
771.000000	62.111460
770.000000	62.325510
769.000000	63.020351
768.000000	64.161327
767.000000	65.631049
766.000000	67.278329
765.000000	68.972606
764.000000	70.624060
763.000000	72.180490
762.000000	73.618551
761.000000	74.936259
760.000000	76.140150
759.000000	77.235831
758.000000	78.230446
757.000000	79.136511
756.000000	79.969374
755.000000	80.742552
754.000000	81.469763
753.000000	82.162273
752.000000	82.820046
751.000000	83.430854
750.000000	83.980321
749.000000	84.460795
748.000000	84.869445
747.000000	85.208498
746.000000	85.493160
745.000000	85.750812
744.000000	86.006782
743.000000	86.272930
742.000000	86.549130
741.000000	86.825936
740.000000	87.080555
739.000000	87.280322
738.000000	87.398951
737.000000	87.428412
736.000000	87.376530
735.000000	87.261753
734.000000	87.113246
733.000000	86.965719
732.000000	86.845759
731.000000	86.763918
730.000000	86.716182
729.000000	86.683118
728.000000	86.627873
727.000000	86.503035
726.000000	86.271198
725.000000	85.923838
724.000000	85.473243
723.000000	84.918856
722.000000	84.215905
721.000000	83.280795
720.000000	82.039350
719.000000	80.484699
718.000000	78.697823
717.000000	76.829880
716.000000	75.073876
715.000000	73.632567
714.000000	72.679696
713.000000	72.314551
712.000000	72.530622
711.000000	73.227281
710.000000	74.263812
709.000000	75.506309
708.000000	76.838846
707.000000	78.163027
706.000000	79.409139
705.000000	80.545777
704.000000	81.565749
703.000000	82.472569
702.000000	83.286297
701.000000	84.039843
700.000000	84.755624
699.000000	85.434211
698.000000	86.066591
697.000000	86.647444
696.000000	87.168260
695.000000	87.615655
694.000000	87.993666
693.000000	88.329708
692.000000	88.649987
691.000000	88.961508
690.000000	89.262269
689.000000	89.554117
688.000000	89.830181
687.000000	90.067343
686.000000	90.249199
685.000000	90.381322
684.000000	90.477169
683.000000	90.549280
682.000000	90.622257
681.000000	90.731004
680.000000	90.884952
679.000000	91.060738
678.000000	91.217913
677.000000	91.327676
676.000000	91.379196
675.000000	91.350709
674.000000	91.284501
673.000000	91.346453
672.000000	91.745368
671.000000	92.547708
670.000000	93.590210
669.000000	94.259512
668.000000	93.803184
667.000000	92.729347
666.000000	92.043196
665.000000	91.740086
664.000000	91.567461
663.000000	91.415854
662.000000	91.292509
661.000000	91.214811
660.000000	91.196105
659.000000	91.262495
658.000000	91.413912
657.000000	91.596325
656.000000	91.752317
655.000000	91.840701
654.000000	91.837184
653.000000	91.736057
652.000000	91.565440
651.000000	91.379034
650.000000	91.217594
649.000000	91.090392
648.000000	91.002140
647.000000	90.965540
646.000000	90.971478
645.000000	90.976391
644.000000	90.932499
643.000000	90.818679
642.000000	90.639668
641.000000	90.411718
640.000000	90.164091
639.000000	89.937842
638.000000	89.760033
637.000000	89.626081
636.000000	89.515296
635.000000	89.407696
634.000000	89.281652
633.000000	89.114670
632.000000	88.901729
631.000000	88.664815
630.000000	88.431824
629.000000	88.212462
628.000000	88.003080
627.000000	87.796070
626.000000	87.573745
625.000000	87.310881
624.000000	86.992906
623.000000	86.630616
622.000000	86.252979
621.000000	85.890629
620.000000	85.562166
619.000000	85.257174
618.000000	84.927327
617.000000	84.513125
616.000000	83.991856
615.000000	83.379860
614.000000	82.685992
613.000000	81.893669
612.000000	80.997262
611.000000	80.029761
610.000000	79.030331
609.000000	78.004227
608.000000	76.937399
607.000000	75.816093
606.000000	74.606448
605.000000	73.246694
604.000000	71.693012
603.000000	69.961508
602.000000	68.095241
601.000000	66.121972
600.000000	64.077781
599.000000	62.033326
598.000000	60.045264
597.000000	58.111094
596.000000	56.216754
595.000000	54.386999
594.000000	52.644284
593.000000	50.965561
592.000000	49.344239
591.000000	47.840116
590.000000	46.506397
589.000000	45.319911
588.000000	44.232697
587.000000	43.230569
586.000000	42.276925
585.000000	41.268408
584.000000	40.126637
583.000000	38.885720
582.000000	37.641147
581.000000	36.479282
580.000000	35.512367
579.000000	34.909395
578.000000	34.790615
577.000000	35.147172
576.000000	35.897363
575.000000	36.930866
574.000000	38.069957
573.000000	39.088413
572.000000	39.865741
571.000000	40.489019
570.000000	41.164801
569.000000	42.062849
568.000000	43.250093
567.000000	44.688291
566.000000	46.230565
565.000000	47.684513
564.000000	48.937432
563.000000	49.996859
562.000000	50.910888
561.000000	51.706609
560.000000	52.421694
559.000000	53.124836
558.000000	53.861654
557.000000	54.619743
556.000000	55.372638
555.000000	56.119912
554.000000	56.855052
553.000000	57.545268
552.000000	58.176124
551.000000	58.778155
550.000000	59.383366
549.000000	59.989436
548.000000	60.592154
547.000000	61.213417
546.000000	61.866504
545.000000	62.524850
544.000000	63.151323
543.000000	63.730808
542.000000	64.257982
541.000000	64.724745
540.000000	65.143553
539.000000	65.553710
538.000000	65.981706
537.000000	66.414852
536.000000	66.828218
535.000000	67.215721
534.000000	67.576853
533.000000	67.899892
532.000000	68.174807
531.000000	68.405750
530.000000	68.594213
529.000000	68.720278
528.000000	68.750588
527.000000	68.658169
526.000000	68.416239
525.000000	67.998083
524.000000	67.405042
523.000000	66.688889
522.000000	65.944526
521.000000	65.269863
520.000000	64.718180
519.000000	64.238675
518.000000	63.626722
517.000000	62.588049
516.000000	60.916451
515.000000	58.646454
514.000000	56.048844
513.000000	53.515905
512.000000	51.447903
511.000000	50.164850
510.000000	49.806738
509.000000	50.309977
508.000000	51.518361
507.000000	53.243729
506.000000	55.248785
505.000000	57.291140
504.000000	59.223440
503.000000	61.012052
502.000000	62.646379
501.000000	64.103989
500.000000	65.400505
499.000000	66.602209
498.000000	67.755255
497.000000	68.848297
496.000000	69.849855
495.000000	70.745694
494.000000	71.535832
493.000000	72.219463
492.000000	72.816017
491.000000	73.374551
490.000000	73.937826
489.000000	74.516416
488.000000	75.096780
487.000000	75.662713
486.000000	76.195209
485.000000	76.671041
484.000000	77.081787
483.000000	77.442232
482.000000	77.772634
481.000000	78.082739
480.000000	78.376799
479.000000	78.655823
478.000000	78.895662
477.000000	79.044626
476.000000	79.050825
475.000000	78.868331
474.000000	78.440072
473.000000	77.703640
472.000000	76.660310
471.000000	75.434290
470.000000	74.227909
469.000000	73.239761
468.000000	72.613129
467.000000	72.354748
466.000000	72.241177
465.000000	71.895003
464.000000	71.029228
463.000000	69.667928
462.000000	68.191418
461.000000	67.146359
460.000000	66.999511
459.000000	67.972107
458.000000	69.893997
457.000000	72.186471
456.000000	74.226850
455.000000	75.758771
454.000000	76.834197
453.000000	77.567559
452.000000	78.057250
451.000000	78.407060
450.000000	78.671504
449.000000	78.796798
448.000000	78.651265
447.000000	78.111891
446.000000	77.154092
445.000000	75.898402
444.000000	74.618964
443.000000	73.679235
442.000000	73.344193
441.000000	73.618656
440.000000	74.322798
439.000000	75.255485
438.000000	76.243745
437.000000	77.137308
436.000000	77.831058
435.000000	78.294907
434.000000	78.549214
433.000000	78.623383
432.000000	78.557917
431.000000	78.428336
430.000000	78.313509
429.000000	78.233201
428.000000	78.156979
427.000000	78.056637
426.000000	77.916105
425.000000	77.712561
424.000000	77.447179
423.000000	77.181272
422.000000	76.975741
421.000000	76.820114
420.000000	76.677455
419.000000	76.589176
418.000000	76.609519
417.000000	76.651816
416.000000	76.606764
415.000000	76.477696
414.000000	76.328709
413.000000	76.212321
412.000000	76.175692
411.000000	76.283810
410.000000	76.562762
409.000000	76.924098
408.000000	77.229635
407.000000	77.407466
406.000000	77.456430
405.000000	77.381285
404.000000	77.212396
403.000000	77.064239
402.000000	77.030600
401.000000	77.113416
400.000000	77.253430
