PE IR       SUBTECH     SPECTRUM    ASCII       PEDS        4.00        
   -1
23ms219-cis.asc
24/10/18
15:29:24.00
24/10/18
15:29:24.00
Administrator
Sample 1303 By Administrator Date Friday, October 18 2024
400.000000
#HDR
-1
-1
#GR
cm-1
%T
1.0
0.0
4000.000000
-1.000000
3601
8
86.188702
18.697353
#DATA
4000.000000	62.636897
3999.000000	62.607363
3998.000000	62.580729
3997.000000	62.556804
3996.000000	62.535232
3995.000000	62.515546
3994.000000	62.497308
3993.000000	62.480021
3992.000000	62.462635
3991.000000	62.443096
3990.000000	62.418772
3989.000000	62.387973
3988.000000	62.351265
3987.000000	62.311340
3986.000000	62.271820
3985.000000	62.236321
3984.000000	62.208271
3983.000000	62.190957
3982.000000	62.187092
3981.000000	62.198153
3980.000000	62.223926
3979.000000	62.262684
3978.000000	62.312226
3977.000000	62.370335
3976.000000	62.434778
3975.000000	62.503246
3974.000000	62.573393
3973.000000	62.643377
3972.000000	62.712016
3971.000000	62.778815
3970.000000	62.843593
3969.000000	62.906245
3968.000000	62.966914
3967.000000	63.025831
3966.000000	63.083116
3965.000000	63.138783
3964.000000	63.192850
3963.000000	63.245100
3962.000000	63.295269
3961.000000	63.343243
3960.000000	63.389496
3959.000000	63.435359
3958.000000	63.481622
3957.000000	63.527812
3956.000000	63.573038
3955.000000	63.616965
3954.000000	63.659754
3953.000000	63.700899
3952.000000	63.739227
3951.000000	63.773982
3950.000000	63.805435
3949.000000	63.834780
3948.000000	63.863381
3947.000000	63.892195
3946.000000	63.922024
3945.000000	63.953726
3944.000000	63.986919
3943.000000	64.018296
3942.000000	64.044721
3941.000000	64.067456
3940.000000	64.091551
3939.000000	64.121505
3938.000000	64.156340
3937.000000	64.190757
3936.000000	64.221322
3935.000000	64.249422
3934.000000	64.278644
3933.000000	64.308881
3932.000000	64.336554
3931.000000	64.359299
3930.000000	64.377933
3929.000000	64.395662
3928.000000	64.414530
3927.000000	64.435008
3926.000000	64.456512
3925.000000	64.476029
3924.000000	64.489913
3923.000000	64.497703
3922.000000	64.502672
3921.000000	64.508795
3920.000000	64.517330
3919.000000	64.527663
3918.000000	64.540155
3917.000000	64.555866
3916.000000	64.574321
3915.000000	64.593177
3914.000000	64.612360
3913.000000	64.633927
3912.000000	64.658066
3911.000000	64.682735
3910.000000	64.705310
3909.000000	64.725321
3908.000000	64.744090
3907.000000	64.760549
3906.000000	64.771245
3905.000000	64.772322
3904.000000	64.763900
3903.000000	64.752846
3902.000000	64.748650
3901.000000	64.758701
3900.000000	64.784121
3899.000000	64.818605
3898.000000	64.855712
3897.000000	64.894402
3896.000000	64.936452
3895.000000	64.982546
3894.000000	65.029911
3893.000000	65.074714
3892.000000	65.113613
3891.000000	65.144029
3890.000000	65.164126
3889.000000	65.176159
3888.000000	65.190900
3887.000000	65.220080
3886.000000	65.260781
3885.000000	65.296340
3884.000000	65.316025
3883.000000	65.326387
3882.000000	65.340328
3881.000000	65.361113
3880.000000	65.381469
3879.000000	65.395122
3878.000000	65.404233
3877.000000	65.416912
3876.000000	65.439388
3875.000000	65.467867
3874.000000	65.488961
3873.000000	65.493458
3872.000000	65.488708
3871.000000	65.491186
3870.000000	65.506519
3869.000000	65.525133
3868.000000	65.538051
3867.000000	65.551155
3866.000000	65.577164
3865.000000	65.613643
3864.000000	65.645052
3863.000000	65.664857
3862.000000	65.680985
3861.000000	65.703031
3860.000000	65.732883
3859.000000	65.768734
3858.000000	65.810436
3857.000000	65.855535
3856.000000	65.894725
3855.000000	65.912579
3854.000000	65.902343
3853.000000	65.881014
3852.000000	65.869308
3851.000000	65.870713
3850.000000	65.883133
3849.000000	65.906352
3848.000000	65.936026
3847.000000	65.967839
3846.000000	66.000522
3845.000000	66.032779
3844.000000	66.061717
3843.000000	66.083555
3842.000000	66.097175
3841.000000	66.107780
3840.000000	66.120013
3839.000000	66.134179
3838.000000	66.150911
3837.000000	66.171252
3836.000000	66.194616
3835.000000	66.218893
3834.000000	66.244269
3833.000000	66.273674
3832.000000	66.307134
3831.000000	66.340768
3830.000000	66.372094
3829.000000	66.402307
3828.000000	66.434921
3827.000000	66.471312
3826.000000	66.505126
3825.000000	66.528392
3824.000000	66.542127
3823.000000	66.558050
3822.000000	66.584749
3821.000000	66.613386
3820.000000	66.629250
3819.000000	66.632816
3818.000000	66.640850
3817.000000	66.668561
3816.000000	66.711785
3815.000000	66.753211
3814.000000	66.785456
3813.000000	66.814343
3812.000000	66.844895
3811.000000	66.874967
3810.000000	66.900657
3809.000000	66.923332
3808.000000	66.949169
3807.000000	66.978446
3806.000000	67.001916
3805.000000	67.014502
3804.000000	67.023061
3803.000000	67.041499
3802.000000	67.069792
3801.000000	67.091789
3800.000000	67.098963
3799.000000	67.100493
3798.000000	67.111356
3797.000000	67.136451
3796.000000	67.168665
3795.000000	67.200422
3794.000000	67.232202
3793.000000	67.267061
3792.000000	67.303498
3791.000000	67.337687
3790.000000	67.367795
3789.000000	67.394558
3788.000000	67.419620
3787.000000	67.444337
3786.000000	67.469796
3785.000000	67.495332
3784.000000	67.517605
3783.000000	67.534166
3782.000000	67.547378
3781.000000	67.562179
3780.000000	67.580217
3779.000000	67.599205
3778.000000	67.617555
3777.000000	67.637240
3776.000000	67.661234
3775.000000	67.689350
3774.000000	67.716712
3773.000000	67.737794
3772.000000	67.753227
3771.000000	67.768495
3770.000000	67.784458
3769.000000	67.796705
3768.000000	67.805257
3767.000000	67.818696
3766.000000	67.845348
3765.000000	67.880982
3764.000000	67.913989
3763.000000	67.940609
3762.000000	67.967845
3761.000000	68.001533
3760.000000	68.036257
3759.000000	68.065607
3758.000000	68.092109
3757.000000	68.120132
3756.000000	68.149001
3755.000000	68.176203
3754.000000	68.202998
3753.000000	68.230220
3752.000000	68.252950
3751.000000	68.270528
3750.000000	68.292213
3749.000000	68.320571
3748.000000	68.345436
3747.000000	68.364572
3746.000000	68.392199
3745.000000	68.439431
3744.000000	68.495972
3743.000000	68.543425
3742.000000	68.577626
3741.000000	68.607944
3740.000000	68.639751
3739.000000	68.670125
3738.000000	68.699740
3737.000000	68.735083
3736.000000	68.776149
3735.000000	68.809330
3734.000000	68.829965
3733.000000	68.853072
3732.000000	68.888835
3731.000000	68.928443
3730.000000	68.958565
3729.000000	68.979443
3728.000000	69.002075
3727.000000	69.030921
3726.000000	69.058654
3725.000000	69.078398
3724.000000	69.093727
3723.000000	69.110572
3722.000000	69.129127
3721.000000	69.148481
3720.000000	69.169251
3719.000000	69.194295
3718.000000	69.225588
3717.000000	69.261092
3716.000000	69.297670
3715.000000	69.334401
3714.000000	69.373545
3713.000000	69.415471
3712.000000	69.454972
3711.000000	69.488809
3710.000000	69.521848
3709.000000	69.561186
3708.000000	69.607246
3707.000000	69.654839
3706.000000	69.699752
3705.000000	69.741276
3704.000000	69.780965
3703.000000	69.819263
3702.000000	69.854854
3701.000000	69.886340
3700.000000	69.913049
3699.000000	69.936853
3698.000000	69.963648
3697.000000	69.996237
3696.000000	70.028885
3695.000000	70.054446
3694.000000	70.073651
3693.000000	70.093590
3692.000000	70.116723
3691.000000	70.138427
3690.000000	70.155937
3689.000000	70.175916
3688.000000	70.204144
3687.000000	70.234551
3686.000000	70.261144
3685.000000	70.287145
3684.000000	70.316069
3683.000000	70.346199
3682.000000	70.375929
3681.000000	70.405431
3680.000000	70.432226
3679.000000	70.446941
3678.000000	70.447108
3677.000000	70.447611
3676.000000	70.463175
3675.000000	70.487842
3674.000000	70.502012
3673.000000	70.500399
3672.000000	70.500689
3671.000000	70.522927
3670.000000	70.563682
3669.000000	70.606220
3668.000000	70.645224
3667.000000	70.683742
3666.000000	70.722735
3665.000000	70.762029
3664.000000	70.801039
3663.000000	70.840033
3662.000000	70.877785
3661.000000	70.909646
3660.000000	70.931815
3659.000000	70.944502
3658.000000	70.953669
3657.000000	70.966337
3656.000000	70.982339
3655.000000	70.993510
3654.000000	70.991946
3653.000000	70.981177
3652.000000	70.974226
3651.000000	70.976986
3650.000000	70.981330
3649.000000	70.984075
3648.000000	70.998808
3647.000000	71.032378
3646.000000	71.073602
3645.000000	71.111982
3644.000000	71.148822
3643.000000	71.189766
3642.000000	71.233412
3641.000000	71.273518
3640.000000	71.308198
3639.000000	71.339794
3638.000000	71.367981
3637.000000	71.389489
3636.000000	71.405839
3635.000000	71.422962
3634.000000	71.439948
3633.000000	71.446336
3632.000000	71.434869
3631.000000	71.414473
3630.000000	71.403461
3629.000000	71.408564
3628.000000	71.420504
3627.000000	71.429822
3626.000000	71.433403
3625.000000	71.432596
3624.000000	71.427825
3623.000000	71.416692
3622.000000	71.398400
3621.000000	71.374754
3620.000000	71.344335
3619.000000	71.302827
3618.000000	71.250546
3617.000000	71.192153
3616.000000	71.133157
3615.000000	71.078926
3614.000000	71.031415
3613.000000	70.987452
3612.000000	70.942836
3611.000000	70.897686
3610.000000	70.857799
3609.000000	70.828446
3608.000000	70.805467
3607.000000	70.779643
3606.000000	70.746481
3605.000000	70.707581
3604.000000	70.666560
3603.000000	70.625022
3602.000000	70.583935
3601.000000	70.544841
3600.000000	70.506885
3599.000000	70.466679
3598.000000	70.423297
3597.000000	70.378913
3596.000000	70.336626
3595.000000	70.297149
3594.000000	70.258135
3593.000000	70.216512
3592.000000	70.168906
3591.000000	70.114664
3590.000000	70.060025
3589.000000	70.015113
3588.000000	69.982693
3587.000000	69.955784
3586.000000	69.927411
3585.000000	69.896757
3584.000000	69.865846
3583.000000	69.835779
3582.000000	69.806466
3581.000000	69.777085
3580.000000	69.746418
3579.000000	69.712976
3578.000000	69.676490
3577.000000	69.638081
3576.000000	69.598580
3575.000000	69.558413
3574.000000	69.517632
3573.000000	69.475469
3572.000000	69.428951
3571.000000	69.374049
3570.000000	69.310780
3569.000000	69.246329
3568.000000	69.188117
3567.000000	69.135791
3566.000000	69.083980
3565.000000	69.029465
3564.000000	68.972342
3563.000000	68.913975
3562.000000	68.854493
3561.000000	68.792431
3560.000000	68.726000
3559.000000	68.653961
3558.000000	68.575687
3557.000000	68.490732
3556.000000	68.398468
3555.000000	68.298896
3554.000000	68.193472
3553.000000	68.084056
3552.000000	67.970940
3551.000000	67.852189
3550.000000	67.725776
3549.000000	67.592937
3548.000000	67.457125
3547.000000	67.320473
3546.000000	67.182265
3545.000000	67.041332
3544.000000	66.897552
3543.000000	66.750899
3542.000000	66.600461
3541.000000	66.445109
3540.000000	66.283708
3539.000000	66.114511
3538.000000	65.935762
3537.000000	65.746634
3536.000000	65.547380
3535.000000	65.338295
3534.000000	65.119924
3533.000000	64.893540
3532.000000	64.659801
3531.000000	64.417019
3530.000000	64.161924
3529.000000	63.893112
3528.000000	63.611800
3527.000000	63.319126
3526.000000	63.014706
3525.000000	62.698547
3524.000000	62.371887
3523.000000	62.035235
3522.000000	61.687360
3521.000000	61.326692
3520.000000	60.952312
3519.000000	60.562839
3518.000000	60.156495
3517.000000	59.733153
3516.000000	59.294933
3515.000000	58.843880
3514.000000	58.380392
3513.000000	57.904029
3512.000000	57.414254
3511.000000	56.909986
3510.000000	56.390786
3509.000000	55.859550
3508.000000	55.320760
3507.000000	54.775201
3506.000000	54.218730
3505.000000	53.647248
3504.000000	53.061183
3503.000000	52.464644
3502.000000	51.862280
3501.000000	51.257312
3500.000000	50.650122
3499.000000	50.037667
3498.000000	49.416367
3497.000000	48.786377
3496.000000	48.151720
3495.000000	47.516108
3494.000000	46.881279
3493.000000	46.249351
3492.000000	45.623106
3491.000000	45.003118
3490.000000	44.388023
3489.000000	43.779101
3488.000000	43.181773
3487.000000	42.601364
3486.000000	42.039920
3485.000000	41.497110
3484.000000	40.970712
3483.000000	40.456547
3482.000000	39.951946
3481.000000	39.459855
3480.000000	38.985746
3479.000000	38.529664
3478.000000	38.085329
3477.000000	37.646949
3476.000000	37.212765
3475.000000	36.782610
3474.000000	36.356496
3473.000000	35.936592
3472.000000	35.527158
3471.000000	35.132187
3470.000000	34.757323
3469.000000	34.413001
3468.000000	34.111119
3467.000000	33.857915
3466.000000	33.653370
3465.000000	33.497573
3464.000000	33.392578
3463.000000	33.339200
3462.000000	33.337676
3461.000000	33.390262
3460.000000	33.499019
3459.000000	33.659803
3458.000000	33.862261
3457.000000	34.095927
3456.000000	34.351429
3455.000000	34.617268
3454.000000	34.880436
3453.000000	35.129430
3452.000000	35.353603
3451.000000	35.540759
3450.000000	35.678791
3449.000000	35.760418
3448.000000	35.782876
3447.000000	35.743805
3446.000000	35.642997
3445.000000	35.485181
3444.000000	35.278030
3443.000000	35.028610
3442.000000	34.743551
3441.000000	34.433249
3440.000000	34.111044
3439.000000	33.789170
3438.000000	33.479624
3437.000000	33.196867
3436.000000	32.955099
3435.000000	32.762368
3434.000000	32.620079
3433.000000	32.527610
3432.000000	32.486296
3431.000000	32.498887
3430.000000	32.569796
3429.000000	32.705864
3428.000000	32.911473
3427.000000	33.186310
3426.000000	33.527672
3425.000000	33.934501
3424.000000	34.407743
3423.000000	34.945285
3422.000000	35.542693
3421.000000	36.194672
3420.000000	36.893300
3419.000000	37.627975
3418.000000	38.387882
3417.000000	39.165949
3416.000000	39.957068
3415.000000	40.754532
3414.000000	41.551550
3413.000000	42.343214
3412.000000	43.124669
3411.000000	43.889274
3410.000000	44.631226
3409.000000	45.348532
3408.000000	46.041144
3407.000000	46.707016
3406.000000	47.343271
3405.000000	47.949767
3404.000000	48.528505
3403.000000	49.081577
3402.000000	49.611407
3401.000000	50.121695
3400.000000	50.615567
3399.000000	51.092478
3398.000000	51.549744
3397.000000	51.986368
3396.000000	52.403451
3395.000000	52.803057
3394.000000	53.187919
3393.000000	53.561850
3392.000000	53.928079
3391.000000	54.287034
3390.000000	54.638023
3389.000000	54.981289
3388.000000	55.317638
3387.000000	55.647352
3386.000000	55.970954
3385.000000	56.290227
3384.000000	56.606450
3383.000000	56.919119
3382.000000	57.227795
3381.000000	57.533719
3380.000000	57.838155
3379.000000	58.140543
3378.000000	58.440106
3377.000000	58.737954
3376.000000	59.035480
3375.000000	59.331889
3374.000000	59.625090
3373.000000	59.914162
3372.000000	60.199381
3371.000000	60.480770
3370.000000	60.758603
3369.000000	61.034310
3368.000000	61.309265
3367.000000	61.583299
3366.000000	61.855615
3365.000000	62.126313
3364.000000	62.395678
3363.000000	62.662944
3362.000000	62.927093
3361.000000	63.187925
3360.000000	63.445368
3359.000000	63.698874
3358.000000	63.948746
3357.000000	64.197042
3356.000000	64.445453
3355.000000	64.693358
3354.000000	64.939100
3353.000000	65.182184
3352.000000	65.422882
3351.000000	65.660527
3350.000000	65.893832
3349.000000	66.122431
3348.000000	66.346855
3347.000000	66.567539
3346.000000	66.784896
3345.000000	66.999699
3344.000000	67.212169
3343.000000	67.421070
3342.000000	67.625035
3341.000000	67.824298
3340.000000	68.020234
3339.000000	68.213666
3338.000000	68.404331
3337.000000	68.591736
3336.000000	68.775241
3335.000000	68.953564
3334.000000	69.125129
3333.000000	69.288520
3332.000000	69.442471
3331.000000	69.585578
3330.000000	69.716795
3329.000000	69.836147
3328.000000	69.943713
3327.000000	70.038592
3326.000000	70.118657
3325.000000	70.180862
3324.000000	70.221869
3323.000000	70.238110
3322.000000	70.226888
3321.000000	70.186633
3320.000000	70.115164
3319.000000	70.009642
3318.000000	69.866557
3317.000000	69.683143
3316.000000	69.456589
3315.000000	69.182279
3314.000000	68.855192
3313.000000	68.470179
3312.000000	68.021779
3311.000000	67.504323
3310.000000	66.911405
3309.000000	66.239011
3308.000000	65.483031
3307.000000	64.637056
3306.000000	63.693521
3305.000000	62.642686
3304.000000	61.475647
3303.000000	60.182023
3302.000000	58.752520
3301.000000	57.183790
3300.000000	55.477700
3299.000000	53.644138
3298.000000	51.703879
3297.000000	49.690261
3296.000000	47.646390
3295.000000	45.616556
3294.000000	43.643841
3293.000000	41.769707
3292.000000	40.026921
3291.000000	38.429260
3290.000000	36.971805
3289.000000	35.635779
3288.000000	34.393677
3287.000000	33.213783
3286.000000	32.065938
3285.000000	30.931221
3284.000000	29.801123
3283.000000	28.675352
3282.000000	27.565091
3281.000000	26.494072
3280.000000	25.495321
3279.000000	24.603977
3278.000000	23.857146
3277.000000	23.295887
3276.000000	22.953770
3275.000000	22.847308
3274.000000	22.973093
3273.000000	23.308669
3272.000000	23.815494
3271.000000	24.436422
3270.000000	25.105014
3269.000000	25.756319
3268.000000	26.330061
3267.000000	26.775338
3266.000000	27.058197
3265.000000	27.165861
3264.000000	27.102490
3263.000000	26.885235
3262.000000	26.541453
3261.000000	26.109917
3260.000000	25.631100
3259.000000	25.136339
3258.000000	24.648371
3257.000000	24.179522
3256.000000	23.727850
3255.000000	23.273005
3254.000000	22.783319
3253.000000	22.231449
3252.000000	21.606612
3251.000000	20.925767
3250.000000	20.243682
3249.000000	19.649566
3248.000000	19.238377
3247.000000	19.079319
3246.000000	19.195421
3245.000000	19.562314
3244.000000	20.122490
3243.000000	20.802735
3242.000000	21.539350
3241.000000	22.286601
3240.000000	23.010531
3239.000000	23.684892
3238.000000	24.291729
3237.000000	24.824686
3236.000000	25.285126
3235.000000	25.678373
3234.000000	26.013068
3233.000000	26.299889
3232.000000	26.543099
3231.000000	26.737463
3230.000000	26.877125
3229.000000	26.960651
3228.000000	26.989089
3227.000000	26.960636
3226.000000	26.872812
3225.000000	26.727720
3224.000000	26.528598
3223.000000	26.278071
3222.000000	25.981174
3221.000000	25.648273
3220.000000	25.292091
3219.000000	24.922099
3218.000000	24.546159
3217.000000	24.172002
3216.000000	23.803807
3215.000000	23.440507
3214.000000	23.079993
3213.000000	22.722696
3212.000000	22.368041
3211.000000	22.012183
3210.000000	21.653177
3209.000000	21.295058
3208.000000	20.943433
3207.000000	20.600947
3206.000000	20.270769
3205.000000	19.959715
3204.000000	19.674720
3203.000000	19.419102
3202.000000	19.195826
3201.000000	19.011016
3200.000000	18.869043
3199.000000	18.769693
3198.000000	18.712032
3197.000000	18.697353
3196.000000	18.725805
3195.000000	18.792153
3194.000000	18.891237
3193.000000	19.021610
3192.000000	19.181002
3191.000000	19.364271
3190.000000	19.566938
3189.000000	19.788671
3188.000000	20.028854
3187.000000	20.282603
3186.000000	20.545423
3185.000000	20.816205
3184.000000	21.093331
3183.000000	21.371719
3182.000000	21.647207
3181.000000	21.920379
3180.000000	22.192492
3179.000000	22.462195
3178.000000	22.729105
3177.000000	22.996385
3176.000000	23.266466
3175.000000	23.537806
3174.000000	23.809002
3173.000000	24.082383
3172.000000	24.361000
3171.000000	24.646701
3170.000000	24.943738
3169.000000	25.259984
3168.000000	25.600859
3167.000000	25.964524
3166.000000	26.345719
3165.000000	26.739686
3164.000000	27.140045
3163.000000	27.537470
3162.000000	27.924034
3161.000000	28.295969
3160.000000	28.649879
3159.000000	28.980314
3158.000000	29.283136
3157.000000	29.558540
3156.000000	29.807540
3155.000000	30.029512
3154.000000	30.225699
3153.000000	30.400329
3152.000000	30.556927
3151.000000	30.695183
3150.000000	30.814350
3149.000000	30.916433
3148.000000	31.002254
3147.000000	31.069301
3146.000000	31.114843
3145.000000	31.138528
3144.000000	31.140258
3143.000000	31.117774
3142.000000	31.070437
3141.000000	31.001074
3140.000000	30.912112
3139.000000	30.803970
3138.000000	30.678290
3137.000000	30.540307
3136.000000	30.394515
3135.000000	30.241405
3134.000000	30.081338
3133.000000	29.916636
3132.000000	29.747868
3131.000000	29.571179
3130.000000	29.382185
3129.000000	29.179904
3128.000000	28.964233
3127.000000	28.734422
3126.000000	28.492757
3125.000000	28.246352
3124.000000	28.002682
3123.000000	27.766361
3122.000000	27.542260
3121.000000	27.337001
3120.000000	27.154323
3119.000000	26.991953
3118.000000	26.846051
3117.000000	26.714572
3116.000000	26.594016
3115.000000	26.477528
3114.000000	26.358828
3113.000000	26.234722
3112.000000	26.101410
3111.000000	25.953260
3110.000000	25.787967
3109.000000	25.609139
3108.000000	25.420874
3107.000000	25.224002
3106.000000	25.020216
3105.000000	24.815243
3104.000000	24.615132
3103.000000	24.423486
3102.000000	24.245596
3101.000000	24.090358
3100.000000	23.965688
3099.000000	23.874856
3098.000000	23.820234
3097.000000	23.806420
3096.000000	23.835377
3095.000000	23.904672
3094.000000	24.011561
3093.000000	24.155309
3092.000000	24.333096
3091.000000	24.536706
3090.000000	24.757701
3089.000000	24.990380
3088.000000	25.228488
3087.000000	25.464723
3086.000000	25.695962
3085.000000	25.925844
3084.000000	26.158847
3083.000000	26.396166
3082.000000	26.639765
3081.000000	26.895023
3080.000000	27.166719
3079.000000	27.455973
3078.000000	27.763329
3077.000000	28.090617
3076.000000	28.436587
3075.000000	28.795627
3074.000000	29.163155
3073.000000	29.538291
3072.000000	29.919625
3071.000000	30.302325
3070.000000	30.682680
3069.000000	31.061042
3068.000000	31.437773
3067.000000	31.809960
3066.000000	32.174522
3065.000000	32.531073
3064.000000	32.879258
3063.000000	33.217076
3062.000000	33.543601
3061.000000	33.860408
3060.000000	34.168283
3059.000000	34.465851
3058.000000	34.753429
3057.000000	35.034217
3056.000000	35.310352
3055.000000	35.580939
3054.000000	35.845562
3053.000000	36.106453
3052.000000	36.365028
3051.000000	36.619857
3050.000000	36.869442
3049.000000	37.113596
3048.000000	37.351108
3047.000000	37.579524
3046.000000	37.799207
3045.000000	38.014105
3044.000000	38.226929
3043.000000	38.437271
3042.000000	38.645474
3041.000000	38.854494
3040.000000	39.065831
3039.000000	39.277223
3038.000000	39.486605
3037.000000	39.695046
3036.000000	39.904173
3035.000000	40.113900
3034.000000	40.324338
3033.000000	40.536595
3032.000000	40.749895
3031.000000	40.961152
3030.000000	41.169083
3029.000000	41.375555
3028.000000	41.581554
3027.000000	41.785401
3026.000000	41.986469
3025.000000	42.187017
3024.000000	42.388060
3023.000000	42.586653
3022.000000	42.779126
3021.000000	42.963751
3020.000000	43.138591
3019.000000	43.299369
3018.000000	43.442142
3017.000000	43.565645
3016.000000	43.669742
3015.000000	43.755100
3014.000000	43.826352
3013.000000	43.893816
3012.000000	43.969821
3011.000000	44.064996
3010.000000	44.187913
3009.000000	44.343550
3008.000000	44.528800
3007.000000	44.730998
3006.000000	44.930736
3005.000000	45.102743
3004.000000	45.210933
3003.000000	45.208693
3002.000000	45.055201
3001.000000	44.740793
3000.000000	44.304497
2999.000000	43.827131
2998.000000	43.403289
2997.000000	43.107463
2996.000000	42.975989
2995.000000	43.012276
2994.000000	43.200802
2993.000000	43.513761
2992.000000	43.909240
2991.000000	44.337970
2990.000000	44.757361
2989.000000	45.140104
2988.000000	45.470716
2987.000000	45.739270
2986.000000	45.938719
2985.000000	46.062002
2984.000000	46.100549
2983.000000	46.051114
2982.000000	45.930633
2981.000000	45.780869
2980.000000	45.653818
2979.000000	45.587175
2978.000000	45.589797
2977.000000	45.644855
2976.000000	45.724216
2975.000000	45.805826
2974.000000	45.883688
2973.000000	45.965313
2972.000000	46.060588
2971.000000	46.173416
2970.000000	46.298786
2969.000000	46.421365
2968.000000	46.513566
2967.000000	46.540909
2966.000000	46.474261
2965.000000	46.296662
2964.000000	45.999070
2963.000000	45.571282
2962.000000	45.006426
2961.000000	44.321282
2960.000000	43.581712
2959.000000	42.904650
2958.000000	42.420412
2957.000000	42.210299
2956.000000	42.265092
2955.000000	42.503151
2954.000000	42.826462
2953.000000	43.166212
2952.000000	43.488033
2951.000000	43.778473
2950.000000	44.035134
2949.000000	44.262687
2948.000000	44.468690
2947.000000	44.658337
2946.000000	44.830389
2945.000000	44.967650
2944.000000	45.031657
2943.000000	44.978238
2942.000000	44.794618
2941.000000	44.528917
2940.000000	44.285055
2939.000000	44.183273
2938.000000	44.308140
2937.000000	44.673440
2936.000000	45.220458
2935.000000	45.852840
2934.000000	46.482784
2933.000000	47.057675
2932.000000	47.558051
2931.000000	47.985076
2930.000000	48.351504
2929.000000	48.673658
2928.000000	48.964213
2927.000000	49.229473
2926.000000	49.473706
2925.000000	49.700982
2924.000000	49.912361
2923.000000	50.105409
2922.000000	50.278727
2921.000000	50.433759
2920.000000	50.571238
2919.000000	50.690480
2918.000000	50.792778
2917.000000	50.881868
2916.000000	50.959731
2915.000000	51.025368
2914.000000	51.079026
2913.000000	51.123653
2912.000000	51.161094
2911.000000	51.190287
2910.000000	51.210304
2909.000000	51.221791
2908.000000	51.223930
2907.000000	51.212538
2906.000000	51.182249
2905.000000	51.126705
2904.000000	51.035595
2903.000000	50.895263
2902.000000	50.696105
2901.000000	50.438219
2900.000000	50.132749
2899.000000	49.802961
2898.000000	49.484024
2897.000000	49.217300
2896.000000	49.036989
2895.000000	48.960225
2894.000000	48.987167
2893.000000	49.104455
2892.000000	49.288920
2891.000000	49.513354
2890.000000	49.754817
2889.000000	49.997640
2888.000000	50.230500
2887.000000	50.444481
2886.000000	50.634685
2885.000000	50.800534
2884.000000	50.941836
2883.000000	51.057654
2882.000000	51.148978
2881.000000	51.219335
2880.000000	51.271660
2879.000000	51.307064
2878.000000	51.327498
2877.000000	51.336730
2876.000000	51.338215
2875.000000	51.334853
2874.000000	51.331943
2873.000000	51.336630
2872.000000	51.353289
2871.000000	51.382802
2870.000000	51.427424
2869.000000	51.493554
2868.000000	51.587892
2867.000000	51.712893
2866.000000	51.866070
2865.000000	52.039995
2864.000000	52.221916
2863.000000	52.397611
2862.000000	52.558076
2861.000000	52.701172
2860.000000	52.827596
2859.000000	52.938612
2858.000000	53.038299
2857.000000	53.133880
2856.000000	53.231615
2855.000000	53.334509
2854.000000	53.444030
2853.000000	53.560213
2852.000000	53.678897
2851.000000	53.792302
2850.000000	53.894116
2849.000000	53.982266
2848.000000	54.057001
2847.000000	54.119844
2846.000000	54.175087
2845.000000	54.228642
2844.000000	54.283768
2843.000000	54.340080
2842.000000	54.397361
2841.000000	54.457573
2840.000000	54.522221
2839.000000	54.590684
2838.000000	54.662188
2837.000000	54.736826
2836.000000	54.813813
2835.000000	54.891198
2834.000000	54.968147
2833.000000	55.045419
2832.000000	55.123189
2831.000000	55.200857
2830.000000	55.279307
2829.000000	55.360577
2828.000000	55.444664
2827.000000	55.529227
2826.000000	55.612811
2825.000000	55.695624
2824.000000	55.776784
2823.000000	55.853763
2822.000000	55.925484
2821.000000	55.993305
2820.000000	56.058210
2819.000000	56.119686
2818.000000	56.178001
2817.000000	56.234824
2816.000000	56.290631
2815.000000	56.343867
2814.000000	56.393545
2813.000000	56.440295
2812.000000	56.484285
2811.000000	56.524770
2810.000000	56.562486
2809.000000	56.599989
2808.000000	56.638759
2807.000000	56.678249
2806.000000	56.718348
2805.000000	56.760288
2804.000000	56.804312
2803.000000	56.848967
2802.000000	56.893479
2801.000000	56.938516
2800.000000	56.984054
2799.000000	57.028955
2798.000000	57.073326
2797.000000	57.118814
2796.000000	57.165725
2795.000000	57.212162
2794.000000	57.256695
2793.000000	57.299635
2792.000000	57.341215
2791.000000	57.380976
2790.000000	57.419525
2789.000000	57.458424
2788.000000	57.497575
2787.000000	57.535014
2786.000000	57.569834
2785.000000	57.603036
2784.000000	57.635133
2783.000000	57.665588
2782.000000	57.695170
2781.000000	57.726204
2780.000000	57.759635
2779.000000	57.794246
2778.000000	57.829412
2777.000000	57.866101
2776.000000	57.904387
2775.000000	57.942407
2774.000000	57.978649
2773.000000	58.013093
2772.000000	58.045496
2771.000000	58.074982
2770.000000	58.101983
2769.000000	58.128266
2768.000000	58.154423
2767.000000	58.179492
2766.000000	58.203469
2765.000000	58.227619
2764.000000	58.251676
2763.000000	58.273448
2762.000000	58.292126
2761.000000	58.309785
2760.000000	58.328965
2759.000000	58.351001
2758.000000	58.377141
2757.000000	58.408603
2756.000000	58.444494
2755.000000	58.481876
2754.000000	58.518758
2753.000000	58.555135
2752.000000	58.590904
2751.000000	58.625255
2750.000000	58.658554
2749.000000	58.692158
2748.000000	58.725497
2747.000000	58.755486
2746.000000	58.779557
2745.000000	58.797169
2744.000000	58.808009
2743.000000	58.811565
2742.000000	58.809248
2741.000000	58.804500
2740.000000	58.800151
2739.000000	58.797856
2738.000000	58.800644
2737.000000	58.813550
2736.000000	58.840499
2735.000000	58.882323
2734.000000	58.938169
2733.000000	59.005918
2732.000000	59.080753
2731.000000	59.156224
2730.000000	59.227934
2729.000000	59.294784
2728.000000	59.356414
2727.000000	59.411834
2726.000000	59.461102
2725.000000	59.505552
2724.000000	59.545219
2723.000000	59.578370
2722.000000	59.604338
2721.000000	59.624641
2720.000000	59.641097
2719.000000	59.654998
2718.000000	59.668798
2717.000000	59.686132
2716.000000	59.708930
2715.000000	59.736457
2714.000000	59.767562
2713.000000	59.801580
2712.000000	59.836577
2711.000000	59.869306
2710.000000	59.897868
2709.000000	59.922419
2708.000000	59.942913
2707.000000	59.958502
2706.000000	59.969688
2705.000000	59.978663
2704.000000	59.986668
2703.000000	59.993218
2702.000000	59.998662
2701.000000	60.004978
2700.000000	60.013278
2699.000000	60.022739
2698.000000	60.032711
2697.000000	60.043742
2696.000000	60.055880
2695.000000	60.068218
2694.000000	60.080716
2693.000000	60.094166
2692.000000	60.107694
2691.000000	60.118733
2690.000000	60.126386
2689.000000	60.132698
2688.000000	60.139961
2687.000000	60.148908
2686.000000	60.160059
2685.000000	60.174206
2684.000000	60.190612
2683.000000	60.207055
2682.000000	60.222699
2681.000000	60.239138
2680.000000	60.257944
2679.000000	60.279282
2678.000000	60.303551
2677.000000	60.331886
2676.000000	60.364206
2675.000000	60.398671
2674.000000	60.433609
2673.000000	60.467993
2672.000000	60.499670
2671.000000	60.525630
2670.000000	60.545059
2669.000000	60.560265
2668.000000	60.574118
2667.000000	60.588706
2666.000000	60.606712
2665.000000	60.631301
2664.000000	60.663289
2663.000000	60.700256
2662.000000	60.739012
2661.000000	60.777010
2660.000000	60.811140
2659.000000	60.837871
2658.000000	60.855783
2657.000000	60.866375
2656.000000	60.871781
2655.000000	60.873584
2654.000000	60.874278
2653.000000	60.877255
2652.000000	60.884491
2651.000000	60.896171
2650.000000	60.913058
2649.000000	60.937017
2648.000000	60.968572
2647.000000	61.005845
2646.000000	61.046489
2645.000000	61.088848
2644.000000	61.130791
2643.000000	61.170119
2642.000000	61.206929
2641.000000	61.243495
2640.000000	61.281170
2639.000000	61.319098
2638.000000	61.356237
2637.000000	61.392336
2636.000000	61.426354
2635.000000	61.456107
2634.000000	61.480502
2633.000000	61.500326
2632.000000	61.516393
2631.000000	61.529002
2630.000000	61.539467
2629.000000	61.550157
2628.000000	61.562308
2627.000000	61.575581
2626.000000	61.590188
2625.000000	61.607191
2624.000000	61.626321
2623.000000	61.645593
2622.000000	61.663549
2621.000000	61.679893
2620.000000	61.693479
2619.000000	61.702035
2618.000000	61.704372
2617.000000	61.700840
2616.000000	61.691411
2615.000000	61.675249
2614.000000	61.652805
2613.000000	61.626166
2612.000000	61.596808
2611.000000	61.565519
2610.000000	61.534828
2609.000000	61.509084
2608.000000	61.491340
2607.000000	61.482166
2606.000000	61.481693
2605.000000	61.490629
2604.000000	61.508542
2603.000000	61.533509
2602.000000	61.564617
2601.000000	61.602051
2600.000000	61.644439
2599.000000	61.688317
2598.000000	61.730858
2597.000000	61.771475
2596.000000	61.810005
2595.000000	61.845748
2594.000000	61.878970
2593.000000	61.911141
2592.000000	61.942801
2591.000000	61.972992
2590.000000	62.001152
2589.000000	62.027599
2588.000000	62.051890
2587.000000	62.072764
2586.000000	62.090376
2585.000000	62.106630
2584.000000	62.122956
2583.000000	62.139884
2582.000000	62.158987
2581.000000	62.182750
2580.000000	62.211942
2579.000000	62.245226
2578.000000	62.281726
2577.000000	62.321924
2576.000000	62.365492
2575.000000	62.410645
2574.000000	62.456375
2573.000000	62.502962
2572.000000	62.549839
2571.000000	62.595017
2570.000000	62.637248
2569.000000	62.676802
2568.000000	62.713625
2567.000000	62.746832
2566.000000	62.776714
2565.000000	62.805376
2564.000000	62.834717
2563.000000	62.865525
2562.000000	62.898682
2561.000000	62.935142
2560.000000	62.974235
2559.000000	63.013869
2558.000000	63.052734
2557.000000	63.090529
2556.000000	63.126155
2555.000000	63.158068
2554.000000	63.186740
2553.000000	63.214545
2552.000000	63.242746
2551.000000	63.270618
2550.000000	63.297761
2549.000000	63.324760
2548.000000	63.351189
2547.000000	63.375244
2546.000000	63.395953
2545.000000	63.413926
2544.000000	63.429457
2543.000000	63.442191
2542.000000	63.453028
2541.000000	63.464034
2540.000000	63.476050
2539.000000	63.488296
2538.000000	63.500697
2537.000000	63.514202
2536.000000	63.528235
2535.000000	63.540290
2534.000000	63.548618
2533.000000	63.553380
2532.000000	63.554718
2531.000000	63.551968
2530.000000	63.545633
2529.000000	63.537757
2528.000000	63.529645
2527.000000	63.521122
2526.000000	63.512361
2525.000000	63.504423
2524.000000	63.497101
2523.000000	63.488275
2522.000000	63.476073
2521.000000	63.459618
2520.000000	63.437633
2519.000000	63.408411
2518.000000	63.371907
2517.000000	63.330043
2516.000000	63.284226
2515.000000	63.234973
2514.000000	63.184186
2513.000000	63.135573
2512.000000	63.092270
2511.000000	63.056191
2510.000000	63.029792
2509.000000	63.016009
2508.000000	63.015737
2507.000000	63.027090
2506.000000	63.048126
2505.000000	63.077437
2504.000000	63.112062
2503.000000	63.147797
2502.000000	63.182052
2501.000000	63.214799
2500.000000	63.246012
2499.000000	63.274530
2498.000000	63.300022
2497.000000	63.323450
2496.000000	63.344933
2495.000000	63.363481
2494.000000	63.379392
2493.000000	63.394551
2492.000000	63.409892
2491.000000	63.424773
2490.000000	63.439444
2489.000000	63.455742
2488.000000	63.474628
2487.000000	63.495338
2486.000000	63.517449
2485.000000	63.541344
2484.000000	63.565930
2483.000000	63.588379
2482.000000	63.607096
2481.000000	63.622967
2480.000000	63.637307
2479.000000	63.650887
2478.000000	63.665583
2477.000000	63.684240
2476.000000	63.707768
2475.000000	63.734337
2474.000000	63.762172
2473.000000	63.791336
2472.000000	63.822141
2471.000000	63.854119
2470.000000	63.887276
2469.000000	63.922127
2468.000000	63.957954
2467.000000	63.992931
2466.000000	64.026576
2465.000000	64.060073
2464.000000	64.093743
2463.000000	64.126470
2462.000000	64.158064
2461.000000	64.189923
2460.000000	64.222732
2459.000000	64.255683
2458.000000	64.288422
2457.000000	64.321451
2456.000000	64.354001
2455.000000	64.383705
2454.000000	64.409229
2453.000000	64.431119
2452.000000	64.449719
2451.000000	64.464677
2450.000000	64.477208
2449.000000	64.490659
2448.000000	64.507903
2447.000000	64.530004
2446.000000	64.557768
2445.000000	64.592141
2444.000000	64.632030
2443.000000	64.673889
2442.000000	64.714335
2441.000000	64.751479
2440.000000	64.783466
2439.000000	64.808209
2438.000000	64.825551
2437.000000	64.837729
2436.000000	64.847064
2435.000000	64.854627
2434.000000	64.861558
2433.000000	64.869197
2432.000000	64.877003
2431.000000	64.882649
2430.000000	64.884677
2429.000000	64.883453
2428.000000	64.879010
2427.000000	64.870098
2426.000000	64.856245
2425.000000	64.838510
2424.000000	64.817879
2423.000000	64.795078
2422.000000	64.772551
2421.000000	64.754231
2420.000000	64.742365
2419.000000	64.736507
2418.000000	64.736142
2417.000000	64.741971
2416.000000	64.753616
2415.000000	64.768473
2414.000000	64.783589
2413.000000	64.796573
2412.000000	64.804052
2411.000000	64.801946
2410.000000	64.788556
2409.000000	64.765631
2408.000000	64.735799
2407.000000	64.700632
2406.000000	64.662110
2405.000000	64.622994
2404.000000	64.584460
2403.000000	64.545519
2402.000000	64.505633
2401.000000	64.466213
2400.000000	64.428494
2399.000000	64.392037
2398.000000	64.356302
2397.000000	64.321311
2396.000000	64.285737
2395.000000	64.246365
2394.000000	64.200405
2393.000000	64.146962
2392.000000	64.085404
2391.000000	64.015384
2390.000000	63.939831
2389.000000	63.865387
2388.000000	63.799455
2387.000000	63.747463
2386.000000	63.714249
2385.000000	63.705009
2384.000000	63.721839
2383.000000	63.762104
2382.000000	63.819526
2381.000000	63.885898
2380.000000	63.950816
2379.000000	64.002162
2378.000000	64.031520
2377.000000	64.037332
2376.000000	64.022563
2375.000000	63.992020
2374.000000	63.953708
2373.000000	63.918363
2372.000000	63.893659
2371.000000	63.880447
2370.000000	63.876372
2369.000000	63.882233
2368.000000	63.897948
2367.000000	63.918789
2366.000000	63.941491
2365.000000	63.969461
2364.000000	64.007321
2363.000000	64.053460
2362.000000	64.105965
2361.000000	64.161211
2360.000000	64.210535
2359.000000	64.245961
2358.000000	64.262238
2357.000000	64.261267
2356.000000	64.243264
2355.000000	64.210611
2354.000000	64.171527
2353.000000	64.141431
2352.000000	64.146595
2351.000000	64.199142
2350.000000	64.292525
2349.000000	64.407369
2348.000000	64.520285
2347.000000	64.600747
2346.000000	64.609248
2345.000000	64.547770
2344.000000	64.460828
2343.000000	64.395640
2342.000000	64.369329
2341.000000	64.372604
2340.000000	64.392124
2339.000000	64.413049
2338.000000	64.429507
2337.000000	64.442378
2336.000000	64.459028
2335.000000	64.486007
2334.000000	64.524846
2333.000000	64.560488
2332.000000	64.572991
2331.000000	64.546824
2330.000000	64.493880
2329.000000	64.438293
2328.000000	64.398345
2327.000000	64.382717
2326.000000	64.384653
2325.000000	64.395436
2324.000000	64.397006
2323.000000	64.377028
2322.000000	64.332418
2321.000000	64.267741
2320.000000	64.193346
2319.000000	64.119100
2318.000000	64.060274
2317.000000	64.023631
2316.000000	64.004480
2315.000000	63.985319
2314.000000	63.951466
2313.000000	63.896113
2312.000000	63.820503
2311.000000	63.730543
2310.000000	63.634535
2309.000000	63.541045
2308.000000	63.454395
2307.000000	63.377950
2306.000000	63.315580
2305.000000	63.270681
2304.000000	63.240153
2303.000000	63.214563
2302.000000	63.183888
2301.000000	63.140401
2300.000000	63.078703
2299.000000	62.996036
2298.000000	62.894827
2297.000000	62.782039
2296.000000	62.664911
2295.000000	62.551114
2294.000000	62.449862
2293.000000	62.371995
2292.000000	62.323774
2291.000000	62.306560
2290.000000	62.317966
2289.000000	62.353574
2288.000000	62.405535
2287.000000	62.465890
2286.000000	62.530839
2285.000000	62.601286
2284.000000	62.678344
2283.000000	62.762161
2282.000000	62.853640
2281.000000	62.953621
2280.000000	63.059874
2279.000000	63.167134
2278.000000	63.271656
2277.000000	63.372295
2276.000000	63.468692
2275.000000	63.560350
2274.000000	63.648463
2273.000000	63.734979
2272.000000	63.819686
2271.000000	63.900950
2270.000000	63.979244
2269.000000	64.057569
2268.000000	64.138266
2267.000000	64.222356
2266.000000	64.312009
2265.000000	64.410568
2264.000000	64.519113
2263.000000	64.635432
2262.000000	64.755653
2261.000000	64.875284
2260.000000	64.988515
2259.000000	65.090342
2258.000000	65.180110
2257.000000	65.261086
2256.000000	65.337239
2255.000000	65.411764
2254.000000	65.488726
2253.000000	65.571864
2252.000000	65.661663
2251.000000	65.755011
2250.000000	65.848383
2249.000000	65.938690
2248.000000	66.022316
2247.000000	66.096291
2246.000000	66.160580
2245.000000	66.218000
2244.000000	66.271013
2243.000000	66.321031
2242.000000	66.369826
2241.000000	66.419049
2240.000000	66.467400
2239.000000	66.510749
2238.000000	66.545360
2237.000000	66.569384
2236.000000	66.582113
2235.000000	66.584366
2234.000000	66.580064
2233.000000	66.574744
2232.000000	66.571908
2231.000000	66.572563
2230.000000	66.577705
2229.000000	66.588480
2228.000000	66.603747
2227.000000	66.620361
2226.000000	66.636461
2225.000000	66.652242
2224.000000	66.667386
2223.000000	66.680300
2222.000000	66.690123
2221.000000	66.697006
2220.000000	66.700031
2219.000000	66.697412
2218.000000	66.689405
2217.000000	66.679064
2216.000000	66.669937
2215.000000	66.665173
2214.000000	66.668849
2213.000000	66.685053
2212.000000	66.714587
2211.000000	66.754180
2210.000000	66.799039
2209.000000	66.844097
2208.000000	66.883314
2207.000000	66.911110
2206.000000	66.925598
2205.000000	66.928813
2204.000000	66.923603
2203.000000	66.912422
2202.000000	66.899073
2201.000000	66.888947
2200.000000	66.886502
2199.000000	66.894041
2198.000000	66.912471
2197.000000	66.940683
2196.000000	66.974247
2195.000000	67.007545
2194.000000	67.038074
2193.000000	67.066987
2192.000000	67.095829
2191.000000	67.125115
2190.000000	67.155792
2189.000000	67.188998
2188.000000	67.223738
2187.000000	67.257225
2186.000000	67.287958
2185.000000	67.316430
2184.000000	67.342909
2183.000000	67.367066
2182.000000	67.389958
2181.000000	67.413729
2180.000000	67.438815
2179.000000	67.463548
2178.000000	67.486715
2177.000000	67.508255
2176.000000	67.527471
2175.000000	67.543227
2174.000000	67.556415
2173.000000	67.569931
2172.000000	67.585749
2171.000000	67.604021
2170.000000	67.624939
2169.000000	67.648860
2168.000000	67.674284
2167.000000	67.698350
2166.000000	67.720022
2165.000000	67.740698
2164.000000	67.761515
2163.000000	67.782429
2162.000000	67.804198
2161.000000	67.828726
2160.000000	67.856688
2159.000000	67.886783
2158.000000	67.917528
2157.000000	67.947719
2156.000000	67.975028
2155.000000	67.996621
2154.000000	68.011837
2153.000000	68.022449
2152.000000	68.030210
2151.000000	68.036095
2150.000000	68.041749
2149.000000	68.049009
2148.000000	68.057392
2147.000000	68.064091
2146.000000	68.066671
2145.000000	68.063895
2144.000000	68.054287
2143.000000	68.036680
2142.000000	68.012753
2141.000000	67.987013
2140.000000	67.963849
2139.000000	67.946223
2138.000000	67.936818
2137.000000	67.937587
2136.000000	67.947705
2135.000000	67.964191
2134.000000	67.984745
2133.000000	68.007895
2132.000000	68.030875
2131.000000	68.050191
2130.000000	68.064609
2129.000000	68.075285
2128.000000	68.082798
2127.000000	68.086548
2126.000000	68.087197
2125.000000	68.087094
2124.000000	68.087920
2123.000000	68.090242
2122.000000	68.095426
2121.000000	68.105457
2120.000000	68.120524
2119.000000	68.138885
2118.000000	68.159049
2117.000000	68.179765
2116.000000	68.198157
2115.000000	68.210800
2114.000000	68.217166
2113.000000	68.219779
2112.000000	68.220870
2111.000000	68.221200
2110.000000	68.221911
2109.000000	68.224587
2108.000000	68.229085
2107.000000	68.233780
2106.000000	68.238376
2105.000000	68.244192
2104.000000	68.251650
2103.000000	68.259986
2102.000000	68.269544
2101.000000	68.281729
2100.000000	68.296291
2099.000000	68.311082
2098.000000	68.324423
2097.000000	68.335091
2096.000000	68.340056
2095.000000	68.335328
2094.000000	68.319714
2093.000000	68.295681
2092.000000	68.266940
2091.000000	68.238012
2090.000000	68.216187
2089.000000	68.210072
2088.000000	68.224534
2087.000000	68.258827
2086.000000	68.309060
2085.000000	68.369642
2084.000000	68.433060
2083.000000	68.491937
2082.000000	68.542478
2081.000000	68.584318
2080.000000	68.617238
2079.000000	68.640732
2078.000000	68.656495
2077.000000	68.667761
2076.000000	68.675717
2075.000000	68.679027
2074.000000	68.676774
2073.000000	68.669270
2072.000000	68.656068
2071.000000	68.636250
2070.000000	68.611474
2069.000000	68.585513
2068.000000	68.559716
2067.000000	68.531514
2066.000000	68.498124
2065.000000	68.459516
2064.000000	68.416808
2063.000000	68.370513
2062.000000	68.321514
2061.000000	68.271415
2060.000000	68.221291
2059.000000	68.172054
2058.000000	68.126070
2057.000000	68.085806
2056.000000	68.050682
2055.000000	68.017705
2054.000000	67.985298
2053.000000	67.953948
2052.000000	67.923594
2051.000000	67.893811
2050.000000	67.866845
2049.000000	67.847067
2048.000000	67.836319
2047.000000	67.832646
2046.000000	67.834195
2045.000000	67.840478
2044.000000	67.848988
2043.000000	67.854748
2042.000000	67.855269
2041.000000	67.853508
2040.000000	67.854602
2039.000000	67.862684
2038.000000	67.881427
2037.000000	67.913573
2036.000000	67.958377
2035.000000	68.011805
2034.000000	68.070087
2033.000000	68.130694
2032.000000	68.190041
2031.000000	68.244134
2030.000000	68.292225
2029.000000	68.336676
2028.000000	68.378997
2027.000000	68.418811
2026.000000	68.456922
2025.000000	68.495803
2024.000000	68.536196
2023.000000	68.576478
2022.000000	68.616337
2021.000000	68.657785
2020.000000	68.701175
2019.000000	68.743901
2018.000000	68.784730
2017.000000	68.826483
2016.000000	68.872690
2015.000000	68.924175
2014.000000	68.980028
2013.000000	69.038888
2012.000000	69.098047
2011.000000	69.154581
2010.000000	69.208765
2009.000000	69.263624
2008.000000	69.320743
2007.000000	69.379204
2006.000000	69.438627
2005.000000	69.499559
2004.000000	69.560184
2003.000000	69.616229
2002.000000	69.665126
2001.000000	69.707736
2000.000000	69.745424
1999.000000	69.778859
1998.000000	69.810018
1997.000000	69.842867
1996.000000	69.880028
1995.000000	69.918794
1994.000000	69.951895
1993.000000	69.972087
1992.000000	69.977344
1991.000000	69.972384
1990.000000	69.964833
1989.000000	69.960710
1988.000000	69.963484
1987.000000	69.975784
1986.000000	70.000813
1985.000000	70.040768
1984.000000	70.093773
1983.000000	70.154503
1982.000000	70.217665
1981.000000	70.279885
1980.000000	70.339027
1979.000000	70.393745
1978.000000	70.444276
1977.000000	70.492821
1976.000000	70.542538
1975.000000	70.595546
1974.000000	70.652001
1973.000000	70.710375
1972.000000	70.768241
1971.000000	70.822457
1970.000000	70.868494
1969.000000	70.900603
1968.000000	70.913920
1967.000000	70.908489
1966.000000	70.890793
1965.000000	70.868422
1964.000000	70.844334
1963.000000	70.817017
1962.000000	70.784829
1961.000000	70.749575
1960.000000	70.715889
1959.000000	70.688626
1958.000000	70.671404
1957.000000	70.666293
1956.000000	70.673436
1955.000000	70.691043
1954.000000	70.716302
1953.000000	70.746333
1952.000000	70.778817
1951.000000	70.812499
1950.000000	70.847989
1949.000000	70.886971
1948.000000	70.930511
1947.000000	70.979484
1946.000000	71.034539
1945.000000	71.093308
1944.000000	71.148146
1943.000000	71.190720
1942.000000	71.220942
1941.000000	71.246103
1940.000000	71.271008
1939.000000	71.294539
1938.000000	71.313454
1937.000000	71.326008
1936.000000	71.332664
1935.000000	71.334136
1934.000000	71.330610
1933.000000	71.322173
1932.000000	71.308350
1931.000000	71.289110
1930.000000	71.266366
1929.000000	71.242923
1928.000000	71.221086
1927.000000	71.204528
1926.000000	71.197331
1925.000000	71.198369
1924.000000	71.199114
1923.000000	71.193258
1922.000000	71.186643
1921.000000	71.188042
1920.000000	71.196652
1919.000000	71.204067
1918.000000	71.205518
1917.000000	71.204741
1916.000000	71.204494
1915.000000	71.203351
1914.000000	71.202077
1913.000000	71.201944
1912.000000	71.200030
1911.000000	71.191965
1910.000000	71.178862
1909.000000	71.166914
1908.000000	71.160478
1907.000000	71.161154
1906.000000	71.171013
1905.000000	71.190799
1904.000000	71.216671
1903.000000	71.244847
1902.000000	71.278296
1901.000000	71.322181
1900.000000	71.376422
1899.000000	71.438157
1898.000000	71.506584
1897.000000	71.579682
1896.000000	71.649976
1895.000000	71.711457
1894.000000	71.768116
1893.000000	71.826560
1892.000000	71.884499
1891.000000	71.932596
1890.000000	71.966269
1889.000000	71.992236
1888.000000	72.019216
1887.000000	72.049300
1886.000000	72.082232
1885.000000	72.117232
1884.000000	72.151433
1883.000000	72.183785
1882.000000	72.218022
1881.000000	72.257069
1880.000000	72.297573
1879.000000	72.334054
1878.000000	72.364963
1877.000000	72.390206
1876.000000	72.405811
1875.000000	72.407341
1874.000000	72.396991
1873.000000	72.382144
1872.000000	72.367716
1871.000000	72.354689
1870.000000	72.344488
1869.000000	72.343403
1868.000000	72.360069
1867.000000	72.397339
1866.000000	72.453058
1865.000000	72.521554
1864.000000	72.590872
1863.000000	72.648552
1862.000000	72.691865
1861.000000	72.726831
1860.000000	72.757884
1859.000000	72.786520
1858.000000	72.817417
1857.000000	72.855674
1856.000000	72.899007
1855.000000	72.940859
1854.000000	72.978872
1853.000000	73.015197
1852.000000	73.050949
1851.000000	73.086677
1850.000000	73.124027
1849.000000	73.161679
1848.000000	73.195006
1847.000000	73.223257
1846.000000	73.252288
1845.000000	73.284066
1844.000000	73.314675
1843.000000	73.343387
1842.000000	73.372794
1841.000000	73.407976
1840.000000	73.451974
1839.000000	73.498278
1838.000000	73.536802
1837.000000	73.564718
1836.000000	73.586240
1835.000000	73.605879
1834.000000	73.627090
1833.000000	73.653678
1832.000000	73.688111
1831.000000	73.725935
1830.000000	73.762703
1829.000000	73.805503
1828.000000	73.860043
1827.000000	73.919470
1826.000000	73.973248
1825.000000	74.016016
1824.000000	74.050927
1823.000000	74.083251
1822.000000	74.117668
1821.000000	74.160339
1820.000000	74.212662
1819.000000	74.268106
1818.000000	74.320634
1817.000000	74.371989
1816.000000	74.424538
1815.000000	74.472370
1814.000000	74.507197
1813.000000	74.525976
1812.000000	74.529456
1811.000000	74.519939
1810.000000	74.506330
1809.000000	74.501584
1808.000000	74.508850
1807.000000	74.522379
1806.000000	74.540463
1805.000000	74.564873
1804.000000	74.589330
1803.000000	74.599019
1802.000000	74.587560
1801.000000	74.568084
1800.000000	74.558968
1799.000000	74.564925
1798.000000	74.579580
1797.000000	74.595958
1796.000000	74.609043
1795.000000	74.619001
1794.000000	74.630585
1793.000000	74.645106
1792.000000	74.659796
1791.000000	74.675955
1790.000000	74.700559
1789.000000	74.740338
1788.000000	74.792352
1787.000000	74.842255
1786.000000	74.877526
1785.000000	74.899053
1784.000000	74.915058
1783.000000	74.927988
1782.000000	74.936865
1781.000000	74.944397
1780.000000	74.958443
1779.000000	74.987558
1778.000000	75.031942
1777.000000	75.083598
1776.000000	75.132509
1775.000000	75.175832
1774.000000	75.215736
1773.000000	75.249905
1772.000000	75.279293
1771.000000	75.308757
1770.000000	75.337181
1769.000000	75.369003
1768.000000	75.415426
1767.000000	75.475550
1766.000000	75.536480
1765.000000	75.590189
1764.000000	75.637811
1763.000000	75.672531
1762.000000	75.682781
1761.000000	75.676020
1760.000000	75.667821
1759.000000	75.660905
1758.000000	75.650701
1757.000000	75.637061
1756.000000	75.631227
1755.000000	75.640364
1754.000000	75.658551
1753.000000	75.683200
1752.000000	75.714736
1751.000000	75.748429
1750.000000	75.773853
1749.000000	75.784902
1748.000000	75.791295
1747.000000	75.805648
1746.000000	75.824374
1745.000000	75.834929
1744.000000	75.835862
1743.000000	75.836524
1742.000000	75.846481
1741.000000	75.873916
1740.000000	75.923459
1739.000000	75.985481
1738.000000	76.037737
1737.000000	76.073942
1736.000000	76.112140
1735.000000	76.153835
1734.000000	76.185525
1733.000000	76.213277
1732.000000	76.231734
1731.000000	76.236447
1730.000000	76.246268
1729.000000	76.272423
1728.000000	76.315440
1727.000000	76.368509
1726.000000	76.423214
1725.000000	76.469907
1724.000000	76.503626
1723.000000	76.526052
1722.000000	76.540870
1721.000000	76.553280
1720.000000	76.572548
1719.000000	76.597323
1718.000000	76.615356
1717.000000	76.639136
1716.000000	76.678084
1715.000000	76.719124
1714.000000	76.767790
1713.000000	76.832024
1712.000000	76.898394
1711.000000	76.950947
1710.000000	76.989311
1709.000000	77.020731
1708.000000	77.047254
1707.000000	77.068960
1706.000000	77.091381
1705.000000	77.123973
1704.000000	77.158298
1703.000000	77.185349
1702.000000	77.228625
1701.000000	77.313667
1700.000000	77.426519
1699.000000	77.515773
1698.000000	77.553426
1697.000000	77.576331
1696.000000	77.627428
1695.000000	77.702533
1694.000000	77.765970
1693.000000	77.803549
1692.000000	77.843342
1691.000000	77.903073
1690.000000	77.968366
1689.000000	78.018505
1688.000000	78.052105
1687.000000	78.087247
1686.000000	78.143164
1685.000000	78.194733
1684.000000	78.218047
1683.000000	78.247820
1682.000000	78.280458
1681.000000	78.291703
1680.000000	78.296591
1679.000000	78.305885
1678.000000	78.321270
1677.000000	78.336924
1676.000000	78.354309
1675.000000	78.382529
1674.000000	78.416618
1673.000000	78.429065
1672.000000	78.416205
1671.000000	78.399537
1670.000000	78.386627
1669.000000	78.373877
1668.000000	78.360805
1667.000000	78.350549
1666.000000	78.345235
1665.000000	78.345024
1664.000000	78.349242
1663.000000	78.361415
1662.000000	78.383578
1661.000000	78.395186
1660.000000	78.376258
1659.000000	78.335716
1658.000000	78.282838
1657.000000	78.205086
1656.000000	78.093053
1655.000000	77.962738
1654.000000	77.786856
1653.000000	77.572842
1652.000000	77.399746
1651.000000	77.208648
1650.000000	76.926249
1649.000000	76.538350
1648.000000	75.943271
1647.000000	75.049697
1646.000000	73.904924
1645.000000	72.603894
1644.000000	71.122099
1643.000000	69.380557
1642.000000	67.335837
1641.000000	65.033968
1640.000000	62.645284
1639.000000	60.377599
1638.000000	58.353000
1637.000000	56.625670
1636.000000	55.356823
1635.000000	54.805457
1634.000000	54.973394
1633.000000	55.616523
1632.000000	56.546274
1631.000000	57.670514
1630.000000	58.938057
1629.000000	60.309356
1628.000000	61.732118
1627.000000	63.119787
1626.000000	64.420232
1625.000000	65.687694
1624.000000	67.005906
1623.000000	68.341538
1622.000000	69.545107
1621.000000	70.525502
1620.000000	71.325823
1619.000000	72.038345
1618.000000	72.721172
1617.000000	73.376947
1616.000000	73.953185
1615.000000	74.371245
1614.000000	74.608843
1613.000000	74.719034
1612.000000	74.753081
1611.000000	74.703128
1610.000000	74.516833
1609.000000	74.159880
1608.000000	73.621555
1607.000000	72.871561
1606.000000	71.845315
1605.000000	70.449576
1604.000000	68.575586
1603.000000	66.104820
1602.000000	62.984485
1601.000000	59.367353
1600.000000	55.681616
1599.000000	52.511878
1598.000000	50.291361
1597.000000	49.063272
1596.000000	48.555033
1595.000000	48.458092
1594.000000	48.582989
1593.000000	48.839682
1592.000000	49.185538
1591.000000	49.612116
1590.000000	50.157943
1589.000000	50.860883
1588.000000	51.680887
1587.000000	52.465708
1586.000000	53.024880
1585.000000	53.275343
1584.000000	53.299652
1583.000000	53.246380
1582.000000	53.188117
1581.000000	53.102013
1580.000000	52.943697
1579.000000	52.671791
1578.000000	52.198398
1577.000000	51.384009
1576.000000	50.235581
1575.000000	49.016664
1574.000000	47.940339
1573.000000	46.986603
1572.000000	46.073747
1571.000000	45.173832
1570.000000	44.326360
1569.000000	43.623269
1568.000000	43.151204
1567.000000	42.936494
1566.000000	42.938810
1565.000000	43.084365
1564.000000	43.330865
1563.000000	43.678507
1562.000000	44.142364
1561.000000	44.757474
1560.000000	45.633143
1559.000000	46.830255
1558.000000	48.091977
1557.000000	49.086155
1556.000000	49.827167
1555.000000	50.498341
1554.000000	51.149539
1553.000000	51.720815
1552.000000	52.173984
1551.000000	52.568206
1550.000000	52.974850
1549.000000	53.419185
1548.000000	53.905524
1547.000000	54.464039
1546.000000	55.124679
1545.000000	55.856609
1544.000000	56.591044
1543.000000	57.304336
1542.000000	58.034229
1541.000000	58.809877
1540.000000	59.613442
1539.000000	60.394499
1538.000000	61.070572
1537.000000	61.608601
1536.000000	62.082998
1535.000000	62.593580
1534.000000	63.176957
1533.000000	63.775174
1532.000000	64.319849
1531.000000	64.808129
1530.000000	65.272541
1529.000000	65.722912
1528.000000	66.147989
1527.000000	66.545814
1526.000000	66.917331
1525.000000	67.251895
1524.000000	67.553287
1523.000000	67.856311
1522.000000	68.176745
1521.000000	68.485951
1520.000000	68.755949
1519.000000	68.992358
1518.000000	69.215919
1517.000000	69.425919
1516.000000	69.617268
1515.000000	69.804604
1514.000000	69.998422
1513.000000	70.200377
1512.000000	70.408836
1511.000000	70.620437
1510.000000	70.825993
1509.000000	71.019663
1508.000000	71.194385
1507.000000	71.362569
1506.000000	71.593371
1505.000000	71.862265
1504.000000	72.075375
1503.000000	72.244608
1502.000000	72.407035
1501.000000	72.568241
1500.000000	72.724997
1499.000000	72.887523
1498.000000	73.059531
1497.000000	73.232263
1496.000000	73.408087
1495.000000	73.587325
1494.000000	73.750625
1493.000000	73.886686
1492.000000	74.010641
1491.000000	74.137139
1490.000000	74.255052
1489.000000	74.356633
1488.000000	74.460385
1487.000000	74.583809
1486.000000	74.713072
1485.000000	74.810311
1484.000000	74.855593
1483.000000	74.848938
1482.000000	74.772285
1481.000000	74.598215
1480.000000	74.326248
1479.000000	73.950421
1478.000000	73.401821
1477.000000	72.595286
1476.000000	71.531896
1475.000000	70.274281
1474.000000	68.828005
1473.000000	67.210782
1472.000000	65.652414
1471.000000	64.439990
1470.000000	63.621454
1469.000000	63.098488
1468.000000	62.823791
1467.000000	62.823475
1466.000000	63.140919
1465.000000	63.754008
1464.000000	64.521931
1463.000000	65.243727
1462.000000	65.783851
1461.000000	66.111205
1460.000000	66.239503
1459.000000	66.162268
1458.000000	65.806639
1457.000000	65.175217
1456.000000	64.497149
1455.000000	63.950135
1454.000000	63.485251
1453.000000	63.007188
1452.000000	62.460227
1451.000000	61.792580
1450.000000	60.902638
1449.000000	59.694898
1448.000000	58.255725
1447.000000	56.927146
1446.000000	56.093926
1445.000000	55.954801
1444.000000	56.509319
1443.000000	57.610086
1442.000000	59.012168
1441.000000	60.472714
1440.000000	61.846368
1439.000000	63.107860
1438.000000	64.304447
1437.000000	65.466112
1436.000000	66.541995
1435.000000	67.458578
1434.000000	68.231420
1433.000000	68.941950
1432.000000	69.630436
1431.000000	70.270741
1430.000000	70.830115
1429.000000	71.312585
1428.000000	71.731642
1427.000000	72.090958
1426.000000	72.402564
1425.000000	72.680394
1424.000000	72.924898
1423.000000	73.135045
1422.000000	73.328582
1421.000000	73.534183
1420.000000	73.756769
1419.000000	73.970881
1418.000000	74.165463
1417.000000	74.356247
1416.000000	74.551417
1415.000000	74.745269
1414.000000	74.928379
1413.000000	75.093732
1412.000000	75.236205
1411.000000	75.357328
1410.000000	75.472595
1409.000000	75.603699
1408.000000	75.757457
1407.000000	75.923462
1406.000000	76.090915
1405.000000	76.252552
1404.000000	76.396040
1403.000000	76.503274
1402.000000	76.557744
1401.000000	76.538387
1400.000000	76.412372
1399.000000	76.179737
1398.000000	75.915310
1397.000000	75.715748
1396.000000	75.622435
1395.000000	75.605975
1394.000000	75.591522
1393.000000	75.511492
1392.000000	75.356210
1391.000000	75.177565
1390.000000	75.051428
1389.000000	75.035908
1388.000000	75.154573
1387.000000	75.403014
1386.000000	75.754904
1385.000000	76.164720
1384.000000	76.585110
1383.000000	76.983937
1382.000000	77.350019
1381.000000	77.686110
1380.000000	77.989431
1379.000000	78.244359
1378.000000	78.431977
1377.000000	78.521560
1376.000000	78.426820
1375.000000	77.970964
1374.000000	76.907946
1373.000000	75.009018
1372.000000	72.163537
1371.000000	68.487146
1370.000000	64.452655
1369.000000	60.907063
1368.000000	58.747410
1367.000000	58.360215
1366.000000	59.409628
1365.000000	61.160744
1364.000000	62.868862
1363.000000	63.993074
1362.000000	64.355910
1361.000000	64.220876
1360.000000	64.118831
1359.000000	64.530752
1358.000000	65.652156
1357.000000	67.327896
1356.000000	69.193663
1355.000000	70.913803
1354.000000	72.329045
1353.000000	73.439773
1352.000000	74.304177
1351.000000	74.977603
1350.000000	75.509548
1349.000000	75.942544
1348.000000	76.305986
1347.000000	76.623611
1346.000000	76.921147
1345.000000	77.215840
1344.000000	77.507485
1343.000000	77.786966
1342.000000	78.050213
1341.000000	78.292779
1340.000000	78.502241
1339.000000	78.674971
1338.000000	78.829135
1337.000000	78.986835
1336.000000	79.151307
1335.000000	79.309233
1334.000000	79.443391
1333.000000	79.523958
1332.000000	79.494482
1331.000000	79.284946
1330.000000	78.845963
1329.000000	78.168189
1328.000000	77.257237
1327.000000	76.101715
1326.000000	74.684136
1325.000000	73.052351
1324.000000	71.408245
1323.000000	70.075519
1322.000000	69.292997
1321.000000	69.003890
1320.000000	68.872255
1319.000000	68.554501
1318.000000	67.995147
1317.000000	67.450487
1316.000000	67.232798
1315.000000	67.450623
1314.000000	67.970886
1313.000000	68.608112
1312.000000	69.316760
1311.000000	70.186577
1310.000000	71.277937
1309.000000	72.498314
1308.000000	73.652139
1307.000000	74.580313
1306.000000	75.234305
1305.000000	75.632914
1304.000000	75.792786
1303.000000	75.710593
1302.000000	75.380613
1301.000000	74.817338
1300.000000	74.080058
1299.000000	73.297161
1298.000000	72.624664
1297.000000	72.128456
1296.000000	71.710367
1295.000000	71.183992
1294.000000	70.449926
1293.000000	69.590155
1292.000000	68.784002
1291.000000	68.124732
1290.000000	67.514501
1289.000000	66.751460
1288.000000	65.733868
1287.000000	64.597435
1286.000000	63.652757
1285.000000	63.186118
1284.000000	63.305526
1283.000000	63.930994
1282.000000	64.895158
1281.000000	66.039223
1280.000000	67.217832
1279.000000	68.230926
1278.000000	68.789069
1277.000000	68.596497
1276.000000	67.534655
1275.000000	65.817564
1274.000000	63.981011
1273.000000	62.674972
1272.000000	62.370471
1271.000000	63.153093
1270.000000	64.741221
1269.000000	66.696652
1268.000000	68.647242
1267.000000	70.389951
1266.000000	71.862608
1265.000000	73.080076
1264.000000	74.088558
1263.000000	74.935008
1262.000000	75.649754
1261.000000	76.248355
1260.000000	76.743072
1259.000000	77.149152
1258.000000	77.488811
1257.000000	77.784636
1256.000000	78.055519
1255.000000	78.316670
1254.000000	78.576399
1253.000000	78.834497
1252.000000	79.083324
1251.000000	79.314785
1250.000000	79.525808
1249.000000	79.717492
1248.000000	79.894389
1247.000000	80.065593
1246.000000	80.242287
1245.000000	80.430434
1244.000000	80.626226
1243.000000	80.820143
1242.000000	81.001558
1241.000000	81.158485
1240.000000	81.279123
1239.000000	81.358287
1238.000000	81.401586
1237.000000	81.418721
1236.000000	81.415679
1235.000000	81.396056
1234.000000	81.361549
1233.000000	81.307992
1232.000000	81.223335
1231.000000	81.093886
1230.000000	80.912236
1229.000000	80.673503
1228.000000	80.372143
1227.000000	80.003730
1226.000000	79.562382
1225.000000	79.035324
1224.000000	78.394354
1223.000000	77.601213
1222.000000	76.613598
1221.000000	75.384511
1220.000000	73.880784
1219.000000	72.102824
1218.000000	70.095501
1217.000000	67.942596
1216.000000	65.755401
1215.000000	63.659780
1214.000000	61.770180
1213.000000	60.167595
1212.000000	58.902025
1211.000000	58.009615
1210.000000	57.503818
1209.000000	57.376460
1208.000000	57.603516
1207.000000	58.128498
1206.000000	58.847867
1205.000000	59.613849
1204.000000	60.278741
1203.000000	60.740560
1202.000000	60.961676
1201.000000	60.976338
1200.000000	60.887411
1199.000000	60.842293
1198.000000	60.981661
1197.000000	61.388843
1196.000000	62.076949
1195.000000	63.004034
1194.000000	64.099703
1193.000000	65.292524
1192.000000	66.524852
1191.000000	67.757766
1190.000000	68.962896
1189.000000	70.116498
1188.000000	71.200272
1187.000000	72.203583
1186.000000	73.122362
1185.000000	73.958269
1184.000000	74.717470
1183.000000	75.405451
1182.000000	76.025608
1181.000000	76.575249
1180.000000	77.050108
1179.000000	77.453835
1178.000000	77.795970
1177.000000	78.085460
1176.000000	78.324074
1175.000000	78.511244
1174.000000	78.649303
1173.000000	78.733384
1172.000000	78.746316
1171.000000	78.657707
1170.000000	78.426540
1169.000000	78.005977
1168.000000	77.352217
1167.000000	76.456297
1166.000000	75.370878
1165.000000	74.213983
1164.000000	73.150415
1163.000000	72.354454
1162.000000	71.952488
1161.000000	71.980083
1160.000000	72.383169
1159.000000	73.047684
1158.000000	73.846132
1157.000000	74.666283
1156.000000	75.427295
1155.000000	76.086092
1154.000000	76.628417
1153.000000	77.053407
1152.000000	77.361804
1151.000000	77.554039
1150.000000	77.626739
1149.000000	77.572755
1148.000000	77.374910
1147.000000	77.011439
1146.000000	76.458459
1145.000000	75.674419
1144.000000	74.605656
1143.000000	73.195553
1142.000000	71.408642
1141.000000	69.262989
1140.000000	66.854035
1139.000000	64.357595
1138.000000	61.962501
1137.000000	59.777144
1136.000000	57.789702
1135.000000	55.914456
1134.000000	54.085057
1133.000000	52.361617
1132.000000	50.980104
1131.000000	50.266681
1130.000000	50.461928
1129.000000	51.546598
1128.000000	53.210983
1127.000000	54.947908
1126.000000	56.185075
1125.000000	56.410955
1124.000000	55.316369
1123.000000	52.943111
1122.000000	49.746540
1121.000000	46.451124
1120.000000	43.704809
1119.000000	41.773458
1118.000000	40.530204
1117.000000	39.778707
1116.000000	39.575147
1115.000000	40.228246
1114.000000	41.960614
1113.000000	44.620471
1112.000000	47.714329
1111.000000	50.635675
1110.000000	52.905927
1109.000000	54.309166
1108.000000	54.892797
1107.000000	54.825694
1106.000000	54.226669
1105.000000	53.127390
1104.000000	51.665659
1103.000000	50.270271
1102.000000	49.499452
1101.000000	49.618544
1100.000000	50.371478
1099.000000	51.233555
1098.000000	51.907299
1097.000000	52.566375
1096.000000	53.616099
1095.000000	55.294493
1094.000000	57.494187
1093.000000	59.891532
1092.000000	62.180871
1091.000000	64.194904
1090.000000	65.901319
1089.000000	67.341254
1088.000000	68.568364
1087.000000	69.616227
1086.000000	70.509394
1085.000000	71.278698
1084.000000	71.955059
1083.000000	72.565960
1082.000000	73.134270
1081.000000	73.682060
1080.000000	74.221955
1079.000000	74.747226
1078.000000	75.241961
1077.000000	75.684660
1076.000000	76.043768
1075.000000	76.277435
1074.000000	76.336713
1073.000000	76.175308
1072.000000	75.723940
1071.000000	74.875174
1070.000000	73.486530
1069.000000	71.364176
1068.000000	68.306882
1067.000000	64.204435
1066.000000	59.214411
1065.000000	53.888194
1064.000000	49.065054
1063.000000	45.498726
1062.000000	43.398526
1061.000000	42.250108
1060.000000	41.121322
1059.000000	39.277358
1058.000000	36.635654
1057.000000	33.794900
1056.000000	31.644901
1055.000000	30.837074
1054.000000	31.535933
1053.000000	33.491577
1052.000000	36.287606
1051.000000	39.517745
1050.000000	42.820316
1049.000000	45.930850
1048.000000	48.714053
1047.000000	51.148092
1046.000000	53.264543
1045.000000	55.105956
1044.000000	56.713890
1043.000000	58.128436
1042.000000	59.382252
1041.000000	60.494408
1040.000000	61.484867
1039.000000	62.369746
1038.000000	63.155472
1037.000000	63.841611
1036.000000	64.427233
1035.000000	64.920687
1034.000000	65.334213
1033.000000	65.682589
1032.000000	65.987175
1031.000000	66.272218
1030.000000	66.558298
1029.000000	66.857110
1028.000000	67.174205
1027.000000	67.510719
1026.000000	67.858105
1025.000000	68.197772
1024.000000	68.506472
1023.000000	68.760796
1022.000000	68.939327
1021.000000	69.021028
1020.000000	68.991165
1019.000000	68.837639
1018.000000	68.535609
1017.000000	68.042861
1016.000000	67.296127
1015.000000	66.233647
1014.000000	64.819288
1013.000000	63.065961
1012.000000	61.052518
1011.000000	58.874475
1010.000000	56.573387
1009.000000	54.125735
1008.000000	51.560566
1007.000000	49.104649
1006.000000	47.202628
1005.000000	46.335757
1004.000000	46.765278
1003.000000	48.385681
1002.000000	50.755490
1001.000000	53.294358
1000.000000	55.470367
999.000000	56.893787
998.000000	57.361571
997.000000	56.910364
996.000000	55.857088
995.000000	54.731254
994.000000	54.066596
993.000000	54.170023
992.000000	55.040256
991.000000	56.454606
990.000000	58.125498
989.000000	59.818123
988.000000	61.396411
987.000000	62.802810
986.000000	64.029398
985.000000	65.089597
984.000000	65.999046
983.000000	66.767792
982.000000	67.408131
981.000000	67.937894
980.000000	68.377927
979.000000	68.755894
978.000000	69.102958
977.000000	69.448233
976.000000	69.808866
975.000000	70.186507
974.000000	70.572811
973.000000	70.950309
972.000000	71.294398
971.000000	71.582160
970.000000	71.804299
969.000000	71.969449
968.000000	72.097610
967.000000	72.215169
966.000000	72.350841
965.000000	72.525510
964.000000	72.742500
963.000000	72.988134
962.000000	73.241491
961.000000	73.481429
960.000000	73.688647
959.000000	73.851653
958.000000	73.974024
957.000000	74.072179
956.000000	74.164662
955.000000	74.265357
954.000000	74.384126
953.000000	74.524721
952.000000	74.680900
951.000000	74.840292
950.000000	74.994282
949.000000	75.141452
948.000000	75.283483
947.000000	75.423058
946.000000	75.564532
945.000000	75.709236
944.000000	75.849565
943.000000	75.972428
942.000000	76.069746
941.000000	76.142568
940.000000	76.197566
939.000000	76.247618
938.000000	76.314248
937.000000	76.419880
936.000000	76.573349
935.000000	76.765329
934.000000	76.974599
933.000000	77.172937
932.000000	77.328010
931.000000	77.415446
930.000000	77.434009
929.000000	77.406867
928.000000	77.368504
927.000000	77.354401
926.000000	77.396979
925.000000	77.515742
924.000000	77.704023
923.000000	77.929559
922.000000	78.151099
921.000000	78.332571
920.000000	78.448392
919.000000	78.491066
918.000000	78.479541
917.000000	78.451828
916.000000	78.445191
915.000000	78.484365
914.000000	78.581382
913.000000	78.733279
912.000000	78.916528
911.000000	79.094764
910.000000	79.236187
909.000000	79.318275
908.000000	79.317563
907.000000	79.201182
906.000000	78.935597
905.000000	78.495165
904.000000	77.875236
903.000000	77.123390
902.000000	76.361857
901.000000	75.758965
900.000000	75.452478
899.000000	75.483781
898.000000	75.790942
897.000000	76.257934
896.000000	76.770378
895.000000	77.251282
894.000000	77.654440
893.000000	77.912432
892.000000	77.901357
891.000000	77.508485
890.000000	76.783025
889.000000	76.004366
888.000000	75.540023
887.000000	75.597487
886.000000	76.092401
885.000000	76.744005
884.000000	77.287731
883.000000	77.606893
882.000000	77.723513
881.000000	77.711274
880.000000	77.615588
879.000000	77.432538
878.000000	77.152073
877.000000	76.821512
876.000000	76.568814
875.000000	76.544302
874.000000	76.824332
873.000000	77.360479
872.000000	78.015150
871.000000	78.642559
870.000000	79.148541
869.000000	79.501803
868.000000	79.714366
867.000000	79.823324
866.000000	79.877243
865.000000	79.923022
864.000000	79.993171
863.000000	80.103112
862.000000	80.252782
861.000000	80.427822
860.000000	80.604510
859.000000	80.760321
858.000000	80.883947
857.000000	80.975156
856.000000	81.038068
855.000000	81.079045
854.000000	81.107176
853.000000	81.130921
852.000000	81.153701
851.000000	81.176319
850.000000	81.202869
849.000000	81.240505
848.000000	81.295724
847.000000	81.374322
846.000000	81.481869
845.000000	81.617261
844.000000	81.766526
843.000000	81.907001
842.000000	82.017791
841.000000	82.084112
840.000000	82.098647
839.000000	82.068481
838.000000	82.020640
837.000000	81.992371
836.000000	82.013856
835.000000	82.100736
834.000000	82.255392
833.000000	82.463901
832.000000	82.691913
831.000000	82.893646
830.000000	83.031389
829.000000	83.087627
828.000000	83.065795
827.000000	82.990661
826.000000	82.906886
825.000000	82.864672
824.000000	82.898692
823.000000	83.018671
822.000000	83.212285
821.000000	83.446315
820.000000	83.668647
819.000000	83.824179
818.000000	83.874638
817.000000	83.803116
816.000000	83.599176
815.000000	83.246355
814.000000	82.715303
813.000000	81.960034
812.000000	80.947150
811.000000	79.717772
810.000000	78.436903
809.000000	77.353904
808.000000	76.682860
807.000000	76.489630
806.000000	76.671074
805.000000	77.024269
804.000000	77.343583
803.000000	77.485244
802.000000	77.378326
801.000000	77.000395
800.000000	76.345881
799.000000	75.418975
798.000000	74.238216
797.000000	72.843478
796.000000	71.291231
795.000000	69.652666
794.000000	68.012670
793.000000	66.461524
792.000000	65.086102
791.000000	63.963561
790.000000	63.158258
789.000000	62.709186
788.000000	62.622281
787.000000	62.865627
786.000000	63.381336
785.000000	64.103737
784.000000	64.962675
783.000000	65.884195
782.000000	66.788575
781.000000	67.595109
780.000000	68.227431
779.000000	68.628700
778.000000	68.781244
777.000000	68.711389
776.000000	68.471007
775.000000	68.114891
774.000000	67.699442
773.000000	67.292590
772.000000	66.980405
771.000000	66.855282
770.000000	66.992018
769.000000	67.417940
768.000000	68.097710
767.000000	68.946853
766.000000	69.869974
765.000000	70.797137
764.000000	71.692496
763.000000	72.548452
762.000000	73.374944
761.000000	74.184745
760.000000	74.977061
759.000000	75.736071
758.000000	76.445139
757.000000	77.094903
756.000000	77.678969
755.000000	78.192803
754.000000	78.642296
753.000000	79.042037
752.000000	79.400973
751.000000	79.717722
750.000000	79.990442
749.000000	80.223650
748.000000	80.423186
747.000000	80.597106
746.000000	80.765090
745.000000	80.954845
744.000000	81.182484
743.000000	81.442424
742.000000	81.715958
741.000000	81.977957
740.000000	82.193480
739.000000	82.324848
738.000000	82.352698
737.000000	82.283594
736.000000	82.136360
735.000000	81.930725
734.000000	81.689202
733.000000	81.431668
732.000000	81.159367
731.000000	80.856580
730.000000	80.516758
729.000000	80.160352
728.000000	79.824035
727.000000	79.538862
726.000000	79.319802
725.000000	79.167813
724.000000	79.068797
723.000000	78.990206
722.000000	78.881176
721.000000	78.675857
720.000000	78.305329
719.000000	77.725959
718.000000	76.947624
717.000000	76.036736
716.000000	75.098082
715.000000	74.254543
714.000000	73.628749
713.000000	73.311565
712.000000	73.327577
711.000000	73.632456
710.000000	74.151351
709.000000	74.814116
708.000000	75.559306
707.000000	76.332530
706.000000	77.096909
705.000000	77.838291
704.000000	78.547232
703.000000	79.205733
702.000000	79.800645
701.000000	80.331721
700.000000	80.795944
699.000000	81.184087
698.000000	81.498423
697.000000	81.762538
696.000000	82.003156
695.000000	82.234690
694.000000	82.475136
693.000000	82.749906
692.000000	83.063623
691.000000	83.388257
690.000000	83.687317
689.000000	83.939436
688.000000	84.127477
687.000000	84.230206
686.000000	84.250945
685.000000	84.230445
684.000000	84.213713
683.000000	84.224424
682.000000	84.281616
681.000000	84.409653
680.000000	84.605269
679.000000	84.824191
678.000000	85.018648
677.000000	85.161005
676.000000	85.234394
675.000000	85.223541
674.000000	85.151905
673.000000	85.112923
672.000000	85.219380
671.000000	85.504525
670.000000	85.905948
669.000000	86.188702
668.000000	85.991759
667.000000	85.538401
666.000000	85.393979
665.000000	85.485478
664.000000	85.579704
663.000000	85.601514
662.000000	85.578600
661.000000	85.542819
660.000000	85.507498
659.000000	85.491396
658.000000	85.515765
657.000000	85.572619
656.000000	85.641847
655.000000	85.719291
654.000000	85.800920
653.000000	85.868981
652.000000	85.913764
651.000000	85.943562
650.000000	85.960148
649.000000	85.944067
648.000000	85.884190
647.000000	85.798498
646.000000	85.709713
645.000000	85.624277
644.000000	85.544406
643.000000	85.483697
642.000000	85.457589
641.000000	85.464863
640.000000	85.494402
639.000000	85.536659
638.000000	85.572451
637.000000	85.567489
636.000000	85.495907
635.000000	85.360055
634.000000	85.183129
633.000000	84.992115
632.000000	84.815831
631.000000	84.688288
630.000000	84.633267
629.000000	84.644994
628.000000	84.694021
627.000000	84.743117
626.000000	84.750481
625.000000	84.678518
624.000000	84.510297
623.000000	84.261086
622.000000	83.971091
621.000000	83.687019
620.000000	83.446972
619.000000	83.267147
618.000000	83.131792
617.000000	83.002686
616.000000	82.847442
615.000000	82.649856
614.000000	82.392128
613.000000	82.049094
612.000000	81.610917
611.000000	81.098997
610.000000	80.544149
609.000000	79.955564
608.000000	79.325404
607.000000	78.647791
606.000000	77.914063
605.000000	77.104726
604.000000	76.202709
603.000000	75.210560
602.000000	74.134959
601.000000	72.969153
600.000000	71.709477
599.000000	70.373763
598.000000	68.975775
597.000000	67.493398
596.000000	65.896041
595.000000	64.175740
594.000000	62.306493
593.000000	60.198529
592.000000	57.761381
591.000000	55.049109
590.000000	52.334270
589.000000	50.044692
588.000000	48.592321
587.000000	48.147668
586.000000	48.470568
585.000000	49.022108
584.000000	49.344935
583.000000	49.300683
582.000000	48.976749
581.000000	48.510830
580.000000	48.055221
579.000000	47.792522
578.000000	47.852040
577.000000	48.243874
576.000000	48.909731
575.000000	49.769751
574.000000	50.696709
573.000000	51.530388
572.000000	52.188547
571.000000	52.732807
570.000000	53.301403
569.000000	54.004230
568.000000	54.888619
567.000000	55.936794
566.000000	57.051435
565.000000	58.098781
564.000000	59.003858
563.000000	59.777880
562.000000	60.452241
561.000000	61.034064
560.000000	61.538369
559.000000	62.006658
558.000000	62.465796
557.000000	62.906930
556.000000	63.325192
555.000000	63.747664
554.000000	64.196170
553.000000	64.661658
552.000000	65.137774
551.000000	65.643049
550.000000	66.184284
549.000000	66.729516
548.000000	67.242603
547.000000	67.716354
546.000000	68.154609
545.000000	68.551165
544.000000	68.907942
543.000000	69.248760
542.000000	69.596350
541.000000	69.953048
540.000000	70.318725
539.000000	70.703983
538.000000	71.109125
537.000000	71.510891
536.000000	71.883726
535.000000	72.220928
534.000000	72.521987
533.000000	72.782047
532.000000	72.998549
531.000000	73.175602
530.000000	73.314423
529.000000	73.408684
528.000000	73.453648
527.000000	73.454419
526.000000	73.402649
525.000000	73.259278
524.000000	72.980013
523.000000	72.543881
522.000000	71.959055
521.000000	71.239055
520.000000	70.382042
519.000000	69.358607
518.000000	68.106527
517.000000	66.575233
516.000000	64.796787
515.000000	62.911688
514.000000	61.110393
513.000000	59.575033
512.000000	58.467247
511.000000	57.919903
510.000000	57.979299
509.000000	58.583454
508.000000	59.633950
507.000000	61.020752
506.000000	62.593916
505.000000	64.194360
504.000000	65.731356
503.000000	67.186432
502.000000	68.535254
501.000000	69.731702
500.000000	70.764513
499.000000	71.676109
498.000000	72.507628
497.000000	73.271632
496.000000	73.972318
495.000000	74.616283
494.000000	75.202141
493.000000	75.713309
492.000000	76.140490
491.000000	76.499353
490.000000	76.814968
489.000000	77.113928
488.000000	77.424435
487.000000	77.768813
486.000000	78.140135
485.000000	78.488815
484.000000	78.746242
483.000000	78.851102
482.000000	78.756841
481.000000	78.430992
480.000000	77.855694
479.000000	77.031061
478.000000	75.963483
477.000000	74.692606
476.000000	73.339011
475.000000	72.094781
474.000000	71.133465
473.000000	70.536012
472.000000	70.291255
471.000000	70.334627
470.000000	70.583919
469.000000	70.972617
468.000000	71.479175
467.000000	72.086581
466.000000	72.694526
465.000000	73.114779
464.000000	73.172051
463.000000	72.829471
462.000000	72.261453
461.000000	71.788762
460.000000	71.733079
459.000000	72.301917
458.000000	73.472713
457.000000	74.937869
456.000000	76.316863
455.000000	77.433863
454.000000	78.295580
453.000000	78.938806
452.000000	79.388276
451.000000	79.698798
450.000000	79.926273
449.000000	80.071481
448.000000	80.080283
447.000000	79.890863
446.000000	79.483606
445.000000	78.899604
444.000000	78.248962
443.000000	77.704508
442.000000	77.428287
441.000000	77.467557
440.000000	77.764552
439.000000	78.236523
438.000000	78.813437
437.000000	79.432087
436.000000	80.024497
435.000000	80.528669
434.000000	80.906602
433.000000	81.146207
432.000000	81.244791
431.000000	81.211228
430.000000	81.085450
429.000000	80.924879
428.000000	80.778675
427.000000	80.680150
426.000000	80.642242
425.000000	80.645056
424.000000	80.653233
423.000000	80.661405
422.000000	80.689965
421.000000	80.735932
420.000000	80.749542
419.000000	80.682513
418.000000	80.565388
417.000000	80.452589
416.000000	80.353766
415.000000	80.280065
414.000000	80.263738
413.000000	80.327424
412.000000	80.465790
411.000000	80.654663
410.000000	80.858502
409.000000	81.002546
408.000000	81.000169
407.000000	80.842035
406.000000	80.639529
405.000000	80.542025
404.000000	80.622691
403.000000	80.860481
402.000000	81.186049
401.000000	81.536290
400.000000	81.871791
