PE IR       SUBTECH     SPECTRUM    ASCII       PEDS        4.00        
   -1
23ms248,246,269.asc
24/09/24
15:52:39.00
24/09/24
15:52:39.00
Administrator
Sample 1195 By Administrator Date Tuesday, September 24 2024
400.000000
#HDR
-1
-1
#GR
cm-1
%T
1.0
0.0
4000.000000
-1.000000
3601
8
84.863863
5.722345
#DATA
4000.000000	44.944174
3999.000000	44.914645
3998.000000	44.885117
3997.000000	44.855209
3996.000000	44.824378
3995.000000	44.792079
3994.000000	44.758128
3993.000000	44.722610
3992.000000	44.685482
3991.000000	44.646519
3990.000000	44.605905
3989.000000	44.564835
3988.000000	44.525096
3987.000000	44.488105
3986.000000	44.454642
3985.000000	44.425183
3984.000000	44.399806
3983.000000	44.377535
3982.000000	44.356226
3981.000000	44.333835
3980.000000	44.309961
3979.000000	44.286354
3978.000000	44.266129
3977.000000	44.252247
3976.000000	44.246802
3975.000000	44.251112
3974.000000	44.265915
3973.000000	44.291874
3972.000000	44.329487
3971.000000	44.378670
3970.000000	44.438268
3969.000000	44.505873
3968.000000	44.578698
3967.000000	44.654066
3966.000000	44.729494
3965.000000	44.802668
3964.000000	44.871302
3963.000000	44.933299
3962.000000	44.987436
3961.000000	45.033923
3960.000000	45.074361
3959.000000	45.110970
3958.000000	45.145330
3957.000000	45.178362
3956.000000	45.211526
3955.000000	45.246841
3954.000000	45.286396
3953.000000	45.331389
3952.000000	45.381866
3951.000000	45.437158
3950.000000	45.496098
3949.000000	45.557409
3948.000000	45.619878
3947.000000	45.683159
3946.000000	45.748027
3945.000000	45.814774
3944.000000	45.881033
3943.000000	45.942183
3942.000000	45.996207
3941.000000	46.046308
3940.000000	46.096243
3939.000000	46.145621
3938.000000	46.190693
3937.000000	46.229377
3936.000000	46.264812
3935.000000	46.301750
3934.000000	46.341995
3933.000000	46.383075
3932.000000	46.421638
3931.000000	46.456768
3930.000000	46.488606
3929.000000	46.517899
3928.000000	46.545656
3927.000000	46.572813
3926.000000	46.598695
3925.000000	46.619904
3924.000000	46.635701
3923.000000	46.651176
3922.000000	46.670992
3921.000000	46.694247
3920.000000	46.717652
3919.000000	46.741269
3918.000000	46.767849
3917.000000	46.797559
3916.000000	46.828195
3915.000000	46.858653
3914.000000	46.889933
3913.000000	46.922403
3912.000000	46.955089
3911.000000	46.988769
3910.000000	47.026196
3909.000000	47.069066
3908.000000	47.117837
3907.000000	47.169891
3906.000000	47.220993
3905.000000	47.266229
3904.000000	47.304240
3903.000000	47.342024
3902.000000	47.387653
3901.000000	47.439559
3900.000000	47.486238
3899.000000	47.517451
3898.000000	47.535697
3897.000000	47.551488
3896.000000	47.570687
3895.000000	47.593750
3894.000000	47.620129
3893.000000	47.649058
3892.000000	47.676283
3891.000000	47.696135
3890.000000	47.712128
3889.000000	47.733194
3888.000000	47.762714
3887.000000	47.793561
3886.000000	47.813638
3885.000000	47.822557
3884.000000	47.836878
3883.000000	47.868611
3882.000000	47.907775
3881.000000	47.933420
3880.000000	47.936788
3879.000000	47.931385
3878.000000	47.936806
3877.000000	47.957453
3876.000000	47.983372
3875.000000	48.002888
3874.000000	48.014181
3873.000000	48.028815
3872.000000	48.059058
3871.000000	48.098498
3870.000000	48.125122
3869.000000	48.133391
3868.000000	48.144114
3867.000000	48.172253
3866.000000	48.208136
3865.000000	48.231967
3864.000000	48.239732
3863.000000	48.246575
3862.000000	48.262178
3861.000000	48.281917
3860.000000	48.301299
3859.000000	48.322503
3858.000000	48.352487
3857.000000	48.394469
3856.000000	48.447159
3855.000000	48.500063
3854.000000	48.533089
3853.000000	48.541826
3852.000000	48.551025
3851.000000	48.572846
3850.000000	48.589867
3849.000000	48.587694
3848.000000	48.569716
3847.000000	48.552179
3846.000000	48.548589
3845.000000	48.560337
3844.000000	48.581571
3843.000000	48.606659
3842.000000	48.634350
3841.000000	48.667666
3840.000000	48.703804
3839.000000	48.731020
3838.000000	48.745122
3837.000000	48.754650
3836.000000	48.770817
3835.000000	48.794761
3834.000000	48.819379
3833.000000	48.838163
3832.000000	48.848446
3831.000000	48.854156
3830.000000	48.865425
3829.000000	48.888206
3828.000000	48.918075
3827.000000	48.945754
3826.000000	48.966408
3825.000000	48.986995
3824.000000	49.019184
3823.000000	49.063637
3822.000000	49.105072
3821.000000	49.126284
3820.000000	49.136579
3819.000000	49.161288
3818.000000	49.203727
3817.000000	49.241339
3816.000000	49.252031
3815.000000	49.243882
3814.000000	49.247062
3813.000000	49.271451
3812.000000	49.298543
3811.000000	49.314267
3810.000000	49.326356
3809.000000	49.350067
3808.000000	49.386645
3807.000000	49.422191
3806.000000	49.451563
3805.000000	49.489165
3804.000000	49.542553
3803.000000	49.599422
3802.000000	49.634623
3801.000000	49.637472
3800.000000	49.634326
3799.000000	49.651487
3798.000000	49.680795
3797.000000	49.699365
3796.000000	49.699673
3795.000000	49.696028
3794.000000	49.704972
3793.000000	49.726525
3792.000000	49.748772
3791.000000	49.766120
3790.000000	49.783308
3789.000000	49.805874
3788.000000	49.834464
3787.000000	49.866713
3786.000000	49.899391
3785.000000	49.928746
3784.000000	49.952367
3783.000000	49.973271
3782.000000	49.997220
3781.000000	50.024864
3780.000000	50.050116
3779.000000	50.068632
3778.000000	50.084884
3777.000000	50.105116
3776.000000	50.127446
3775.000000	50.144491
3774.000000	50.154380
3773.000000	50.163136
3772.000000	50.176674
3771.000000	50.192527
3770.000000	50.203621
3769.000000	50.211020
3768.000000	50.223196
3767.000000	50.241054
3766.000000	50.255676
3765.000000	50.258673
3764.000000	50.253813
3763.000000	50.253969
3762.000000	50.265486
3761.000000	50.283242
3760.000000	50.299350
3759.000000	50.315328
3758.000000	50.338614
3757.000000	50.368328
3756.000000	50.399710
3755.000000	50.431994
3754.000000	50.468226
3753.000000	50.509735
3752.000000	50.553318
3751.000000	50.596803
3750.000000	50.639315
3749.000000	50.678212
3748.000000	50.712595
3747.000000	50.746396
3746.000000	50.781794
3745.000000	50.804733
3744.000000	50.801522
3743.000000	50.797216
3742.000000	50.816697
3741.000000	50.844323
3740.000000	50.855835
3739.000000	50.851784
3738.000000	50.856716
3737.000000	50.888079
3736.000000	50.940181
3735.000000	50.994813
3734.000000	51.041921
3733.000000	51.079404
3732.000000	51.101375
3731.000000	51.108193
3730.000000	51.110939
3729.000000	51.119930
3728.000000	51.136561
3727.000000	51.153978
3726.000000	51.168571
3725.000000	51.186410
3724.000000	51.212251
3723.000000	51.239865
3722.000000	51.260106
3721.000000	51.275201
3720.000000	51.291734
3719.000000	51.310274
3718.000000	51.325912
3717.000000	51.334198
3716.000000	51.339384
3715.000000	51.349890
3714.000000	51.370511
3713.000000	51.399590
3712.000000	51.431549
3711.000000	51.461690
3710.000000	51.487809
3709.000000	51.507140
3708.000000	51.516642
3707.000000	51.515930
3706.000000	51.509985
3705.000000	51.506631
3704.000000	51.510679
3703.000000	51.520635
3702.000000	51.531042
3701.000000	51.539609
3700.000000	51.548087
3699.000000	51.557463
3698.000000	51.565650
3697.000000	51.569157
3696.000000	51.567744
3695.000000	51.567310
3694.000000	51.573506
3693.000000	51.586353
3692.000000	51.602519
3691.000000	51.619200
3690.000000	51.634371
3689.000000	51.645625
3688.000000	51.653240
3687.000000	51.658469
3686.000000	51.659554
3685.000000	51.651891
3684.000000	51.632224
3683.000000	51.604378
3682.000000	51.579356
3681.000000	51.564271
3680.000000	51.556377
3679.000000	51.549610
3678.000000	51.545830
3677.000000	51.550952
3676.000000	51.554279
3675.000000	51.541688
3674.000000	51.522415
3673.000000	51.508827
3672.000000	51.492457
3671.000000	51.457487
3670.000000	51.398021
3669.000000	51.329560
3668.000000	51.274368
3667.000000	51.230645
3666.000000	51.179908
3665.000000	51.114554
3664.000000	51.041038
3663.000000	50.969081
3662.000000	50.902784
3661.000000	50.839422
3660.000000	50.777443
3659.000000	50.717080
3658.000000	50.656327
3657.000000	50.589494
3656.000000	50.512266
3655.000000	50.430463
3654.000000	50.350083
3653.000000	50.267624
3652.000000	50.176608
3651.000000	50.076278
3650.000000	49.971957
3649.000000	49.870199
3648.000000	49.771087
3647.000000	49.665292
3646.000000	49.543840
3645.000000	49.407316
3644.000000	49.261767
3643.000000	49.112544
3642.000000	48.962521
3641.000000	48.813821
3640.000000	48.668934
3639.000000	48.526647
3638.000000	48.382447
3637.000000	48.233542
3636.000000	48.081342
3635.000000	47.928511
3634.000000	47.775714
3633.000000	47.624749
3632.000000	47.476689
3631.000000	47.326336
3630.000000	47.161652
3629.000000	46.976485
3628.000000	46.786738
3627.000000	46.614065
3626.000000	46.451860
3625.000000	46.278428
3624.000000	46.087642
3623.000000	45.890134
3622.000000	45.697968
3621.000000	45.512931
3620.000000	45.327981
3619.000000	45.139154
3618.000000	44.951973
3617.000000	44.771583
3616.000000	44.593556
3615.000000	44.408087
3614.000000	44.209282
3613.000000	44.001745
3612.000000	43.797007
3611.000000	43.601031
3610.000000	43.409065
3609.000000	43.214272
3608.000000	43.015332
3607.000000	42.815838
3606.000000	42.618484
3605.000000	42.422144
3604.000000	42.224747
3603.000000	42.024687
3602.000000	41.821619
3601.000000	41.617919
3600.000000	41.417499
3599.000000	41.222411
3598.000000	41.030253
3597.000000	40.835870
3596.000000	40.636231
3595.000000	40.431794
3594.000000	40.225125
3593.000000	40.021718
3592.000000	39.825312
3591.000000	39.633103
3590.000000	39.437802
3589.000000	39.234231
3588.000000	39.023419
3587.000000	38.812288
3586.000000	38.609054
3585.000000	38.416581
3584.000000	38.230076
3583.000000	38.042838
3582.000000	37.852850
3581.000000	37.663682
3580.000000	37.479337
3579.000000	37.299690
3578.000000	37.121830
3577.000000	36.944846
3576.000000	36.770061
3575.000000	36.598366
3574.000000	36.429599
3573.000000	36.265175
3572.000000	36.108101
3571.000000	35.959303
3570.000000	35.817685
3569.000000	35.682995
3568.000000	35.555541
3567.000000	35.433282
3566.000000	35.313109
3565.000000	35.193220
3564.000000	35.071903
3563.000000	34.947852
3562.000000	34.823010
3561.000000	34.703076
3560.000000	34.592445
3559.000000	34.489598
3558.000000	34.389674
3557.000000	34.290269
3556.000000	34.192249
3555.000000	34.096118
3554.000000	34.000984
3553.000000	33.906838
3552.000000	33.815354
3551.000000	33.726729
3550.000000	33.637745
3549.000000	33.544386
3548.000000	33.445378
3547.000000	33.343736
3546.000000	33.245497
3545.000000	33.156223
3544.000000	33.076763
3543.000000	33.002421
3542.000000	32.927095
3541.000000	32.847476
3540.000000	32.762672
3539.000000	32.672326
3538.000000	32.578269
3537.000000	32.485995
3536.000000	32.400976
3535.000000	32.323031
3534.000000	32.246979
3533.000000	32.168451
3532.000000	32.086074
3531.000000	31.999632
3530.000000	31.908667
3529.000000	31.813385
3528.000000	31.714071
3527.000000	31.610113
3526.000000	31.502085
3525.000000	31.394213
3524.000000	31.291561
3523.000000	31.194630
3522.000000	31.099058
3521.000000	31.000193
3520.000000	30.895641
3519.000000	30.784028
3518.000000	30.664931
3517.000000	30.540176
3516.000000	30.412906
3515.000000	30.285198
3514.000000	30.158184
3513.000000	30.033338
3512.000000	29.910588
3511.000000	29.786311
3510.000000	29.656478
3509.000000	29.521332
3508.000000	29.383544
3507.000000	29.242692
3506.000000	29.095525
3505.000000	28.942040
3504.000000	28.787939
3503.000000	28.640022
3502.000000	28.500852
3501.000000	28.368055
3500.000000	28.236841
3499.000000	28.103332
3498.000000	27.967965
3497.000000	27.835543
3496.000000	27.710633
3495.000000	27.593455
3494.000000	27.481706
3493.000000	27.374626
3492.000000	27.272358
3491.000000	27.173111
3490.000000	27.074846
3489.000000	26.979228
3488.000000	26.890846
3487.000000	26.812755
3486.000000	26.744730
3485.000000	26.684460
3484.000000	26.627594
3483.000000	26.568764
3482.000000	26.506626
3481.000000	26.447452
3480.000000	26.400115
3479.000000	26.367410
3478.000000	26.344948
3477.000000	26.327132
3476.000000	26.310767
3475.000000	26.293821
3474.000000	26.274143
3473.000000	26.249836
3472.000000	26.219592
3471.000000	26.183899
3470.000000	26.147925
3469.000000	26.121154
3468.000000	26.110635
3467.000000	26.114992
3466.000000	26.126832
3465.000000	26.138922
3464.000000	26.146033
3463.000000	26.144491
3462.000000	26.134791
3461.000000	26.123407
3460.000000	26.117661
3459.000000	26.118953
3458.000000	26.123383
3457.000000	26.127432
3456.000000	26.130052
3455.000000	26.130639
3454.000000	26.128805
3453.000000	26.125691
3452.000000	26.122716
3451.000000	26.119826
3450.000000	26.116887
3449.000000	26.115650
3448.000000	26.117953
3447.000000	26.123058
3446.000000	26.128957
3445.000000	26.134859
3444.000000	26.140198
3443.000000	26.143040
3442.000000	26.141745
3441.000000	26.136716
3440.000000	26.128697
3439.000000	26.117495
3438.000000	26.104794
3437.000000	26.096083
3436.000000	26.096723
3435.000000	26.106825
3434.000000	26.121759
3433.000000	26.136366
3432.000000	26.147486
3431.000000	26.154978
3430.000000	26.162295
3429.000000	26.174243
3428.000000	26.191891
3427.000000	26.211217
3426.000000	26.227913
3425.000000	26.241229
3424.000000	26.252089
3423.000000	26.260596
3422.000000	26.267811
3421.000000	26.277108
3420.000000	26.290787
3419.000000	26.306961
3418.000000	26.321975
3417.000000	26.333927
3416.000000	26.342366
3415.000000	26.347596
3414.000000	26.352474
3413.000000	26.362016
3412.000000	26.378623
3411.000000	26.399935
3410.000000	26.423389
3409.000000	26.450026
3408.000000	26.480913
3407.000000	26.512516
3406.000000	26.538713
3405.000000	26.555724
3404.000000	26.563599
3403.000000	26.566054
3402.000000	26.571773
3401.000000	26.592220
3400.000000	26.633167
3399.000000	26.688897
3398.000000	26.747087
3397.000000	26.798060
3396.000000	26.837676
3395.000000	26.865372
3394.000000	26.884884
3393.000000	26.905632
3392.000000	26.938185
3391.000000	26.986651
3390.000000	27.046710
3389.000000	27.110218
3388.000000	27.170137
3387.000000	27.223159
3386.000000	27.270640
3385.000000	27.316531
3384.000000	27.363007
3383.000000	27.409145
3382.000000	27.454449
3381.000000	27.501117
3380.000000	27.551028
3379.000000	27.603163
3378.000000	27.656204
3377.000000	27.711331
3376.000000	27.769693
3375.000000	27.828816
3374.000000	27.884196
3373.000000	27.933451
3372.000000	27.977591
3371.000000	28.020374
3370.000000	28.068189
3369.000000	28.128117
3368.000000	28.203078
3367.000000	28.289550
3366.000000	28.381329
3365.000000	28.473532
3364.000000	28.562620
3363.000000	28.646292
3362.000000	28.725925
3361.000000	28.806644
3360.000000	28.892135
3359.000000	28.981058
3358.000000	29.070393
3357.000000	29.159552
3356.000000	29.248681
3355.000000	29.335638
3354.000000	29.418091
3353.000000	29.497669
3352.000000	29.579746
3351.000000	29.669747
3350.000000	29.770297
3349.000000	29.879744
3348.000000	29.991931
3347.000000	30.099481
3346.000000	30.199772
3345.000000	30.296478
3344.000000	30.394223
3343.000000	30.493567
3342.000000	30.592259
3341.000000	30.689197
3340.000000	30.785487
3339.000000	30.883338
3338.000000	30.985082
3337.000000	31.091225
3336.000000	31.198061
3335.000000	31.299284
3334.000000	31.391175
3333.000000	31.474085
3332.000000	31.548478
3331.000000	31.612059
3330.000000	31.662094
3329.000000	31.698316
3328.000000	31.721668
3327.000000	31.733099
3326.000000	31.734129
3325.000000	31.725764
3324.000000	31.705558
3323.000000	31.667227
3322.000000	31.605366
3321.000000	31.517931
3320.000000	31.402637
3319.000000	31.255038
3318.000000	31.069786
3317.000000	30.842866
3316.000000	30.569320
3315.000000	30.241191
3314.000000	29.851274
3313.000000	29.395195
3312.000000	28.870873
3311.000000	28.279415
3310.000000	27.627571
3309.000000	26.930158
3308.000000	26.204883
3307.000000	25.467869
3306.000000	24.734793
3305.000000	24.020444
3304.000000	23.335120
3303.000000	22.683393
3302.000000	22.069529
3301.000000	21.501694
3300.000000	20.989484
3299.000000	20.539719
3298.000000	20.158701
3297.000000	19.853410
3296.000000	19.624198
3295.000000	19.460997
3294.000000	19.346499
3293.000000	19.262295
3292.000000	19.190115
3291.000000	19.110528
3290.000000	19.009318
3289.000000	18.882378
3288.000000	18.733451
3287.000000	18.568950
3286.000000	18.395566
3285.000000	18.218162
3284.000000	18.035667
3283.000000	17.840156
3282.000000	17.622190
3281.000000	17.375540
3280.000000	17.094610
3279.000000	16.773134
3278.000000	16.408956
3277.000000	16.007091
3276.000000	15.576159
3275.000000	15.123493
3274.000000	14.657619
3273.000000	14.192932
3272.000000	13.748595
3271.000000	13.345009
3270.000000	13.003727
3269.000000	12.746399
3268.000000	12.589228
3267.000000	12.542173
3266.000000	12.609804
3265.000000	12.791537
3264.000000	13.075830
3263.000000	13.435813
3262.000000	13.837349
3261.000000	14.243895
3260.000000	14.616694
3259.000000	14.916541
3258.000000	15.111511
3257.000000	15.180491
3256.000000	15.110354
3255.000000	14.890886
3254.000000	14.515466
3253.000000	13.986664
3252.000000	13.310299
3251.000000	12.497205
3250.000000	11.569444
3249.000000	10.563687
3248.000000	9.529386
3247.000000	8.520244
3246.000000	7.592708
3245.000000	6.804208
3244.000000	6.206931
3243.000000	5.838580
3242.000000	5.722345
3241.000000	5.859954
3240.000000	6.220599
3239.000000	6.745425
3238.000000	7.360518
3237.000000	7.998584
3236.000000	8.608616
3235.000000	9.158815
3234.000000	9.639298
3233.000000	10.053409
3232.000000	10.405310
3231.000000	10.695562
3230.000000	10.928630
3229.000000	11.116762
3228.000000	11.275427
3227.000000	11.417996
3226.000000	11.557232
3225.000000	11.706668
3224.000000	11.874745
3223.000000	12.061999
3222.000000	12.265251
3221.000000	12.480508
3220.000000	12.699591
3219.000000	12.908574
3218.000000	13.093750
3217.000000	13.246012
3216.000000	13.358780
3215.000000	13.427684
3214.000000	13.454563
3213.000000	13.448963
3212.000000	13.421826
3211.000000	13.381103
3210.000000	13.335440
3209.000000	13.295603
3208.000000	13.270038
3207.000000	13.261914
3206.000000	13.272902
3205.000000	13.305721
3204.000000	13.360904
3203.000000	13.435132
3202.000000	13.525263
3201.000000	13.630584
3200.000000	13.748560
3199.000000	13.873477
3198.000000	14.000957
3197.000000	14.130165
3196.000000	14.260010
3195.000000	14.386988
3194.000000	14.509019
3193.000000	14.626700
3192.000000	14.738949
3191.000000	14.841721
3190.000000	14.933404
3189.000000	15.017440
3188.000000	15.097860
3187.000000	15.176534
3186.000000	15.256272
3185.000000	15.341775
3184.000000	15.434579
3183.000000	15.530867
3182.000000	15.626202
3181.000000	15.718182
3180.000000	15.803005
3179.000000	15.874332
3178.000000	15.928712
3177.000000	15.968925
3176.000000	16.000268
3175.000000	16.027908
3174.000000	16.059413
3173.000000	16.105184
3172.000000	16.173266
3171.000000	16.267944
3170.000000	16.394471
3169.000000	16.560810
3168.000000	16.772657
3167.000000	17.028978
3166.000000	17.326268
3165.000000	17.662197
3164.000000	18.034578
3163.000000	18.442222
3162.000000	18.886578
3161.000000	19.370120
3160.000000	19.888294
3159.000000	20.426393
3158.000000	20.965263
3157.000000	21.485178
3156.000000	21.965047
3155.000000	22.383443
3154.000000	22.724359
3153.000000	22.979075
3152.000000	23.145149
3151.000000	23.226570
3150.000000	23.237203
3149.000000	23.199638
3148.000000	23.134029
3147.000000	23.051555
3146.000000	22.953899
3145.000000	22.833879
3144.000000	22.675871
3143.000000	22.458287
3142.000000	22.164097
3141.000000	21.786544
3140.000000	21.326346
3139.000000	20.790779
3138.000000	20.194423
3137.000000	19.559300
3136.000000	18.908470
3135.000000	18.262133
3134.000000	17.641814
3133.000000	17.071796
3132.000000	16.573690
3131.000000	16.161804
3130.000000	15.845737
3129.000000	15.630037
3128.000000	15.511385
3127.000000	15.478064
3126.000000	15.516037
3125.000000	15.613968
3124.000000	15.758723
3123.000000	15.936505
3122.000000	16.138618
3121.000000	16.362696
3120.000000	16.607248
3119.000000	16.866873
3118.000000	17.136267
3117.000000	17.411863
3116.000000	17.687389
3115.000000	17.951551
3114.000000	18.192157
3113.000000	18.398580
3112.000000	18.559136
3111.000000	18.662435
3110.000000	18.701627
3109.000000	18.675804
3108.000000	18.583612
3107.000000	18.420987
3106.000000	18.188599
3105.000000	17.895076
3104.000000	17.554722
3103.000000	17.184772
3102.000000	16.808609
3101.000000	16.455991
3100.000000	16.155581
3099.000000	15.928702
3098.000000	15.790345
3097.000000	15.751830
3096.000000	15.816326
3095.000000	15.978927
3094.000000	16.230601
3093.000000	16.561118
3092.000000	16.958486
3091.000000	17.407490
3090.000000	17.894699
3089.000000	18.408360
3088.000000	18.934611
3087.000000	19.459481
3086.000000	19.974644
3085.000000	20.478681
3084.000000	20.970027
3083.000000	21.443532
3082.000000	21.894819
3081.000000	22.323745
3080.000000	22.732025
3079.000000	23.121530
3078.000000	23.496146
3077.000000	23.860261
3076.000000	24.214779
3075.000000	24.557402
3074.000000	24.888225
3073.000000	25.210990
3072.000000	25.527343
3071.000000	25.834875
3070.000000	26.131890
3069.000000	26.420741
3068.000000	26.704939
3067.000000	26.985816
3066.000000	27.263704
3065.000000	27.538834
3064.000000	27.809781
3063.000000	28.073953
3062.000000	28.330118
3061.000000	28.578439
3060.000000	28.817860
3059.000000	29.046788
3058.000000	29.266804
3057.000000	29.481874
3056.000000	29.693587
3055.000000	29.899988
3054.000000	30.099471
3053.000000	30.292914
3052.000000	30.481174
3051.000000	30.663864
3050.000000	30.840846
3049.000000	31.011905
3048.000000	31.175114
3047.000000	31.328251
3046.000000	31.472384
3045.000000	31.611154
3044.000000	31.746561
3043.000000	31.878825
3042.000000	32.009683
3041.000000	32.142053
3040.000000	32.275715
3039.000000	32.406895
3038.000000	32.533450
3037.000000	32.657749
3036.000000	32.784226
3035.000000	32.916572
3034.000000	33.057144
3033.000000	33.205761
3032.000000	33.358415
3031.000000	33.510064
3030.000000	33.659139
3029.000000	33.807176
3028.000000	33.954829
3027.000000	34.101766
3026.000000	34.250116
3025.000000	34.403904
3024.000000	34.564344
3023.000000	34.728755
3022.000000	34.894664
3021.000000	35.061985
3020.000000	35.230659
3019.000000	35.399205
3018.000000	35.566384
3017.000000	35.731997
3016.000000	35.895665
3015.000000	36.057011
3014.000000	36.217196
3013.000000	36.377906
3012.000000	36.538501
3011.000000	36.695690
3010.000000	36.845920
3009.000000	36.986008
3008.000000	37.111834
3007.000000	37.218922
3006.000000	37.303535
3005.000000	37.362127
3004.000000	37.388638
3003.000000	37.373898
3002.000000	37.307972
3001.000000	37.178980
3000.000000	36.969038
2999.000000	36.650128
2998.000000	36.193396
2997.000000	35.600159
2996.000000	34.940883
2995.000000	34.362394
2994.000000	34.029591
2993.000000	34.033595
2992.000000	34.337927
2991.000000	34.813235
2990.000000	35.320396
2989.000000	35.770046
2988.000000	36.130282
2987.000000	36.405102
2986.000000	36.615042
2985.000000	36.781628
2984.000000	36.918402
2983.000000	37.030159
2982.000000	37.119493
2981.000000	37.187394
2980.000000	37.226426
2979.000000	37.217803
2978.000000	37.142164
2977.000000	37.000512
2976.000000	36.831134
2975.000000	36.708638
2974.000000	36.714165
2973.000000	36.891090
2972.000000	37.219441
2971.000000	37.631827
2970.000000	38.052876
2969.000000	38.427562
2968.000000	38.726006
2967.000000	38.937354
2966.000000	39.063355
2965.000000	39.108717
2964.000000	39.073436
2963.000000	38.949634
2962.000000	38.725438
2961.000000	38.385279
2960.000000	37.904246
2959.000000	37.245572
2958.000000	36.370724
2957.000000	35.277571
2956.000000	34.052964
2955.000000	32.898288
2954.000000	32.067723
2953.000000	31.733196
2952.000000	31.876722
2951.000000	32.308553
2950.000000	32.795630
2949.000000	33.183385
2948.000000	33.438738
2947.000000	33.617806
2946.000000	33.808129
2945.000000	34.073698
2944.000000	34.423889
2943.000000	34.822023
2942.000000	35.220699
2941.000000	35.592724
2940.000000	35.937381
2939.000000	36.271880
2938.000000	36.621148
2937.000000	37.005817
2936.000000	37.431178
2935.000000	37.886726
2934.000000	38.356065
2933.000000	38.823707
2932.000000	39.274872
2931.000000	39.697837
2930.000000	40.089099
2929.000000	40.451514
2928.000000	40.786143
2927.000000	41.090665
2926.000000	41.366037
2925.000000	41.617619
2924.000000	41.848731
2923.000000	42.058289
2922.000000	42.246133
2921.000000	42.415126
2920.000000	42.566704
2919.000000	42.700106
2918.000000	42.816527
2917.000000	42.919478
2916.000000	43.010434
2915.000000	43.088769
2914.000000	43.156608
2913.000000	43.218484
2912.000000	43.275966
2911.000000	43.327280
2910.000000	43.372521
2909.000000	43.414618
2908.000000	43.454565
2907.000000	43.490617
2906.000000	43.522875
2905.000000	43.554203
2904.000000	43.586110
2903.000000	43.617947
2902.000000	43.651084
2901.000000	43.688575
2900.000000	43.730139
2899.000000	43.771169
2898.000000	43.806899
2897.000000	43.833487
2896.000000	43.845294
2895.000000	43.836517
2894.000000	43.807062
2893.000000	43.763041
2892.000000	43.710519
2891.000000	43.652509
2890.000000	43.591749
2889.000000	43.531700
2888.000000	43.473542
2887.000000	43.416487
2886.000000	43.362228
2885.000000	43.315326
2884.000000	43.278775
2883.000000	43.252719
2882.000000	43.237916
2881.000000	43.236258
2880.000000	43.246880
2879.000000	43.265188
2878.000000	43.286067
2877.000000	43.304595
2876.000000	43.314585
2875.000000	43.312018
2874.000000	43.300875
2873.000000	43.290946
2872.000000	43.288467
2871.000000	43.292839
2870.000000	43.303831
2869.000000	43.328601
2868.000000	43.380512
2867.000000	43.473848
2866.000000	43.618801
2865.000000	43.815370
2864.000000	44.049899
2863.000000	44.301349
2862.000000	44.552555
2861.000000	44.793960
2860.000000	45.019381
2859.000000	45.223896
2858.000000	45.406888
2857.000000	45.572231
2856.000000	45.723479
2855.000000	45.862356
2854.000000	45.991671
2853.000000	46.115494
2852.000000	46.235848
2851.000000	46.352951
2850.000000	46.468671
2849.000000	46.585871
2848.000000	46.704084
2847.000000	46.819684
2846.000000	46.930816
2845.000000	47.038474
2844.000000	47.142855
2843.000000	47.242626
2842.000000	47.338365
2841.000000	47.433295
2840.000000	47.530041
2839.000000	47.629510
2838.000000	47.732616
2837.000000	47.839666
2836.000000	47.948079
2835.000000	48.054195
2834.000000	48.157552
2833.000000	48.260422
2832.000000	48.363399
2831.000000	48.464787
2830.000000	48.564021
2829.000000	48.662023
2828.000000	48.758114
2827.000000	48.850145
2826.000000	48.937935
2825.000000	49.023300
2824.000000	49.106664
2823.000000	49.186789
2822.000000	49.263874
2821.000000	49.339527
2820.000000	49.413376
2819.000000	49.482974
2818.000000	49.547281
2817.000000	49.607375
2816.000000	49.663822
2815.000000	49.716430
2814.000000	49.766735
2813.000000	49.817639
2812.000000	49.870306
2811.000000	49.923982
2810.000000	49.978530
2809.000000	50.034173
2808.000000	50.089226
2807.000000	50.141358
2806.000000	50.191086
2805.000000	50.241091
2804.000000	50.292266
2803.000000	50.343536
2802.000000	50.395143
2801.000000	50.448703
2800.000000	50.504123
2799.000000	50.559659
2798.000000	50.614980
2797.000000	50.671085
2796.000000	50.727435
2795.000000	50.782454
2794.000000	50.836752
2793.000000	50.892596
2792.000000	50.950205
2791.000000	51.007566
2790.000000	51.063727
2789.000000	51.119143
2788.000000	51.173068
2787.000000	51.224083
2786.000000	51.273267
2785.000000	51.323665
2784.000000	51.376485
2783.000000	51.430688
2782.000000	51.486061
2781.000000	51.543343
2780.000000	51.601319
2779.000000	51.657127
2778.000000	51.709743
2777.000000	51.760387
2776.000000	51.809560
2775.000000	51.856572
2774.000000	51.901873
2773.000000	51.946781
2772.000000	51.990771
2771.000000	52.032009
2770.000000	52.070498
2769.000000	52.107850
2768.000000	52.144227
2767.000000	52.178323
2766.000000	52.210146
2765.000000	52.240684
2764.000000	52.269000
2763.000000	52.292878
2762.000000	52.312315
2761.000000	52.329398
2760.000000	52.344830
2759.000000	52.357605
2758.000000	52.368162
2757.000000	52.378683
2756.000000	52.390043
2755.000000	52.401382
2754.000000	52.412686
2753.000000	52.425015
2752.000000	52.438180
2751.000000	52.451046
2750.000000	52.464267
2749.000000	52.480057
2748.000000	52.499322
2747.000000	52.521752
2746.000000	52.548350
2745.000000	52.580768
2744.000000	52.618323
2743.000000	52.658316
2742.000000	52.699033
2741.000000	52.739614
2740.000000	52.777397
2739.000000	52.808880
2738.000000	52.833527
2737.000000	52.854181
2736.000000	52.874294
2735.000000	52.897702
2734.000000	52.930323
2733.000000	52.977677
2732.000000	53.039894
2731.000000	53.111696
2730.000000	53.187218
2729.000000	53.262389
2728.000000	53.333289
2727.000000	53.396192
2726.000000	53.450303
2725.000000	53.497806
2724.000000	53.540720
2723.000000	53.579905
2722.000000	53.616554
2721.000000	53.651535
2720.000000	53.683417
2719.000000	53.709912
2718.000000	53.731720
2717.000000	53.752833
2716.000000	53.777158
2715.000000	53.807182
2714.000000	53.845020
2713.000000	53.891262
2712.000000	53.942473
2711.000000	53.992701
2710.000000	54.037843
2709.000000	54.076647
2708.000000	54.108433
2707.000000	54.132942
2706.000000	54.152201
2705.000000	54.169575
2704.000000	54.186630
2703.000000	54.203143
2702.000000	54.219743
2701.000000	54.237688
2700.000000	54.256506
2699.000000	54.274760
2698.000000	54.292898
2697.000000	54.312787
2696.000000	54.334884
2695.000000	54.358669
2694.000000	54.385496
2693.000000	54.417919
2692.000000	54.456086
2691.000000	54.497521
2690.000000	54.540111
2689.000000	54.582603
2688.000000	54.622843
2687.000000	54.658719
2686.000000	54.690958
2685.000000	54.722234
2684.000000	54.753371
2683.000000	54.782748
2682.000000	54.809000
2681.000000	54.831438
2680.000000	54.848487
2679.000000	54.858993
2678.000000	54.865188
2677.000000	54.871860
2676.000000	54.882646
2675.000000	54.899359
2674.000000	54.924065
2673.000000	54.958590
2672.000000	55.001901
2671.000000	55.050999
2670.000000	55.104322
2669.000000	55.161613
2668.000000	55.221255
2667.000000	55.280551
2666.000000	55.338555
2665.000000	55.395818
2664.000000	55.451454
2663.000000	55.503428
2662.000000	55.551555
2661.000000	55.597408
2660.000000	55.641443
2659.000000	55.683017
2658.000000	55.723028
2657.000000	55.763838
2656.000000	55.806428
2655.000000	55.849923
2654.000000	55.893600
2653.000000	55.936584
2652.000000	55.976015
2651.000000	56.008332
2650.000000	56.032460
2649.000000	56.049791
2648.000000	56.061456
2647.000000	56.068321
2646.000000	56.073292
2645.000000	56.080622
2644.000000	56.092887
2643.000000	56.110756
2642.000000	56.135067
2641.000000	56.166541
2640.000000	56.203866
2639.000000	56.244581
2638.000000	56.287790
2637.000000	56.333527
2636.000000	56.379976
2635.000000	56.424011
2634.000000	56.463919
2633.000000	56.499150
2632.000000	56.528198
2631.000000	56.549880
2630.000000	56.566649
2629.000000	56.584129
2628.000000	56.607410
2627.000000	56.639495
2626.000000	56.682056
2625.000000	56.734413
2624.000000	56.791919
2623.000000	56.848400
2622.000000	56.900466
2621.000000	56.947665
2620.000000	56.989574
2619.000000	57.025595
2618.000000	57.056857
2617.000000	57.085242
2616.000000	57.110703
2615.000000	57.131708
2614.000000	57.148038
2613.000000	57.160672
2612.000000	57.169465
2611.000000	57.174045
2610.000000	57.176304
2609.000000	57.179362
2608.000000	57.184283
2607.000000	57.189992
2606.000000	57.195820
2605.000000	57.201286
2604.000000	57.204210
2603.000000	57.202373
2602.000000	57.197060
2601.000000	57.192424
2600.000000	57.191666
2599.000000	57.196171
2598.000000	57.207440
2597.000000	57.226511
2596.000000	57.251283
2595.000000	57.277339
2594.000000	57.301679
2593.000000	57.323591
2592.000000	57.342781
2591.000000	57.359281
2590.000000	57.374817
2589.000000	57.391502
2588.000000	57.409249
2587.000000	57.426696
2586.000000	57.443920
2585.000000	57.461642
2584.000000	57.478598
2583.000000	57.492841
2582.000000	57.505417
2581.000000	57.519982
2580.000000	57.539181
2579.000000	57.563837
2578.000000	57.594683
2577.000000	57.631799
2576.000000	57.672503
2575.000000	57.712929
2574.000000	57.751896
2573.000000	57.790752
2572.000000	57.830228
2571.000000	57.870012
2570.000000	57.910751
2569.000000	57.953400
2568.000000	57.996589
2567.000000	58.037442
2566.000000	58.074933
2565.000000	58.110129
2564.000000	58.143708
2563.000000	58.176035
2562.000000	58.209258
2561.000000	58.246350
2560.000000	58.287875
2559.000000	58.331978
2558.000000	58.377223
2557.000000	58.423212
2556.000000	58.469070
2555.000000	58.513890
2554.000000	58.558457
2553.000000	58.604093
2552.000000	58.650362
2551.000000	58.696206
2550.000000	58.742454
2549.000000	58.790465
2548.000000	58.838893
2547.000000	58.884510
2546.000000	58.925772
2545.000000	58.963207
2544.000000	58.996913
2543.000000	59.026684
2542.000000	59.054076
2541.000000	59.081338
2540.000000	59.108523
2539.000000	59.133801
2538.000000	59.156323
2537.000000	59.176241
2536.000000	59.192504
2535.000000	59.203894
2534.000000	59.212150
2533.000000	59.221591
2532.000000	59.235621
2531.000000	59.255622
2530.000000	59.282511
2529.000000	59.316487
2528.000000	59.355246
2527.000000	59.394925
2526.000000	59.433030
2525.000000	59.468600
2524.000000	59.500379
2523.000000	59.527309
2522.000000	59.550293
2521.000000	59.570770
2520.000000	59.587935
2519.000000	59.599266
2518.000000	59.603384
2517.000000	59.600451
2516.000000	59.590047
2515.000000	59.571698
2514.000000	59.546839
2513.000000	59.518066
2512.000000	59.487163
2511.000000	59.455511
2510.000000	59.425773
2509.000000	59.400481
2508.000000	59.379521
2507.000000	59.361457
2506.000000	59.346646
2505.000000	59.336496
2504.000000	59.330634
2503.000000	59.327729
2502.000000	59.328205
2501.000000	59.333674
2500.000000	59.343991
2499.000000	59.357599
2498.000000	59.374411
2497.000000	59.395230
2496.000000	59.419317
2495.000000	59.445141
2494.000000	59.473121
2493.000000	59.505041
2492.000000	59.540818
2491.000000	59.578650
2490.000000	59.617629
2489.000000	59.657535
2488.000000	59.696858
2487.000000	59.733806
2486.000000	59.769262
2485.000000	59.806174
2484.000000	59.846277
2483.000000	59.889841
2482.000000	59.937648
2481.000000	59.990427
2480.000000	60.046608
2479.000000	60.103123
2478.000000	60.158150
2477.000000	60.210794
2476.000000	60.259022
2475.000000	60.300811
2474.000000	60.337187
2473.000000	60.371636
2472.000000	60.406879
2471.000000	60.443964
2470.000000	60.483348
2469.000000	60.524264
2468.000000	60.563405
2467.000000	60.597101
2466.000000	60.624454
2465.000000	60.646241
2464.000000	60.662073
2463.000000	60.670837
2462.000000	60.673217
2461.000000	60.670904
2460.000000	60.663820
2459.000000	60.651324
2458.000000	60.635372
2457.000000	60.620024
2456.000000	60.608128
2455.000000	60.600907
2454.000000	60.600089
2453.000000	60.607495
2452.000000	60.622691
2451.000000	60.643516
2450.000000	60.668927
2449.000000	60.698694
2448.000000	60.731297
2447.000000	60.764739
2446.000000	60.798918
2445.000000	60.834979
2444.000000	60.872458
2443.000000	60.909590
2442.000000	60.945771
2441.000000	60.981297
2440.000000	61.015375
2439.000000	61.046856
2438.000000	61.076521
2437.000000	61.106343
2436.000000	61.137157
2435.000000	61.169128
2434.000000	61.203357
2433.000000	61.240213
2432.000000	61.276632
2431.000000	61.307882
2430.000000	61.331452
2429.000000	61.347334
2428.000000	61.355614
2427.000000	61.356588
2426.000000	61.352822
2425.000000	61.347939
2424.000000	61.343685
2423.000000	61.340127
2422.000000	61.337876
2421.000000	61.337791
2420.000000	61.339247
2419.000000	61.341500
2418.000000	61.346173
2417.000000	61.355966
2416.000000	61.371315
2415.000000	61.390743
2414.000000	61.413424
2413.000000	61.438618
2412.000000	61.463547
2411.000000	61.484765
2410.000000	61.501441
2409.000000	61.514918
2408.000000	61.525821
2407.000000	61.534060
2406.000000	61.540835
2405.000000	61.547587
2404.000000	61.553341
2403.000000	61.555886
2402.000000	61.554839
2401.000000	61.551243
2400.000000	61.544558
2399.000000	61.532311
2398.000000	61.512353
2397.000000	61.482135
2396.000000	61.437100
2395.000000	61.372664
2394.000000	61.287429
2393.000000	61.183078
2392.000000	61.061152
2391.000000	60.923290
2390.000000	60.773268
2389.000000	60.615159
2388.000000	60.449960
2387.000000	60.276325
2386.000000	60.094956
2385.000000	59.909718
2384.000000	59.725689
2383.000000	59.549006
2382.000000	59.388859
2381.000000	59.255599
2380.000000	59.155375
2379.000000	59.089232
2378.000000	59.056121
2377.000000	59.053246
2376.000000	59.074370
2375.000000	59.110786
2374.000000	59.156316
2373.000000	59.208192
2372.000000	59.262451
2371.000000	59.312355
2370.000000	59.353999
2369.000000	59.388075
2368.000000	59.413151
2367.000000	59.424186
2366.000000	59.424267
2365.000000	59.421894
2364.000000	59.415523
2363.000000	59.402697
2362.000000	59.388142
2361.000000	59.383718
2360.000000	59.399568
2359.000000	59.425889
2358.000000	59.454588
2357.000000	59.482306
2356.000000	59.504219
2355.000000	59.518908
2354.000000	59.536550
2353.000000	59.581079
2352.000000	59.637262
2351.000000	59.653223
2350.000000	59.592123
2349.000000	59.466612
2348.000000	59.354105
2347.000000	59.331678
2346.000000	59.431484
2345.000000	59.609887
2344.000000	59.788958
2343.000000	59.925669
2342.000000	60.006786
2341.000000	60.045080
2340.000000	60.049328
2339.000000	60.033495
2338.000000	60.014201
2337.000000	60.010043
2336.000000	60.023514
2335.000000	60.052876
2334.000000	60.094986
2333.000000	60.162756
2332.000000	60.256691
2331.000000	60.368697
2330.000000	60.487213
2329.000000	60.588933
2328.000000	60.662599
2327.000000	60.698295
2326.000000	60.715322
2325.000000	60.735021
2324.000000	60.766028
2323.000000	60.805538
2322.000000	60.842015
2321.000000	60.875142
2320.000000	60.896173
2319.000000	60.898794
2318.000000	60.871888
2317.000000	60.815198
2316.000000	60.732261
2315.000000	60.632147
2314.000000	60.523663
2313.000000	60.411049
2312.000000	60.293981
2311.000000	60.169018
2310.000000	60.038011
2309.000000	59.903930
2308.000000	59.769467
2307.000000	59.634429
2306.000000	59.501176
2305.000000	59.374833
2304.000000	59.261612
2303.000000	59.170072
2302.000000	59.110925
2301.000000	59.092128
2300.000000	59.113835
2299.000000	59.167710
2298.000000	59.243691
2297.000000	59.329036
2296.000000	59.411276
2295.000000	59.479342
2294.000000	59.530816
2293.000000	59.567736
2292.000000	59.593013
2291.000000	59.607141
2290.000000	59.610918
2289.000000	59.603716
2288.000000	59.581552
2287.000000	59.538800
2286.000000	59.472322
2285.000000	59.381758
2284.000000	59.268442
2283.000000	59.138336
2282.000000	59.004966
2281.000000	58.886372
2280.000000	58.797286
2279.000000	58.746256
2278.000000	58.736011
2277.000000	58.764104
2276.000000	58.823601
2275.000000	58.909427
2274.000000	59.022629
2273.000000	59.166061
2272.000000	59.336623
2271.000000	59.524621
2270.000000	59.719922
2269.000000	59.914231
2268.000000	60.100328
2267.000000	60.273431
2266.000000	60.433757
2265.000000	60.583738
2264.000000	60.724104
2263.000000	60.853807
2262.000000	60.973396
2261.000000	61.084530
2260.000000	61.187414
2259.000000	61.282885
2258.000000	61.374905
2257.000000	61.469478
2256.000000	61.570359
2255.000000	61.679578
2254.000000	61.799463
2253.000000	61.931096
2252.000000	62.071723
2251.000000	62.216495
2250.000000	62.362894
2249.000000	62.509692
2248.000000	62.654532
2247.000000	62.794965
2246.000000	62.930910
2245.000000	63.063259
2244.000000	63.190723
2243.000000	63.311083
2242.000000	63.424361
2241.000000	63.532051
2240.000000	63.634093
2239.000000	63.729515
2238.000000	63.818923
2237.000000	63.903277
2236.000000	63.981235
2235.000000	64.050259
2234.000000	64.109821
2233.000000	64.161149
2232.000000	64.204627
2231.000000	64.240330
2230.000000	64.269809
2229.000000	64.294809
2228.000000	64.314858
2227.000000	64.328458
2226.000000	64.336080
2225.000000	64.339508
2224.000000	64.339464
2223.000000	64.336402
2222.000000	64.332661
2221.000000	64.331159
2220.000000	64.332480
2219.000000	64.335576
2218.000000	64.340395
2217.000000	64.347379
2216.000000	64.355422
2215.000000	64.362867
2214.000000	64.369631
2213.000000	64.375844
2212.000000	64.379387
2211.000000	64.377478
2210.000000	64.370228
2209.000000	64.360670
2208.000000	64.352411
2207.000000	64.349204
2206.000000	64.354829
2205.000000	64.369850
2204.000000	64.389040
2203.000000	64.404612
2202.000000	64.411960
2201.000000	64.411452
2200.000000	64.407481
2199.000000	64.409307
2198.000000	64.430396
2197.000000	64.481969
2196.000000	64.565675
2195.000000	64.673784
2194.000000	64.794951
2193.000000	64.917667
2192.000000	65.031286
2191.000000	65.128485
2190.000000	65.207674
2189.000000	65.270961
2188.000000	65.320589
2187.000000	65.359113
2186.000000	65.390829
2185.000000	65.419716
2184.000000	65.446258
2183.000000	65.468620
2182.000000	65.485943
2181.000000	65.498461
2180.000000	65.506045
2179.000000	65.509556
2178.000000	65.512617
2177.000000	65.518883
2176.000000	65.528159
2175.000000	65.537475
2174.000000	65.545001
2173.000000	65.550605
2172.000000	65.554120
2171.000000	65.556378
2170.000000	65.561231
2169.000000	65.573535
2168.000000	65.595070
2167.000000	65.624252
2166.000000	65.658636
2165.000000	65.695336
2164.000000	65.730564
2163.000000	65.762021
2162.000000	65.791475
2161.000000	65.822840
2160.000000	65.858380
2159.000000	65.898405
2158.000000	65.942811
2157.000000	65.990228
2156.000000	66.036940
2155.000000	66.079477
2154.000000	66.117665
2153.000000	66.153158
2152.000000	66.186434
2151.000000	66.217444
2150.000000	66.247495
2149.000000	66.277486
2148.000000	66.305195
2147.000000	66.327038
2146.000000	66.341652
2145.000000	66.349797
2144.000000	66.352376
2143.000000	66.350977
2142.000000	66.348913
2141.000000	66.348796
2140.000000	66.349469
2139.000000	66.347309
2138.000000	66.339851
2137.000000	66.326737
2136.000000	66.309506
2135.000000	66.293422
2134.000000	66.287722
2133.000000	66.300698
2132.000000	66.334261
2131.000000	66.384510
2130.000000	66.445818
2129.000000	66.511900
2128.000000	66.575251
2127.000000	66.629644
2126.000000	66.673022
2125.000000	66.705695
2124.000000	66.726870
2123.000000	66.734797
2122.000000	66.728835
2121.000000	66.709422
2120.000000	66.677462
2119.000000	66.636143
2118.000000	66.592124
2117.000000	66.552143
2116.000000	66.518999
2115.000000	66.492335
2114.000000	66.471154
2113.000000	66.453365
2112.000000	66.435070
2111.000000	66.413640
2110.000000	66.390693
2109.000000	66.369767
2108.000000	66.352637
2107.000000	66.340274
2106.000000	66.335289
2105.000000	66.340186
2104.000000	66.354418
2103.000000	66.375959
2102.000000	66.404413
2101.000000	66.439816
2100.000000	66.480348
2099.000000	66.524145
2098.000000	66.571844
2097.000000	66.623899
2096.000000	66.676796
2095.000000	66.725096
2094.000000	66.765471
2093.000000	66.796188
2092.000000	66.815013
2091.000000	66.821672
2090.000000	66.821535
2089.000000	66.823678
2088.000000	66.835920
2087.000000	66.863858
2086.000000	66.911822
2085.000000	66.980765
2084.000000	67.066396
2083.000000	67.162450
2082.000000	67.265231
2081.000000	67.372844
2080.000000	67.482102
2079.000000	67.589187
2078.000000	67.691749
2077.000000	67.787145
2076.000000	67.870957
2075.000000	67.940795
2074.000000	67.999478
2073.000000	68.052712
2072.000000	68.104453
2071.000000	68.156473
2070.000000	68.210683
2069.000000	68.267379
2068.000000	68.322188
2067.000000	68.368274
2066.000000	68.402177
2065.000000	68.426361
2064.000000	68.446851
2063.000000	68.470207
2062.000000	68.501390
2061.000000	68.541290
2060.000000	68.586097
2059.000000	68.630567
2058.000000	68.671457
2057.000000	68.707330
2056.000000	68.737817
2055.000000	68.765416
2054.000000	68.795772
2053.000000	68.833859
2052.000000	68.880208
2051.000000	68.931670
2050.000000	68.984716
2049.000000	69.036195
2048.000000	69.082467
2047.000000	69.121712
2046.000000	69.157070
2045.000000	69.194078
2044.000000	69.235009
2043.000000	69.277775
2042.000000	69.319339
2041.000000	69.357326
2040.000000	69.389392
2039.000000	69.414450
2038.000000	69.434587
2037.000000	69.453845
2036.000000	69.475351
2035.000000	69.501136
2034.000000	69.533139
2033.000000	69.571500
2032.000000	69.613269
2031.000000	69.655302
2030.000000	69.697199
2029.000000	69.740064
2028.000000	69.783351
2027.000000	69.825921
2026.000000	69.867760
2025.000000	69.908352
2024.000000	69.944275
2023.000000	69.970916
2022.000000	69.987792
2021.000000	69.998188
2020.000000	70.004155
2019.000000	70.005341
2018.000000	70.003194
2017.000000	70.002908
2016.000000	70.009656
2015.000000	70.024943
2014.000000	70.046965
2013.000000	70.072227
2012.000000	70.096759
2011.000000	70.118573
2010.000000	70.139169
2009.000000	70.161079
2008.000000	70.184550
2007.000000	70.208691
2006.000000	70.233201
2005.000000	70.257505
2004.000000	70.279866
2003.000000	70.299397
2002.000000	70.319423
2001.000000	70.343717
2000.000000	70.373388
1999.000000	70.407403
1998.000000	70.443930
1997.000000	70.482728
1996.000000	70.523982
1995.000000	70.564562
1994.000000	70.596780
1993.000000	70.613950
1992.000000	70.617789
1991.000000	70.617356
1990.000000	70.618679
1989.000000	70.619121
1988.000000	70.612601
1987.000000	70.597512
1986.000000	70.577992
1985.000000	70.559588
1984.000000	70.547434
1983.000000	70.547400
1982.000000	70.564648
1981.000000	70.597895
1980.000000	70.639799
1979.000000	70.681553
1978.000000	70.715906
1977.000000	70.740211
1976.000000	70.758018
1975.000000	70.778027
1974.000000	70.808770
1973.000000	70.855121
1972.000000	70.918500
1971.000000	70.996562
1970.000000	71.080835
1969.000000	71.157537
1968.000000	71.214607
1967.000000	71.250052
1966.000000	71.272313
1965.000000	71.291482
1964.000000	71.311711
1963.000000	71.331042
1962.000000	71.345136
1961.000000	71.351086
1960.000000	71.348970
1959.000000	71.340484
1958.000000	71.326422
1957.000000	71.305515
1956.000000	71.276738
1955.000000	71.241986
1954.000000	71.204796
1953.000000	71.168466
1952.000000	71.134584
1951.000000	71.105413
1950.000000	71.086101
1949.000000	71.079913
1948.000000	71.088205
1947.000000	71.114999
1946.000000	71.163861
1945.000000	71.229166
1944.000000	71.295461
1943.000000	71.351024
1942.000000	71.399901
1941.000000	71.454131
1940.000000	71.520150
1939.000000	71.597511
1938.000000	71.683598
1937.000000	71.775075
1936.000000	71.866692
1935.000000	71.951335
1934.000000	72.022766
1933.000000	72.079542
1932.000000	72.122663
1931.000000	72.155629
1930.000000	72.183969
1929.000000	72.207420
1928.000000	72.224537
1927.000000	72.237080
1926.000000	72.249279
1925.000000	72.257548
1924.000000	72.248591
1923.000000	72.223732
1922.000000	72.205164
1921.000000	72.209181
1920.000000	72.226636
1919.000000	72.236746
1918.000000	72.233356
1917.000000	72.224247
1916.000000	72.210220
1915.000000	72.188123
1914.000000	72.164408
1913.000000	72.151920
1912.000000	72.155115
1911.000000	72.168127
1910.000000	72.184012
1909.000000	72.196856
1908.000000	72.202986
1907.000000	72.201234
1906.000000	72.197805
1905.000000	72.200114
1904.000000	72.205696
1903.000000	72.211941
1902.000000	72.220123
1901.000000	72.227091
1900.000000	72.225994
1899.000000	72.215207
1898.000000	72.202409
1897.000000	72.194637
1896.000000	72.190360
1895.000000	72.194440
1894.000000	72.224727
1893.000000	72.291058
1892.000000	72.378732
1891.000000	72.461448
1890.000000	72.524492
1889.000000	72.570760
1888.000000	72.607079
1887.000000	72.638570
1886.000000	72.673443
1885.000000	72.719002
1884.000000	72.775200
1883.000000	72.838796
1882.000000	72.905755
1881.000000	72.965549
1880.000000	73.006375
1879.000000	73.025805
1878.000000	73.033568
1877.000000	73.043143
1876.000000	73.058960
1875.000000	73.080912
1874.000000	73.115574
1873.000000	73.167785
1872.000000	73.227474
1871.000000	73.274669
1870.000000	73.295847
1869.000000	73.294976
1868.000000	73.286072
1867.000000	73.280016
1866.000000	73.283650
1865.000000	73.297791
1864.000000	73.313586
1863.000000	73.321457
1862.000000	73.322013
1861.000000	73.322970
1860.000000	73.331444
1859.000000	73.356824
1858.000000	73.412194
1857.000000	73.501628
1856.000000	73.611496
1855.000000	73.722585
1854.000000	73.825777
1853.000000	73.916570
1852.000000	73.995538
1851.000000	74.069066
1850.000000	74.143011
1849.000000	74.223376
1848.000000	74.312074
1847.000000	74.406278
1846.000000	74.492863
1845.000000	74.553790
1844.000000	74.587813
1843.000000	74.607979
1842.000000	74.618154
1841.000000	74.617496
1840.000000	74.614022
1839.000000	74.618278
1838.000000	74.638242
1837.000000	74.671763
1836.000000	74.708873
1835.000000	74.750191
1834.000000	74.805445
1833.000000	74.878007
1832.000000	74.960813
1831.000000	75.037917
1830.000000	75.104270
1829.000000	75.174627
1828.000000	75.251979
1827.000000	75.318778
1826.000000	75.358749
1825.000000	75.379278
1824.000000	75.403661
1823.000000	75.442737
1822.000000	75.495383
1821.000000	75.563806
1820.000000	75.649058
1819.000000	75.739170
1818.000000	75.821989
1817.000000	75.896665
1816.000000	75.966357
1815.000000	76.035728
1814.000000	76.107133
1813.000000	76.180101
1812.000000	76.245375
1811.000000	76.290723
1810.000000	76.322460
1809.000000	76.352183
1808.000000	76.378015
1807.000000	76.399237
1806.000000	76.431937
1805.000000	76.492077
1804.000000	76.571420
1803.000000	76.647083
1802.000000	76.700799
1801.000000	76.732868
1800.000000	76.752496
1799.000000	76.764720
1798.000000	76.778333
1797.000000	76.799481
1796.000000	76.827778
1795.000000	76.863156
1794.000000	76.902158
1793.000000	76.935728
1792.000000	76.953819
1791.000000	76.950384
1790.000000	76.934005
1789.000000	76.923729
1788.000000	76.934254
1787.000000	76.967508
1786.000000	77.020067
1785.000000	77.085362
1784.000000	77.151679
1783.000000	77.211237
1782.000000	77.253193
1781.000000	77.273480
1780.000000	77.286551
1779.000000	77.308745
1778.000000	77.348819
1777.000000	77.404655
1776.000000	77.478379
1775.000000	77.572161
1774.000000	77.668396
1773.000000	77.750857
1772.000000	77.836082
1771.000000	77.929555
1770.000000	78.005869
1769.000000	78.053874
1768.000000	78.085900
1767.000000	78.121423
1766.000000	78.168485
1765.000000	78.224733
1764.000000	78.284243
1763.000000	78.333821
1762.000000	78.366951
1761.000000	78.399876
1760.000000	78.440927
1759.000000	78.477236
1758.000000	78.490848
1757.000000	78.474689
1756.000000	78.460064
1755.000000	78.471822
1754.000000	78.501427
1753.000000	78.535635
1752.000000	78.575260
1751.000000	78.622340
1750.000000	78.658185
1749.000000	78.654051
1748.000000	78.613700
1747.000000	78.570269
1746.000000	78.530970
1745.000000	78.484619
1744.000000	78.430011
1743.000000	78.373986
1742.000000	78.320142
1741.000000	78.265949
1740.000000	78.215582
1739.000000	78.190201
1738.000000	78.200350
1737.000000	78.239603
1736.000000	78.291716
1735.000000	78.332079
1734.000000	78.380665
1733.000000	78.446582
1732.000000	78.465995
1731.000000	78.412104
1730.000000	78.320091
1729.000000	78.224067
1728.000000	78.152071
1727.000000	78.110860
1726.000000	78.086665
1725.000000	78.066418
1724.000000	78.042653
1723.000000	78.016358
1722.000000	78.005288
1721.000000	78.021659
1720.000000	78.058148
1719.000000	78.084230
1718.000000	78.096851
1717.000000	78.125032
1716.000000	78.138147
1715.000000	78.091490
1714.000000	78.012425
1713.000000	77.942306
1712.000000	77.885171
1711.000000	77.837364
1710.000000	77.814795
1709.000000	77.832792
1708.000000	77.885784
1707.000000	77.947753
1706.000000	78.001944
1705.000000	78.056205
1704.000000	78.105718
1703.000000	78.145852
1702.000000	78.167292
1701.000000	78.169688
1700.000000	78.211422
1699.000000	78.290574
1698.000000	78.329383
1697.000000	78.293938
1696.000000	78.197550
1695.000000	78.096976
1694.000000	78.011249
1693.000000	77.910062
1692.000000	77.799786
1691.000000	77.702640
1690.000000	77.631506
1689.000000	77.580080
1688.000000	77.547972
1687.000000	77.539368
1686.000000	77.523247
1685.000000	77.435157
1684.000000	77.296666
1683.000000	77.185397
1682.000000	77.064515
1681.000000	76.884812
1680.000000	76.682653
1679.000000	76.513025
1678.000000	76.386344
1677.000000	76.250895
1676.000000	76.072355
1675.000000	75.888948
1674.000000	75.733944
1673.000000	75.580541
1672.000000	75.409943
1671.000000	75.225748
1670.000000	75.030225
1669.000000	74.816135
1668.000000	74.586079
1667.000000	74.354384
1666.000000	74.125106
1665.000000	73.885550
1664.000000	73.621889
1663.000000	73.353811
1662.000000	73.103908
1661.000000	72.845291
1660.000000	72.558779
1659.000000	72.264305
1658.000000	71.989556
1657.000000	71.743856
1656.000000	71.526437
1655.000000	71.275957
1654.000000	70.839055
1653.000000	70.243399
1652.000000	69.689321
1651.000000	69.176939
1650.000000	68.625125
1649.000000	67.977748
1648.000000	67.120717
1647.000000	66.023013
1646.000000	64.804158
1645.000000	63.594604
1644.000000	62.404398
1643.000000	61.216068
1642.000000	60.031080
1641.000000	58.895144
1640.000000	57.907760
1639.000000	57.146886
1638.000000	56.621273
1637.000000	56.301089
1636.000000	56.216176
1635.000000	56.408960
1634.000000	56.777008
1633.000000	57.189942
1632.000000	57.627922
1631.000000	58.126028
1630.000000	58.700506
1629.000000	59.332885
1628.000000	59.989764
1627.000000	60.635373
1626.000000	61.240295
1625.000000	61.809798
1624.000000	62.383072
1623.000000	62.985033
1622.000000	63.577948
1621.000000	64.106276
1620.000000	64.586397
1619.000000	65.086496
1618.000000	65.661263
1617.000000	66.317369
1616.000000	66.986842
1615.000000	67.553974
1614.000000	67.967076
1613.000000	68.269624
1612.000000	68.521478
1611.000000	68.740021
1610.000000	68.873014
1609.000000	68.842102
1608.000000	68.594420
1607.000000	68.090328
1606.000000	67.263995
1605.000000	66.025976
1604.000000	64.329330
1603.000000	62.182591
1602.000000	59.628913
1601.000000	56.705530
1600.000000	53.368494
1599.000000	49.464985
1598.000000	44.793736
1597.000000	39.335995
1596.000000	33.534330
1595.000000	28.299386
1594.000000	24.532446
1593.000000	22.541900
1592.000000	22.016487
1591.000000	22.445964
1590.000000	23.428032
1589.000000	24.661071
1588.000000	25.891376
1587.000000	26.935148
1586.000000	27.705126
1585.000000	28.243019
1584.000000	28.696051
1583.000000	29.208809
1582.000000	29.809391
1581.000000	30.441840
1580.000000	31.099428
1579.000000	31.850534
1578.000000	32.724897
1577.000000	33.621083
1576.000000	34.363537
1575.000000	34.862284
1574.000000	35.147767
1573.000000	35.292005
1572.000000	35.396614
1571.000000	35.615475
1570.000000	36.098373
1569.000000	36.856857
1568.000000	37.803707
1567.000000	38.907323
1566.000000	40.164000
1565.000000	41.479435
1564.000000	42.714143
1563.000000	43.807762
1562.000000	44.817953
1561.000000	45.855740
1560.000000	47.087112
1559.000000	48.632059
1558.000000	50.214747
1557.000000	51.459550
1556.000000	52.425143
1555.000000	53.351541
1554.000000	54.305640
1553.000000	55.218873
1552.000000	56.024069
1551.000000	56.744761
1550.000000	57.419973
1549.000000	58.045900
1548.000000	58.609201
1547.000000	59.142695
1546.000000	59.686161
1545.000000	60.229032
1544.000000	60.731201
1543.000000	61.186843
1542.000000	61.634447
1541.000000	62.094896
1540.000000	62.551126
1539.000000	62.984733
1538.000000	63.360562
1537.000000	63.669608
1536.000000	63.961533
1535.000000	64.286441
1534.000000	64.654213
1533.000000	65.031132
1532.000000	65.370251
1531.000000	65.662701
1530.000000	65.949559
1529.000000	66.254147
1528.000000	66.557408
1527.000000	66.839352
1526.000000	67.100826
1525.000000	67.349725
1524.000000	67.595171
1523.000000	67.845850
1522.000000	68.098881
1521.000000	68.336142
1520.000000	68.532990
1519.000000	68.684531
1518.000000	68.807242
1517.000000	68.904941
1516.000000	68.978217
1515.000000	69.048318
1514.000000	69.137690
1513.000000	69.261192
1512.000000	69.417765
1511.000000	69.600363
1510.000000	69.805574
1509.000000	70.019447
1508.000000	70.181977
1507.000000	70.254039
1506.000000	70.321499
1505.000000	70.413767
1504.000000	70.478910
1503.000000	70.537159
1502.000000	70.623866
1501.000000	70.745573
1500.000000	70.888840
1499.000000	71.039602
1498.000000	71.193978
1497.000000	71.361677
1496.000000	71.544538
1495.000000	71.735802
1494.000000	71.943605
1493.000000	72.185297
1492.000000	72.463245
1491.000000	72.754647
1490.000000	73.029558
1489.000000	73.268651
1488.000000	73.466817
1487.000000	73.648497
1486.000000	73.855818
1485.000000	74.088144
1484.000000	74.327079
1483.000000	74.569813
1482.000000	74.812595
1481.000000	75.042558
1480.000000	75.252475
1479.000000	75.464744
1478.000000	75.704627
1477.000000	75.970425
1476.000000	76.238909
1475.000000	76.508374
1474.000000	76.783207
1473.000000	77.038421
1472.000000	77.249731
1471.000000	77.412776
1470.000000	77.534329
1469.000000	77.624910
1468.000000	77.693070
1467.000000	77.727194
1466.000000	77.652686
1465.000000	77.328198
1464.000000	76.656044
1463.000000	75.626867
1462.000000	74.262423
1461.000000	72.596992
1460.000000	70.685968
1459.000000	68.545276
1458.000000	66.094935
1457.000000	63.463654
1456.000000	61.141208
1455.000000	59.342309
1454.000000	57.771357
1453.000000	56.132807
1452.000000	54.406871
1451.000000	52.759158
1450.000000	51.288382
1449.000000	49.931416
1448.000000	48.611541
1447.000000	47.413306
1446.000000	46.602045
1445.000000	46.533570
1444.000000	47.498774
1443.000000	49.492282
1442.000000	52.123335
1441.000000	54.833216
1440.000000	57.215969
1439.000000	59.135203
1438.000000	60.643235
1437.000000	61.869615
1436.000000	62.939862
1435.000000	63.922504
1434.000000	64.871272
1433.000000	65.857550
1432.000000	66.895069
1431.000000	67.904309
1430.000000	68.787509
1429.000000	69.517196
1428.000000	70.114520
1427.000000	70.612794
1426.000000	71.051529
1425.000000	71.466249
1424.000000	71.871973
1423.000000	72.252183
1422.000000	72.606113
1421.000000	72.962834
1420.000000	73.332168
1419.000000	73.670357
1418.000000	73.935230
1417.000000	74.145566
1416.000000	74.341782
1415.000000	74.546765
1414.000000	74.767349
1413.000000	75.003528
1412.000000	75.237540
1411.000000	75.437643
1410.000000	75.595099
1409.000000	75.733001
1408.000000	75.857871
1407.000000	75.940286
1406.000000	75.929523
1405.000000	75.767735
1404.000000	75.421926
1403.000000	74.916078
1402.000000	74.333534
1401.000000	73.765664
1400.000000	73.270867
1399.000000	72.871762
1398.000000	72.566888
1397.000000	72.357568
1396.000000	72.277873
1395.000000	72.382219
1394.000000	72.659938
1393.000000	73.002102
1392.000000	73.290189
1391.000000	73.479365
1390.000000	73.598268
1389.000000	73.705743
1388.000000	73.856475
1387.000000	74.085081
1386.000000	74.397245
1385.000000	74.772491
1384.000000	75.187785
1383.000000	75.626711
1382.000000	76.080516
1381.000000	76.541822
1380.000000	76.992394
1379.000000	77.407386
1378.000000	77.765892
1377.000000	78.045390
1376.000000	78.196234
1375.000000	78.136224
1374.000000	77.773347
1373.000000	77.029633
1372.000000	75.816321
1371.000000	73.984072
1370.000000	71.341627
1369.000000	67.816158
1368.000000	63.705999
1367.000000	59.735252
1366.000000	56.748210
1365.000000	55.313926
1364.000000	55.552347
1363.000000	57.141200
1362.000000	59.475305
1361.000000	62.003288
1360.000000	64.441365
1359.000000	66.691024
1358.000000	68.695593
1357.000000	70.407213
1356.000000	71.814570
1355.000000	72.946943
1354.000000	73.860457
1353.000000	74.624019
1352.000000	75.291295
1351.000000	75.882505
1350.000000	76.396802
1349.000000	76.837763
1348.000000	77.220917
1347.000000	77.557712
1346.000000	77.855948
1345.000000	78.129130
1344.000000	78.395565
1343.000000	78.663311
1342.000000	78.928820
1341.000000	79.182332
1340.000000	79.408385
1339.000000	79.590951
1338.000000	79.728743
1337.000000	79.842399
1336.000000	79.957654
1335.000000	80.087097
1334.000000	80.233360
1333.000000	80.397871
1332.000000	80.576217
1331.000000	80.752803
1330.000000	80.910533
1329.000000	81.042710
1328.000000	81.142348
1327.000000	81.184711
1326.000000	81.122196
1325.000000	80.885632
1324.000000	80.390638
1323.000000	79.541396
1322.000000	78.261490
1321.000000	76.535626
1320.000000	74.420327
1319.000000	72.025741
1318.000000	69.494792
1317.000000	67.019521
1316.000000	64.882070
1315.000000	63.431071
1314.000000	62.921345
1313.000000	63.342743
1312.000000	64.416723
1311.000000	65.770217
1310.000000	67.141840
1309.000000	68.441223
1308.000000	69.687220
1307.000000	70.934519
1306.000000	72.218866
1305.000000	73.523356
1304.000000	74.774428
1303.000000	75.882548
1302.000000	76.799748
1301.000000	77.533055
1300.000000	78.103484
1299.000000	78.520090
1298.000000	78.785884
1297.000000	78.888706
1296.000000	78.786255
1295.000000	78.416295
1294.000000	77.733556
1293.000000	76.713627
1292.000000	75.344325
1291.000000	73.702769
1290.000000	72.048837
1289.000000	70.742094
1288.000000	69.960750
1287.000000	69.493537
1286.000000	68.887469
1285.000000	67.849736
1284.000000	66.480848
1283.000000	65.157964
1282.000000	64.266545
1281.000000	64.014135
1280.000000	64.394576
1279.000000	65.217720
1278.000000	66.165703
1277.000000	66.871374
1276.000000	66.961502
1275.000000	66.107013
1274.000000	64.226553
1273.000000	61.791858
1272.000000	59.868090
1271.000000	59.568786
1270.000000	61.282257
1269.000000	64.417095
1268.000000	67.897207
1267.000000	70.892715
1266.000000	73.135535
1265.000000	74.745193
1264.000000	75.932096
1263.000000	76.849938
1262.000000	77.591321
1261.000000	78.213070
1260.000000	78.746758
1259.000000	79.211434
1258.000000	79.631179
1257.000000	80.022446
1256.000000	80.383029
1255.000000	80.706403
1254.000000	80.995472
1253.000000	81.258987
1252.000000	81.500449
1251.000000	81.723782
1250.000000	81.941276
1249.000000	82.164246
1248.000000	82.392133
1247.000000	82.618293
1246.000000	82.840816
1245.000000	83.059572
1244.000000	83.268291
1243.000000	83.461231
1242.000000	83.643674
1241.000000	83.825825
1240.000000	84.009283
1239.000000	84.187361
1238.000000	84.355315
1237.000000	84.509611
1236.000000	84.640901
1235.000000	84.739925
1234.000000	84.807325
1233.000000	84.849371
1232.000000	84.863863
1231.000000	84.837919
1230.000000	84.758462
1229.000000	84.607998
1228.000000	84.356478
1227.000000	83.962318
1226.000000	83.376070
1225.000000	82.542199
1224.000000	81.387747
1223.000000	79.841650
1222.000000	77.872214
1221.000000	75.507160
1220.000000	72.846355
1219.000000	70.041936
1218.000000	67.253127
1217.000000	64.592284
1216.000000	62.096803
1215.000000	59.744286
1214.000000	57.486123
1213.000000	55.284274
1212.000000	53.142175
1211.000000	51.118110
1210.000000	49.297719
1209.000000	47.773977
1208.000000	46.636059
1207.000000	45.931377
1206.000000	45.628270
1205.000000	45.614680
1204.000000	45.780951
1203.000000	46.102320
1202.000000	46.635566
1201.000000	47.468406
1200.000000	48.643927
1199.000000	50.126866
1198.000000	51.824549
1197.000000	53.635493
1196.000000	55.498336
1195.000000	57.387497
1194.000000	59.285834
1193.000000	61.171146
1192.000000	63.015456
1191.000000	64.785432
1190.000000	66.446093
1189.000000	67.969904
1188.000000	69.339907
1187.000000	70.551301
1186.000000	71.604494
1185.000000	72.504859
1184.000000	73.262584
1183.000000	73.887160
1182.000000	74.392616
1181.000000	74.792708
1180.000000	75.097638
1179.000000	75.317575
1178.000000	75.464918
1177.000000	75.557277
1176.000000	75.610695
1175.000000	75.638338
1174.000000	75.655943
1173.000000	75.682084
1172.000000	75.734545
1171.000000	75.827524
1170.000000	75.971827
1169.000000	76.172148
1168.000000	76.421852
1167.000000	76.700501
1166.000000	76.978004
1165.000000	77.221408
1164.000000	77.403535
1163.000000	77.518087
1162.000000	77.592112
1161.000000	77.678878
1160.000000	77.830777
1159.000000	78.073427
1158.000000	78.400140
1157.000000	78.783539
1156.000000	79.191696
1155.000000	79.600324
1154.000000	79.996883
1153.000000	80.375533
1152.000000	80.727272
1151.000000	81.037388
1150.000000	81.291765
1149.000000	81.483853
1148.000000	81.613454
1147.000000	81.687197
1146.000000	81.720095
1145.000000	81.726692
1144.000000	81.710766
1143.000000	81.659176
1142.000000	81.547564
1141.000000	81.348170
1140.000000	81.027252
1139.000000	80.551248
1138.000000	79.884390
1137.000000	78.984114
1136.000000	77.802657
1135.000000	76.280662
1134.000000	74.360914
1133.000000	71.992041
1132.000000	69.147758
1131.000000	65.870767
1130.000000	62.295235
1129.000000	58.646746
1128.000000	55.208030
1127.000000	52.248510
1126.000000	49.931439
1125.000000	48.267563
1124.000000	47.132925
1123.000000	46.311185
1122.000000	45.517895
1121.000000	44.407657
1120.000000	42.590572
1119.000000	39.700464
1118.000000	35.586397
1117.000000	30.611294
1116.000000	25.793980
1115.000000	22.539650
1114.000000	21.951437
1113.000000	24.234665
1112.000000	28.660538
1111.000000	33.981663
1110.000000	38.998990
1109.000000	42.936934
1108.000000	45.484205
1107.000000	46.562347
1106.000000	46.093881
1105.000000	44.058976
1104.000000	40.870182
1103.000000	37.637350
1102.000000	35.826088
1101.000000	36.435867
1100.000000	39.412902
1099.000000	43.796293
1098.000000	48.410479
1097.000000	52.493273
1096.000000	55.809511
1095.000000	58.432226
1094.000000	60.524495
1093.000000	62.248924
1092.000000	63.733945
1091.000000	65.064630
1090.000000	66.294178
1089.000000	67.462329
1088.000000	68.601547
1087.000000	69.719578
1086.000000	70.809023
1085.000000	71.860424
1084.000000	72.857708
1083.000000	73.780322
1082.000000	74.617077
1081.000000	75.375699
1080.000000	76.065902
1079.000000	76.682762
1078.000000	77.220797
1077.000000	77.681365
1076.000000	78.062773
1075.000000	78.353824
1074.000000	78.539347
1073.000000	78.608142
1072.000000	78.528636
1071.000000	78.237777
1070.000000	77.657987
1069.000000	76.695908
1068.000000	75.250420
1067.000000	73.213091
1066.000000	70.506288
1065.000000	67.139051
1064.000000	63.221519
1063.000000	58.973363
1062.000000	54.664443
1061.000000	50.510934
1060.000000	46.583096
1059.000000	42.774735
1058.000000	38.885696
1057.000000	34.795551
1056.000000	30.636730
1055.000000	26.811382
1054.000000	23.875523
1053.000000	22.322944
1052.000000	22.431140
1051.000000	24.185377
1050.000000	27.244706
1049.000000	31.079703
1048.000000	35.140620
1047.000000	39.007873
1046.000000	42.472615
1045.000000	45.505894
1044.000000	48.177476
1043.000000	50.559189
1042.000000	52.682140
1041.000000	54.544985
1040.000000	56.150081
1039.000000	57.509708
1038.000000	58.651575
1037.000000	59.621311
1036.000000	60.465522
1035.000000	61.225520
1034.000000	61.930864
1033.000000	62.602517
1032.000000	63.253003
1031.000000	63.882399
1030.000000	64.487977
1029.000000	65.072367
1028.000000	65.644697
1027.000000	66.219640
1026.000000	66.818604
1025.000000	67.463841
1024.000000	68.162438
1023.000000	68.897398
1022.000000	69.637979
1021.000000	70.350192
1020.000000	70.998106
1019.000000	71.543604
1018.000000	71.949837
1017.000000	72.181087
1016.000000	72.171192
1015.000000	71.820693
1014.000000	71.012096
1013.000000	69.622823
1012.000000	67.557217
1011.000000	64.745593
1010.000000	61.159404
1009.000000	56.813022
1008.000000	51.822952
1007.000000	46.577054
1006.000000	41.869788
1005.000000	38.743237
1004.000000	37.986911
1003.000000	39.624703
1002.000000	42.821618
1001.000000	46.348287
1000.000000	49.136879
999.000000	50.521397
998.000000	50.229534
997.000000	48.415424
996.000000	45.779239
995.000000	43.442198
994.000000	42.418371
993.000000	43.046319
992.000000	44.908797
991.000000	47.262227
990.000000	49.555054
989.000000	51.622363
988.000000	53.547637
987.000000	55.427242
986.000000	57.273089
985.000000	59.032387
984.000000	60.639880
983.000000	62.049707
982.000000	63.255274
981.000000	64.283797
980.000000	65.169997
979.000000	65.944887
978.000000	66.634247
977.000000	67.263036
976.000000	67.845687
975.000000	68.381642
974.000000	68.870863
973.000000	69.318331
972.000000	69.728214
971.000000	70.101782
970.000000	70.445941
969.000000	70.776140
968.000000	71.102232
967.000000	71.422347
966.000000	71.732331
965.000000	72.031034
964.000000	72.314582
963.000000	72.574933
962.000000	72.810823
961.000000	73.030910
960.000000	73.241378
959.000000	73.441675
958.000000	73.634037
957.000000	73.826540
956.000000	74.021783
955.000000	74.212194
954.000000	74.392007
953.000000	74.562464
952.000000	74.722295
951.000000	74.865219
950.000000	74.992088
949.000000	75.114774
948.000000	75.241896
947.000000	75.370470
946.000000	75.496115
945.000000	75.619138
944.000000	75.736331
943.000000	75.838428
942.000000	75.922858
941.000000	75.999630
940.000000	76.079317
939.000000	76.165801
938.000000	76.263594
937.000000	76.379358
936.000000	76.509736
935.000000	76.638712
934.000000	76.752961
933.000000	76.850645
932.000000	76.932397
931.000000	76.997527
930.000000	77.054178
929.000000	77.119560
928.000000	77.202587
927.000000	77.295940
926.000000	77.389611
925.000000	77.478853
924.000000	77.556200
923.000000	77.611603
922.000000	77.648460
921.000000	77.686134
920.000000	77.740417
919.000000	77.812925
918.000000	77.902415
917.000000	78.009432
916.000000	78.123027
915.000000	78.219752
914.000000	78.286164
913.000000	78.330736
912.000000	78.368108
911.000000	78.407753
910.000000	78.462686
909.000000	78.548679
908.000000	78.663086
907.000000	78.778579
906.000000	78.866717
905.000000	78.913509
904.000000	78.910052
903.000000	78.852689
902.000000	78.761590
901.000000	78.677309
900.000000	78.622177
899.000000	78.573132
898.000000	78.478130
897.000000	78.276876
896.000000	77.921983
895.000000	77.419791
894.000000	76.842139
893.000000	76.234930
892.000000	75.493309
891.000000	74.425780
890.000000	73.031211
889.000000	71.678276
888.000000	70.884708
887.000000	70.895225
886.000000	71.503402
885.000000	72.291061
884.000000	72.982072
883.000000	73.525367
882.000000	73.959031
881.000000	74.301918
880.000000	74.572500
879.000000	74.832007
878.000000	75.155103
877.000000	75.572482
876.000000	76.054244
875.000000	76.541322
874.000000	76.985701
873.000000	77.370654
872.000000	77.702822
871.000000	77.989485
870.000000	78.226286
869.000000	78.400534
868.000000	78.501580
867.000000	78.523940
866.000000	78.468222
865.000000	78.346184
864.000000	78.181435
863.000000	78.007453
862.000000	77.862019
861.000000	77.777724
860.000000	77.768873
859.000000	77.824723
858.000000	77.918688
857.000000	78.027048
856.000000	78.140507
855.000000	78.260479
854.000000	78.391977
853.000000	78.536248
852.000000	78.684579
851.000000	78.818985
850.000000	78.923440
849.000000	78.994198
848.000000	79.038439
847.000000	79.066999
846.000000	79.091082
845.000000	79.121157
844.000000	79.161627
843.000000	79.208343
842.000000	79.254821
841.000000	79.297962
840.000000	79.335733
839.000000	79.364760
838.000000	79.385186
837.000000	79.403075
836.000000	79.422878
835.000000	79.442307
834.000000	79.458768
833.000000	79.475241
832.000000	79.494063
831.000000	79.510090
830.000000	79.516936
829.000000	79.515809
828.000000	79.512591
827.000000	79.510739
826.000000	79.512901
825.000000	79.523632
824.000000	79.543175
823.000000	79.563741
822.000000	79.579049
821.000000	79.590837
820.000000	79.598994
819.000000	79.592889
818.000000	79.559351
817.000000	79.493174
816.000000	79.386965
815.000000	79.215932
814.000000	78.936498
813.000000	78.481863
812.000000	77.754672
811.000000	76.644587
810.000000	75.121375
809.000000	73.348418
808.000000	71.692564
807.000000	70.563727
806.000000	70.193633
805.000000	70.530694
804.000000	71.322567
803.000000	72.291093
802.000000	73.240324
801.000000	74.066559
800.000000	74.720069
799.000000	75.181659
798.000000	75.457220
797.000000	75.564937
796.000000	75.517223
795.000000	75.316598
794.000000	74.968654
793.000000	74.485478
792.000000	73.888294
791.000000	73.214279
790.000000	72.524083
789.000000	71.891304
788.000000	71.378304
787.000000	71.021949
786.000000	70.834534
785.000000	70.807046
784.000000	70.905436
783.000000	71.074640
782.000000	71.252887
781.000000	71.388807
780.000000	71.453946
779.000000	71.452404
778.000000	71.425961
777.000000	71.438594
776.000000	71.545390
775.000000	71.770476
774.000000	72.105718
773.000000	72.519888
772.000000	72.967669
771.000000	73.404392
770.000000	73.804293
769.000000	74.163897
768.000000	74.488874
767.000000	74.782992
766.000000	75.049475
765.000000	75.290559
764.000000	75.502113
763.000000	75.675760
762.000000	75.810529
761.000000	75.915503
760.000000	75.999082
759.000000	76.064916
758.000000	76.119195
757.000000	76.172087
756.000000	76.227965
755.000000	76.281888
754.000000	76.328560
753.000000	76.365885
752.000000	76.388085
751.000000	76.385869
750.000000	76.357725
749.000000	76.312653
748.000000	76.258165
747.000000	76.194077
746.000000	76.120654
745.000000	76.042231
744.000000	75.957559
743.000000	75.854916
742.000000	75.722392
741.000000	75.557397
740.000000	75.364331
739.000000	75.152894
738.000000	74.941669
737.000000	74.751411
736.000000	74.585651
735.000000	74.420462
734.000000	74.215660
733.000000	73.930333
732.000000	73.529963
731.000000	72.997060
730.000000	72.349177
729.000000	71.644082
728.000000	70.958607
727.000000	70.366220
726.000000	69.931005
725.000000	69.702223
724.000000	69.698547
723.000000	69.901752
722.000000	70.274506
721.000000	70.773690
720.000000	71.342382
719.000000	71.910622
718.000000	72.424670
717.000000	72.866871
716.000000	73.238812
715.000000	73.537879
714.000000	73.757316
713.000000	73.897465
712.000000	73.966302
711.000000	73.977935
710.000000	73.958329
709.000000	73.943820
708.000000	73.961846
707.000000	74.016351
706.000000	74.095721
705.000000	74.183151
704.000000	74.257126
703.000000	74.297921
702.000000	74.303478
701.000000	74.292877
700.000000	74.287928
699.000000	74.298323
698.000000	74.326323
697.000000	74.368879
696.000000	74.409399
695.000000	74.421672
694.000000	74.390620
693.000000	74.324603
692.000000	74.243667
691.000000	74.167215
690.000000	74.116758
689.000000	74.110889
688.000000	74.145830
687.000000	74.191448
686.000000	74.216735
685.000000	74.209750
684.000000	74.170736
683.000000	74.104953
682.000000	74.031063
681.000000	73.980032
680.000000	73.972690
679.000000	74.007473
678.000000	74.073230
677.000000	74.161722
676.000000	74.254948
675.000000	74.325017
674.000000	74.362914
673.000000	74.363346
672.000000	74.292192
671.000000	74.121859
670.000000	73.921151
669.000000	73.909862
668.000000	74.250557
667.000000	74.707188
666.000000	74.943458
665.000000	74.952052
664.000000	74.883077
663.000000	74.837016
662.000000	74.827331
661.000000	74.835290
660.000000	74.855960
659.000000	74.888889
658.000000	74.922527
657.000000	74.950816
656.000000	74.975476
655.000000	74.987548
654.000000	74.980247
653.000000	74.961207
652.000000	74.943249
651.000000	74.931695
650.000000	74.933132
649.000000	74.962610
648.000000	75.024075
647.000000	75.095693
646.000000	75.149255
645.000000	75.175251
644.000000	75.177418
643.000000	75.158900
642.000000	75.128966
641.000000	75.110001
640.000000	75.120785
639.000000	75.160051
638.000000	75.216619
637.000000	75.280152
636.000000	75.331670
635.000000	75.342626
634.000000	75.303654
633.000000	75.243029
632.000000	75.201508
631.000000	75.199430
630.000000	75.238709
629.000000	75.315564
628.000000	75.410848
627.000000	75.484595
626.000000	75.504105
625.000000	75.471864
624.000000	75.414245
623.000000	75.356896
622.000000	75.320937
621.000000	75.324547
620.000000	75.368961
619.000000	75.431634
618.000000	75.485404
617.000000	75.514716
616.000000	75.506723
615.000000	75.451923
614.000000	75.371438
613.000000	75.319644
612.000000	75.337284
611.000000	75.414037
610.000000	75.510707
609.000000	75.594568
608.000000	75.637663
607.000000	75.611848
606.000000	75.518222
605.000000	75.401886
604.000000	75.311479
603.000000	75.257676
602.000000	75.222963
601.000000	75.183376
600.000000	75.095471
599.000000	74.893899
598.000000	74.536587
597.000000	74.029740
596.000000	73.389065
595.000000	72.592871
594.000000	71.548212
593.000000	70.044174
592.000000	67.733911
591.000000	64.366799
590.000000	60.231181
589.000000	56.348709
588.000000	54.025573
587.000000	54.023777
586.000000	56.031695
585.000000	58.944282
584.000000	61.725237
583.000000	63.947183
582.000000	65.664281
581.000000	67.040164
580.000000	68.159772
579.000000	69.054662
578.000000	69.759203
577.000000	70.312529
576.000000	70.747897
575.000000	71.099337
574.000000	71.395090
573.000000	71.649632
572.000000	71.862075
571.000000	72.022155
570.000000	72.121519
569.000000	72.157073
568.000000	72.132254
567.000000	72.048392
566.000000	71.887733
565.000000	71.605727
564.000000	71.144431
563.000000	70.481603
562.000000	69.672258
561.000000	68.834236
560.000000	68.081438
559.000000	67.459319
558.000000	66.934650
557.000000	66.454053
556.000000	66.034419
555.000000	65.788842
554.000000	65.853668
553.000000	66.281571
552.000000	67.003071
551.000000	67.866081
550.000000	68.702368
549.000000	69.397129
548.000000	69.915354
547.000000	70.276147
546.000000	70.518747
545.000000	70.687123
544.000000	70.819595
543.000000	70.937418
542.000000	71.043706
541.000000	71.126774
540.000000	71.167214
539.000000	71.147420
538.000000	71.067643
537.000000	70.953197
536.000000	70.836302
535.000000	70.735613
534.000000	70.653824
533.000000	70.588531
532.000000	70.529923
531.000000	70.459460
530.000000	70.364175
529.000000	70.247735
528.000000	70.115862
527.000000	69.959566
526.000000	69.753641
525.000000	69.470281
524.000000	69.086102
523.000000	68.574000
522.000000	67.911958
521.000000	67.093807
520.000000	66.127775
519.000000	65.025363
518.000000	63.799984
517.000000	62.493140
516.000000	61.204639
515.000000	60.084882
514.000000	59.279407
513.000000	58.883434
512.000000	58.920693
511.000000	59.349474
510.000000	60.077660
509.000000	60.999622
508.000000	62.035103
507.000000	63.116576
506.000000	64.176562
505.000000	65.172040
504.000000	66.098230
503.000000	66.952599
502.000000	67.708152
501.000000	68.345549
500.000000	68.886662
499.000000	69.375923
498.000000	69.837413
497.000000	70.269718
496.000000	70.657865
495.000000	70.978124
494.000000	71.211156
493.000000	71.357587
492.000000	71.443575
491.000000	71.508402
490.000000	71.583228
489.000000	71.683214
488.000000	71.792027
487.000000	71.854508
486.000000	71.791021
485.000000	71.522281
484.000000	70.993152
483.000000	70.171852
482.000000	69.051288
481.000000	67.655092
480.000000	66.029477
479.000000	64.227315
478.000000	62.295363
477.000000	60.318451
476.000000	58.484172
475.000000	57.087194
474.000000	56.403801
473.000000	56.552285
472.000000	57.434738
471.000000	58.802054
470.000000	60.414694
469.000000	62.112786
468.000000	63.778793
467.000000	65.299702
466.000000	66.606671
465.000000	67.719535
464.000000	68.690354
463.000000	69.539132
462.000000	70.265773
461.000000	70.889892
460.000000	71.432530
459.000000	71.889086
458.000000	72.250756
457.000000	72.541791
456.000000	72.801027
455.000000	73.040592
454.000000	73.265880
453.000000	73.485305
452.000000	73.681990
451.000000	73.826513
450.000000	73.930940
449.000000	74.053954
448.000000	74.226959
447.000000	74.415726
446.000000	74.578999
445.000000	74.720108
444.000000	74.838361
443.000000	74.898326
442.000000	74.898431
441.000000	74.909865
440.000000	74.992687
439.000000	75.129293
438.000000	75.277525
437.000000	75.419396
436.000000	75.522107
435.000000	75.519448
434.000000	75.393858
433.000000	75.209389
432.000000	75.018447
431.000000	74.809311
430.000000	74.583178
429.000000	74.393991
428.000000	74.274726
427.000000	74.202035
426.000000	74.168054
425.000000	74.209574
424.000000	74.325878
423.000000	74.455018
422.000000	74.590060
421.000000	74.821543
420.000000	75.183624
419.000000	75.516277
418.000000	75.642978
417.000000	75.646176
416.000000	75.687059
415.000000	75.790520
414.000000	75.931662
413.000000	76.135924
412.000000	76.397176
411.000000	76.593968
410.000000	76.619360
409.000000	76.492869
408.000000	76.259871
407.000000	75.912621
406.000000	75.547175
405.000000	75.394577
404.000000	75.606224
403.000000	76.022462
402.000000	76.244926
401.000000	76.457727
400.000000	76.608257
