PE IR       SUBTECH     SPECTRUM    ASCII       PEDS        4.00        
   -1
23ms122-cis.asc
24/10/22
15:56:01.00
24/10/22
15:56:01.00
Administrator
Sample 1334 By Administrator Date Tuesday, October 22 2024
400.000000
#HDR
-1
-1
#GR
cm-1
%T
1.0
0.0
4000.000000
-1.000000
3601
8
85.384466
3.928216
#DATA
4000.000000	57.069111
3999.000000	57.051752
3998.000000	57.038723
3997.000000	57.029364
3996.000000	57.022562
3995.000000	57.017774
3994.000000	57.015424
3993.000000	57.015915
3992.000000	57.018468
3991.000000	57.021731
3990.000000	57.025701
3989.000000	57.032433
3988.000000	57.044451
3987.000000	57.062851
3986.000000	57.087536
3985.000000	57.118259
3984.000000	57.154576
3983.000000	57.195304
3982.000000	57.239012
3981.000000	57.285196
3980.000000	57.334471
3979.000000	57.387466
3978.000000	57.443561
3977.000000	57.500820
3976.000000	57.557487
3975.000000	57.612604
3974.000000	57.665525
3973.000000	57.715810
3972.000000	57.763289
3971.000000	57.808316
3970.000000	57.851391
3969.000000	57.893898
3968.000000	57.938040
3967.000000	57.985762
3966.000000	58.038151
3965.000000	58.095458
3964.000000	58.157432
3963.000000	58.223306
3962.000000	58.292131
3961.000000	58.363190
3960.000000	58.436137
3959.000000	58.510497
3958.000000	58.584676
3957.000000	58.658048
3956.000000	58.731434
3955.000000	58.805512
3954.000000	58.879961
3953.000000	58.952775
3952.000000	59.021588
3951.000000	59.084349
3950.000000	59.140912
3949.000000	59.193776
3948.000000	59.246098
3947.000000	59.300909
3946.000000	59.359674
3945.000000	59.419249
3944.000000	59.471964
3943.000000	59.512061
3942.000000	59.544283
3941.000000	59.580298
3940.000000	59.627026
3939.000000	59.683154
3938.000000	59.741827
3937.000000	59.798936
3936.000000	59.856527
3935.000000	59.916860
3934.000000	59.978042
3933.000000	60.033965
3932.000000	60.081847
3931.000000	60.122848
3930.000000	60.157609
3929.000000	60.188487
3928.000000	60.219292
3927.000000	60.252626
3926.000000	60.283117
3925.000000	60.301891
3924.000000	60.312031
3923.000000	60.325472
3922.000000	60.345750
3921.000000	60.366100
3920.000000	60.381541
3919.000000	60.396672
3918.000000	60.415582
3917.000000	60.435035
3916.000000	60.451728
3915.000000	60.467197
3914.000000	60.484209
3913.000000	60.503112
3912.000000	60.523160
3911.000000	60.549205
3910.000000	60.583998
3909.000000	60.628269
3908.000000	60.681593
3907.000000	60.738673
3906.000000	60.789929
3905.000000	60.824322
3904.000000	60.846770
3903.000000	60.878181
3902.000000	60.930058
3901.000000	60.993586
3900.000000	61.049346
3899.000000	61.088160
3898.000000	61.119986
3897.000000	61.157180
3896.000000	61.202565
3895.000000	61.256734
3894.000000	61.317592
3893.000000	61.383533
3892.000000	61.447431
3891.000000	61.502221
3890.000000	61.549345
3889.000000	61.601683
3888.000000	61.673659
3887.000000	61.758878
3886.000000	61.832923
3885.000000	61.888889
3884.000000	61.940201
3883.000000	61.993468
3882.000000	62.035711
3881.000000	62.050465
3880.000000	62.043136
3879.000000	62.036444
3878.000000	62.046176
3877.000000	62.074428
3876.000000	62.108873
3875.000000	62.127681
3874.000000	62.124998
3873.000000	62.127198
3872.000000	62.164493
3871.000000	62.227082
3870.000000	62.279349
3869.000000	62.316683
3868.000000	62.359105
3867.000000	62.415079
3866.000000	62.466426
3865.000000	62.490539
3864.000000	62.497069
3863.000000	62.511430
3862.000000	62.537567
3861.000000	62.575042
3860.000000	62.623414
3859.000000	62.681807
3858.000000	62.754294
3857.000000	62.850214
3856.000000	62.966434
3855.000000	63.055803
3854.000000	63.093961
3853.000000	63.138324
3852.000000	63.207406
3851.000000	63.245441
3850.000000	63.227761
3849.000000	63.182219
3848.000000	63.143647
3847.000000	63.133646
3846.000000	63.152232
3845.000000	63.190032
3844.000000	63.238244
3843.000000	63.288057
3842.000000	63.339117
3841.000000	63.403345
3840.000000	63.475082
3839.000000	63.542311
3838.000000	63.606999
3837.000000	63.668509
3836.000000	63.714211
3835.000000	63.735634
3834.000000	63.744155
3833.000000	63.754789
3832.000000	63.768014
3831.000000	63.783891
3830.000000	63.809858
3829.000000	63.850089
3828.000000	63.898056
3827.000000	63.940855
3826.000000	63.971151
3825.000000	64.005937
3824.000000	64.067556
3823.000000	64.152398
3822.000000	64.228658
3821.000000	64.276606
3820.000000	64.313704
3819.000000	64.364633
3818.000000	64.436254
3817.000000	64.504030
3816.000000	64.539901
3815.000000	64.552896
3814.000000	64.568153
3813.000000	64.584370
3812.000000	64.586649
3811.000000	64.581237
3810.000000	64.594295
3809.000000	64.641885
3808.000000	64.712142
3807.000000	64.780561
3806.000000	64.839690
3805.000000	64.903958
3804.000000	64.982870
3803.000000	65.067739
3802.000000	65.127230
3801.000000	65.157283
3800.000000	65.183031
3799.000000	65.208603
3798.000000	65.222494
3797.000000	65.216336
3796.000000	65.200623
3795.000000	65.197183
3794.000000	65.218032
3793.000000	65.252528
3792.000000	65.285569
3791.000000	65.316929
3790.000000	65.353384
3789.000000	65.394736
3788.000000	65.436558
3787.000000	65.477133
3786.000000	65.516885
3785.000000	65.552907
3784.000000	65.582702
3783.000000	65.613352
3782.000000	65.651614
3781.000000	65.690703
3780.000000	65.717517
3779.000000	65.735518
3778.000000	65.760501
3777.000000	65.800273
3776.000000	65.845370
3775.000000	65.884105
3774.000000	65.918193
3773.000000	65.959589
3772.000000	66.013276
3771.000000	66.070393
3770.000000	66.123993
3769.000000	66.180186
3768.000000	66.243961
3767.000000	66.312224
3766.000000	66.376723
3765.000000	66.428032
3764.000000	66.471367
3763.000000	66.525497
3762.000000	66.596681
3761.000000	66.668073
3760.000000	66.723285
3759.000000	66.776832
3758.000000	66.842216
3757.000000	66.911870
3756.000000	66.983521
3755.000000	67.067451
3754.000000	67.168210
3753.000000	67.266559
3752.000000	67.349397
3751.000000	67.444443
3750.000000	67.566511
3749.000000	67.678715
3748.000000	67.757412
3747.000000	67.833075
3746.000000	67.923225
3745.000000	67.996538
3744.000000	68.050145
3743.000000	68.106777
3742.000000	68.152038
3741.000000	68.171876
3740.000000	68.180037
3739.000000	68.212378
3738.000000	68.288785
3737.000000	68.383317
3736.000000	68.456969
3735.000000	68.497135
3734.000000	68.528394
3733.000000	68.571022
3732.000000	68.615979
3731.000000	68.646397
3730.000000	68.659549
3729.000000	68.671429
3728.000000	68.693284
3727.000000	68.713501
3726.000000	68.724469
3725.000000	68.735955
3724.000000	68.754413
3723.000000	68.769368
3722.000000	68.774019
3721.000000	68.781563
3720.000000	68.805248
3719.000000	68.851721
3718.000000	68.912922
3717.000000	68.977576
3716.000000	69.050324
3715.000000	69.138125
3714.000000	69.238366
3713.000000	69.336188
3712.000000	69.423490
3711.000000	69.506856
3710.000000	69.589728
3709.000000	69.670695
3708.000000	69.743211
3707.000000	69.801275
3706.000000	69.849077
3705.000000	69.896610
3704.000000	69.946371
3703.000000	69.990303
3702.000000	70.024992
3701.000000	70.060480
3700.000000	70.103319
3699.000000	70.152605
3698.000000	70.204660
3697.000000	70.252080
3696.000000	70.295491
3695.000000	70.344301
3694.000000	70.403659
3693.000000	70.467998
3692.000000	70.525781
3691.000000	70.569998
3690.000000	70.609495
3689.000000	70.668308
3688.000000	70.749282
3687.000000	70.818505
3686.000000	70.850600
3685.000000	70.853074
3684.000000	70.843480
3683.000000	70.840988
3682.000000	70.862905
3681.000000	70.907436
3680.000000	70.958719
3679.000000	71.009041
3678.000000	71.077660
3677.000000	71.167274
3676.000000	71.249235
3675.000000	71.318018
3674.000000	71.380251
3673.000000	71.437493
3672.000000	71.492225
3671.000000	71.526222
3670.000000	71.526317
3669.000000	71.519810
3668.000000	71.527931
3667.000000	71.538496
3666.000000	71.537858
3665.000000	71.529126
3664.000000	71.523647
3663.000000	71.533375
3662.000000	71.557195
3661.000000	71.583007
3660.000000	71.610143
3659.000000	71.645370
3658.000000	71.691949
3657.000000	71.741668
3656.000000	71.791676
3655.000000	71.848035
3654.000000	71.911031
3653.000000	71.977835
3652.000000	72.039533
3651.000000	72.077699
3650.000000	72.096428
3649.000000	72.131012
3648.000000	72.193402
3647.000000	72.254771
3646.000000	72.288267
3645.000000	72.296881
3644.000000	72.298499
3643.000000	72.305484
3642.000000	72.315461
3641.000000	72.327192
3640.000000	72.347237
3639.000000	72.375987
3638.000000	72.406863
3637.000000	72.436892
3636.000000	72.473005
3635.000000	72.514368
3634.000000	72.546983
3633.000000	72.565670
3632.000000	72.582429
3631.000000	72.602213
3630.000000	72.600429
3629.000000	72.570471
3628.000000	72.546993
3627.000000	72.535011
3626.000000	72.500234
3625.000000	72.427888
3624.000000	72.332077
3623.000000	72.233108
3622.000000	72.139997
3621.000000	72.041316
3620.000000	71.919647
3619.000000	71.780759
3618.000000	71.646006
3617.000000	71.523082
3616.000000	71.405336
3615.000000	71.277509
3614.000000	71.126990
3613.000000	70.960999
3612.000000	70.801636
3611.000000	70.659459
3610.000000	70.524130
3609.000000	70.379557
3608.000000	70.218133
3607.000000	70.043474
3606.000000	69.859602
3605.000000	69.668828
3604.000000	69.474395
3603.000000	69.278656
3602.000000	69.087966
3601.000000	68.912138
3600.000000	68.758319
3599.000000	68.623326
3598.000000	68.495392
3597.000000	68.361598
3596.000000	68.218515
3595.000000	68.063498
3594.000000	67.896808
3593.000000	67.725548
3592.000000	67.557988
3591.000000	67.403066
3590.000000	67.270876
3589.000000	67.168892
3588.000000	67.099177
3587.000000	67.059520
3586.000000	67.037988
3585.000000	67.015324
3584.000000	66.974142
3583.000000	66.906455
3582.000000	66.815642
3581.000000	66.711148
3580.000000	66.601711
3579.000000	66.488975
3578.000000	66.372125
3577.000000	66.252526
3576.000000	66.133034
3575.000000	66.014950
3574.000000	65.896866
3573.000000	65.778154
3572.000000	65.656769
3571.000000	65.528639
3570.000000	65.390913
3569.000000	65.241746
3568.000000	65.079518
3567.000000	64.907611
3566.000000	64.732580
3565.000000	64.554576
3564.000000	64.367977
3563.000000	64.167588
3562.000000	63.952179
3561.000000	63.725564
3560.000000	63.493339
3559.000000	63.258980
3558.000000	63.023423
3557.000000	62.787457
3556.000000	62.550447
3555.000000	62.308512
3554.000000	62.056032
3553.000000	61.791587
3552.000000	61.520046
3551.000000	61.245174
3550.000000	60.964555
3549.000000	60.673558
3548.000000	60.369744
3547.000000	60.053769
3546.000000	59.727297
3545.000000	59.392536
3544.000000	59.050999
3543.000000	58.701284
3542.000000	58.339697
3541.000000	57.964438
3540.000000	57.575639
3539.000000	57.171703
3538.000000	56.749430
3537.000000	56.308811
3536.000000	55.855106
3535.000000	55.391673
3534.000000	54.916952
3533.000000	54.427231
3532.000000	53.919966
3531.000000	53.392264
3530.000000	52.840251
3529.000000	52.263481
3528.000000	51.666005
3527.000000	51.051206
3526.000000	50.417943
3525.000000	49.764167
3524.000000	49.091078
3523.000000	48.401486
3522.000000	47.696225
3521.000000	46.974386
3520.000000	46.234483
3519.000000	45.474043
3518.000000	44.691724
3517.000000	43.890713
3516.000000	43.077162
3515.000000	42.253942
3514.000000	41.420500
3513.000000	40.576918
3512.000000	39.723127
3511.000000	38.855740
3510.000000	37.972316
3509.000000	37.078610
3508.000000	36.184483
3507.000000	35.291776
3506.000000	34.392641
3505.000000	33.481497
3504.000000	32.563389
3503.000000	31.648646
3502.000000	30.743869
3501.000000	29.850610
3500.000000	28.967492
3499.000000	28.090835
3498.000000	27.218236
3497.000000	26.353500
3496.000000	25.504465
3495.000000	24.675072
3494.000000	23.864271
3493.000000	23.072944
3492.000000	22.304627
3491.000000	21.559135
3490.000000	20.832931
3489.000000	20.126724
3488.000000	19.447123
3487.000000	18.799246
3486.000000	18.182777
3485.000000	17.595709
3484.000000	17.035101
3483.000000	16.494701
3482.000000	15.969274
3481.000000	15.461927
3480.000000	14.980869
3479.000000	14.527502
3478.000000	14.094346
3477.000000	13.674537
3476.000000	13.266155
3475.000000	12.867836
3474.000000	12.476855
3473.000000	12.093381
3472.000000	11.721265
3471.000000	11.364322
3470.000000	11.028476
3469.000000	10.725944
3468.000000	10.469943
3467.000000	10.264507
3466.000000	10.104366
3465.000000	9.984522
3464.000000	9.903235
3463.000000	9.858070
3462.000000	9.847804
3461.000000	9.877119
3460.000000	9.952653
3459.000000	10.073097
3458.000000	10.228885
3457.000000	10.411232
3456.000000	10.614128
3455.000000	10.829126
3454.000000	11.045538
3453.000000	11.255074
3452.000000	11.450986
3451.000000	11.623271
3450.000000	11.760167
3449.000000	11.854765
3448.000000	11.904773
3447.000000	11.906976
3446.000000	11.858966
3445.000000	11.763855
3444.000000	11.628502
3443.000000	11.458487
3442.000000	11.258580
3441.000000	11.037698
3440.000000	10.806901
3439.000000	10.574298
3438.000000	10.348177
3437.000000	10.142361
3436.000000	9.971647
3435.000000	9.841972
3434.000000	9.749794
3433.000000	9.690019
3432.000000	9.661413
3431.000000	9.665469
3430.000000	9.706737
3429.000000	9.793650
3428.000000	9.932186
3427.000000	10.121709
3426.000000	10.359027
3425.000000	10.645198
3424.000000	10.984799
3423.000000	11.378878
3422.000000	11.826507
3421.000000	12.328474
3420.000000	12.884196
3419.000000	13.487967
3418.000000	14.131022
3417.000000	14.808015
3416.000000	15.515767
3415.000000	16.248714
3414.000000	17.001621
3413.000000	17.772400
3412.000000	18.558557
3411.000000	19.352809
3410.000000	20.146845
3409.000000	20.937606
3408.000000	21.724070
3407.000000	22.500225
3406.000000	23.256650
3405.000000	23.987565
3404.000000	24.692529
3403.000000	25.374097
3402.000000	26.038447
3401.000000	26.695436
3400.000000	27.351587
3399.000000	28.002516
3398.000000	28.637068
3397.000000	29.247774
3396.000000	29.833438
3395.000000	30.395475
3394.000000	30.937406
3393.000000	31.467412
3392.000000	31.994880
3391.000000	32.522929
3390.000000	33.048415
3389.000000	33.567627
3388.000000	34.078772
3387.000000	34.580387
3386.000000	35.071795
3385.000000	35.555272
3384.000000	36.033968
3383.000000	36.508667
3382.000000	36.979689
3381.000000	37.449938
3380.000000	37.922520
3379.000000	38.396586
3378.000000	38.869350
3377.000000	39.340778
3376.000000	39.812155
3375.000000	40.281681
3374.000000	40.745532
3373.000000	41.202688
3372.000000	41.655402
3371.000000	42.106128
3370.000000	42.557361
3369.000000	43.012615
3368.000000	43.473446
3367.000000	43.936352
3366.000000	44.395818
3365.000000	44.849388
3364.000000	45.297319
3363.000000	45.739435
3362.000000	46.175881
3361.000000	46.609176
3360.000000	47.041929
3359.000000	47.473305
3358.000000	47.900768
3357.000000	48.323931
3356.000000	48.743186
3355.000000	49.156488
3354.000000	49.561192
3353.000000	49.958353
3352.000000	50.352006
3351.000000	50.744458
3350.000000	51.134965
3349.000000	51.522037
3348.000000	51.903960
3347.000000	52.278240
3346.000000	52.643528
3345.000000	53.001575
3344.000000	53.354803
3343.000000	53.702155
3342.000000	54.040500
3341.000000	54.369191
3340.000000	54.690623
3339.000000	55.006842
3338.000000	55.317486
3337.000000	55.620965
3336.000000	55.914655
3335.000000	56.194637
3334.000000	56.457762
3333.000000	56.703089
3332.000000	56.930457
3331.000000	57.137543
3330.000000	57.320444
3329.000000	57.476838
3328.000000	57.605407
3327.000000	57.704093
3326.000000	57.769801
3325.000000	57.798940
3324.000000	57.787730
3323.000000	57.730300
3322.000000	57.621121
3321.000000	57.457085
3320.000000	57.234713
3319.000000	56.948766
3318.000000	56.591942
3317.000000	56.158317
3316.000000	55.642345
3315.000000	55.034438
3314.000000	54.324209
3313.000000	53.502069
3312.000000	52.559521
3311.000000	51.488712
3310.000000	50.282200
3309.000000	48.940437
3308.000000	47.468107
3307.000000	45.868941
3306.000000	44.146483
3305.000000	42.303372
3304.000000	40.344518
3303.000000	38.273508
3302.000000	36.096354
3301.000000	33.828910
3300.000000	31.494915
3299.000000	29.124867
3298.000000	26.758447
3297.000000	24.446812
3296.000000	22.243956
3295.000000	20.195726
3294.000000	18.335407
3293.000000	16.687144
3292.000000	15.262374
3291.000000	14.048793
3290.000000	13.018316
3289.000000	12.135660
3288.000000	11.364946
3287.000000	10.673738
3286.000000	10.034999
3285.000000	9.435861
3284.000000	8.872233
3283.000000	8.343203
3282.000000	7.854052
3281.000000	7.416793
3280.000000	7.046245
3279.000000	6.752472
3278.000000	6.542761
3277.000000	6.426755
3276.000000	6.410167
3275.000000	6.489746
3274.000000	6.655610
3273.000000	6.894963
3272.000000	7.190404
3271.000000	7.514806
3270.000000	7.836035
3269.000000	8.123877
3268.000000	8.350013
3267.000000	8.488524
3266.000000	8.524248
3265.000000	8.458350
3264.000000	8.303610
3263.000000	8.078354
3262.000000	7.805670
3261.000000	7.515404
3260.000000	7.236789
3259.000000	6.990733
3258.000000	6.792940
3257.000000	6.658285
3256.000000	6.596209
3255.000000	6.605830
3254.000000	6.680215
3253.000000	6.811247
3252.000000	6.988947
3251.000000	7.197829
3250.000000	7.422012
3249.000000	7.651615
3248.000000	7.878817
3247.000000	8.093544
3246.000000	8.285713
3245.000000	8.449154
3244.000000	8.579693
3243.000000	8.673725
3242.000000	8.732133
3241.000000	8.762669
3240.000000	8.773814
3239.000000	8.768509
3238.000000	8.748470
3237.000000	8.718447
3236.000000	8.683683
3235.000000	8.647473
3234.000000	8.613849
3233.000000	8.588319
3232.000000	8.570148
3231.000000	8.548796
3230.000000	8.512827
3229.000000	8.457823
3228.000000	8.382864
3227.000000	8.284486
3226.000000	8.159843
3225.000000	8.011608
3224.000000	7.843602
3223.000000	7.656380
3222.000000	7.451282
3221.000000	7.235245
3220.000000	7.016857
3219.000000	6.800268
3218.000000	6.587660
3217.000000	6.383039
3216.000000	6.188978
3215.000000	6.003407
3214.000000	5.823825
3213.000000	5.650829
3212.000000	5.483950
3211.000000	5.318819
3210.000000	5.152641
3209.000000	4.988695
3208.000000	4.831136
3207.000000	4.680166
3206.000000	4.536437
3205.000000	4.404608
3204.000000	4.288554
3203.000000	4.187129
3202.000000	4.099138
3201.000000	4.028137
3200.000000	3.977179
3199.000000	3.944539
3198.000000	3.928216
3197.000000	3.930201
3196.000000	3.952434
3195.000000	3.992203
3194.000000	4.047281
3193.000000	4.119829
3192.000000	4.211058
3191.000000	4.317589
3190.000000	4.435929
3189.000000	4.567001
3188.000000	4.711593
3187.000000	4.865966
3186.000000	5.026941
3185.000000	5.195672
3184.000000	5.372981
3183.000000	5.555527
3182.000000	5.740634
3181.000000	5.930451
3180.000000	6.126470
3179.000000	6.325007
3178.000000	6.522079
3177.000000	6.718079
3176.000000	6.913741
3175.000000	7.106140
3174.000000	7.293005
3173.000000	7.476379
3172.000000	7.657940
3171.000000	7.834913
3170.000000	8.004771
3169.000000	8.169539
3168.000000	8.331422
3167.000000	8.488735
3166.000000	8.639531
3165.000000	8.785131
3164.000000	8.926163
3163.000000	9.059313
3162.000000	9.182034
3161.000000	9.295614
3160.000000	9.400707
3159.000000	9.494367
3158.000000	9.574770
3157.000000	9.645010
3156.000000	9.708365
3155.000000	9.765002
3154.000000	9.816884
3153.000000	9.870606
3152.000000	9.931468
3151.000000	9.998676
3150.000000	10.070111
3149.000000	10.147254
3148.000000	10.231716
3147.000000	10.321528
3146.000000	10.414897
3145.000000	10.513251
3144.000000	10.616918
3143.000000	10.722367
3142.000000	10.827018
3141.000000	10.932491
3140.000000	11.039454
3139.000000	11.143727
3138.000000	11.240946
3137.000000	11.330669
3136.000000	11.412352
3135.000000	11.481563
3134.000000	11.534051
3133.000000	11.568118
3132.000000	11.580262
3131.000000	11.562685
3130.000000	11.508663
3129.000000	11.417543
3128.000000	11.290190
3127.000000	11.126190
3126.000000	10.928839
3125.000000	10.707885
3124.000000	10.474596
3123.000000	10.236700
3122.000000	10.001802
3121.000000	9.779773
3120.000000	9.577143
3119.000000	9.393365
3118.000000	9.226075
3117.000000	9.075623
3116.000000	8.940881
3115.000000	8.816133
3114.000000	8.695868
3113.000000	8.578960
3112.000000	8.464781
3111.000000	8.350246
3110.000000	8.234920
3109.000000	8.123804
3108.000000	8.021709
3107.000000	7.929084
3106.000000	7.846206
3105.000000	7.777213
3104.000000	7.725799
3103.000000	7.692486
3102.000000	7.679628
3101.000000	7.693413
3100.000000	7.738622
3099.000000	7.814579
3098.000000	7.920330
3097.000000	8.058788
3096.000000	8.230986
3095.000000	8.433235
3094.000000	8.661979
3093.000000	8.917672
3092.000000	9.200805
3091.000000	9.507528
3090.000000	9.834032
3089.000000	10.179034
3088.000000	10.539575
3087.000000	10.909696
3086.000000	11.285505
3085.000000	11.668034
3084.000000	12.057287
3083.000000	12.448600
3082.000000	12.838034
3081.000000	13.226191
3080.000000	13.614315
3079.000000	14.000963
3078.000000	14.385358
3077.000000	14.768864
3076.000000	15.150229
3075.000000	15.524061
3074.000000	15.886999
3073.000000	16.241030
3072.000000	16.587977
3071.000000	16.925885
3070.000000	17.253539
3069.000000	17.573965
3068.000000	17.890287
3067.000000	18.201702
3066.000000	18.506753
3065.000000	18.806266
3064.000000	19.100501
3063.000000	19.387694
3062.000000	19.667566
3061.000000	19.942770
3060.000000	20.214366
3059.000000	20.479994
3058.000000	20.738934
3057.000000	20.994272
3056.000000	21.247969
3055.000000	21.497886
3054.000000	21.742408
3053.000000	21.984035
3052.000000	22.225459
3051.000000	22.466067
3050.000000	22.704543
3049.000000	22.941136
3048.000000	23.175142
3047.000000	23.403894
3046.000000	23.626949
3045.000000	23.847665
3044.000000	24.068592
3043.000000	24.289119
3042.000000	24.509162
3041.000000	24.730793
3040.000000	24.953747
3039.000000	25.173639
3038.000000	25.387554
3037.000000	25.597695
3036.000000	25.807528
3035.000000	26.018065
3034.000000	26.229876
3033.000000	26.444563
3032.000000	26.661470
3031.000000	26.876911
3030.000000	27.089068
3029.000000	27.299877
3028.000000	27.510270
3027.000000	27.717799
3026.000000	27.921132
3025.000000	28.122586
3024.000000	28.323174
3023.000000	28.519080
3022.000000	28.705447
3021.000000	28.879679
3020.000000	29.038898
3019.000000	29.177073
3018.000000	29.288034
3017.000000	29.368388
3016.000000	29.416180
3015.000000	29.431777
3014.000000	29.423161
3013.000000	29.408481
3012.000000	29.410030
3011.000000	29.447223
3010.000000	29.534324
3009.000000	29.678197
3008.000000	29.873635
3007.000000	30.103068
3006.000000	30.343285
3005.000000	30.570807
3004.000000	30.760476
3003.000000	30.883813
3002.000000	30.912983
3001.000000	30.825311
3000.000000	30.608858
2999.000000	30.272741
2998.000000	29.860809
2997.000000	29.452093
2996.000000	29.139945
2995.000000	29.002459
2994.000000	29.078794
2993.000000	29.359556
2992.000000	29.790132
2991.000000	30.293098
2990.000000	30.798612
2989.000000	31.263344
2988.000000	31.669693
2987.000000	32.015383
2986.000000	32.306905
2985.000000	32.553589
2984.000000	32.761315
2983.000000	32.929737
2982.000000	33.057185
2981.000000	33.143411
2980.000000	33.186308
2979.000000	33.179404
2978.000000	33.115904
2977.000000	32.995977
2976.000000	32.828861
2975.000000	32.633902
2974.000000	32.440114
2973.000000	32.279628
2972.000000	32.175418
2971.000000	32.131569
2970.000000	32.132034
2969.000000	32.142099
2968.000000	32.111065
2967.000000	31.985559
2966.000000	31.733393
2965.000000	31.361183
2964.000000	30.911429
2963.000000	30.445079
2962.000000	30.023653
2961.000000	29.694902
2960.000000	29.485200
2959.000000	29.401347
2958.000000	29.441053
2957.000000	29.597011
2956.000000	29.852141
2955.000000	30.177780
2954.000000	30.539440
2953.000000	30.902380
2952.000000	31.230355
2951.000000	31.490395
2950.000000	31.664861
2949.000000	31.760170
2948.000000	31.800062
2947.000000	31.807906
2946.000000	31.787881
2945.000000	31.708430
2944.000000	31.502987
2943.000000	31.102866
2942.000000	30.497768
2941.000000	29.779545
2940.000000	29.130388
2939.000000	28.753359
2938.000000	28.783338
2937.000000	29.231886
2936.000000	29.992196
2935.000000	30.900758
2934.000000	31.810778
2933.000000	32.633524
2932.000000	33.336386
2931.000000	33.923317
2930.000000	34.417603
2929.000000	34.846454
2928.000000	35.230399
2927.000000	35.580183
2926.000000	35.903067
2925.000000	36.205716
2924.000000	36.490682
2923.000000	36.755638
2922.000000	36.999012
2921.000000	37.222611
2920.000000	37.427007
2919.000000	37.609966
2918.000000	37.770678
2917.000000	37.911982
2916.000000	38.036586
2915.000000	38.144784
2914.000000	38.237639
2913.000000	38.318228
2912.000000	38.387918
2911.000000	38.444710
2910.000000	38.485967
2909.000000	38.509086
2908.000000	38.507914
2907.000000	38.471022
2906.000000	38.385365
2905.000000	38.237996
2904.000000	38.013443
2903.000000	37.696042
2902.000000	37.278934
2901.000000	36.772013
2900.000000	36.204431
2899.000000	35.623959
2898.000000	35.092984
2897.000000	34.676818
2896.000000	34.423745
2895.000000	34.351854
2894.000000	34.451211
2893.000000	34.691581
2892.000000	35.030656
2891.000000	35.423362
2890.000000	35.833208
2889.000000	36.235840
2888.000000	36.615137
2887.000000	36.960273
2886.000000	37.266789
2885.000000	37.536237
2884.000000	37.770526
2883.000000	37.970362
2882.000000	38.139055
2881.000000	38.283941
2880.000000	38.412388
2879.000000	38.529320
2878.000000	38.639399
2877.000000	38.747396
2876.000000	38.854701
2875.000000	38.958477
2874.000000	39.056324
2873.000000	39.148837
2872.000000	39.237491
2871.000000	39.324568
2870.000000	39.416468
2869.000000	39.522970
2868.000000	39.650412
2867.000000	39.797837
2866.000000	39.960371
2865.000000	40.132228
2864.000000	40.305345
2863.000000	40.470298
2862.000000	40.621739
2861.000000	40.760471
2860.000000	40.888963
2859.000000	41.007993
2858.000000	41.119128
2857.000000	41.226569
2856.000000	41.334250
2855.000000	41.443908
2854.000000	41.557152
2853.000000	41.675645
2852.000000	41.797316
2851.000000	41.915658
2850.000000	42.024758
2849.000000	42.122802
2848.000000	42.210282
2847.000000	42.288574
2846.000000	42.361715
2845.000000	42.435892
2844.000000	42.515044
2843.000000	42.599098
2842.000000	42.687442
2841.000000	42.781352
2840.000000	42.881852
2839.000000	42.988195
2838.000000	43.099742
2837.000000	43.216640
2836.000000	43.337716
2835.000000	43.460550
2834.000000	43.584542
2833.000000	43.711289
2832.000000	43.841059
2831.000000	43.971613
2830.000000	44.101339
2829.000000	44.230506
2828.000000	44.358473
2827.000000	44.482760
2826.000000	44.602051
2825.000000	44.717387
2824.000000	44.829366
2823.000000	44.936820
2822.000000	45.039456
2821.000000	45.139061
2820.000000	45.236800
2819.000000	45.331789
2818.000000	45.423192
2817.000000	45.511256
2816.000000	45.595436
2815.000000	45.674134
2814.000000	45.747375
2813.000000	45.817274
2812.000000	45.884986
2811.000000	45.949779
2810.000000	46.011869
2809.000000	46.073374
2808.000000	46.135355
2807.000000	46.196506
2806.000000	46.255829
2805.000000	46.314117
2804.000000	46.371811
2803.000000	46.427965
2802.000000	46.482431
2801.000000	46.536673
2800.000000	46.591471
2799.000000	46.646054
2798.000000	46.700178
2797.000000	46.754556
2796.000000	46.808507
2795.000000	46.859775
2794.000000	46.907515
2793.000000	46.953043
2792.000000	46.997101
2791.000000	47.039065
2790.000000	47.079437
2789.000000	47.120074
2788.000000	47.160921
2787.000000	47.199302
2786.000000	47.233617
2785.000000	47.265460
2784.000000	47.297427
2783.000000	47.331790
2782.000000	47.372091
2781.000000	47.422611
2780.000000	47.484527
2779.000000	47.554789
2778.000000	47.629834
2777.000000	47.708182
2776.000000	47.788602
2775.000000	47.868627
2774.000000	47.946408
2773.000000	48.021723
2772.000000	48.094114
2771.000000	48.162346
2770.000000	48.226604
2769.000000	48.288905
2768.000000	48.350301
2767.000000	48.409640
2766.000000	48.465860
2765.000000	48.519003
2764.000000	48.568255
2763.000000	48.611711
2762.000000	48.649123
2761.000000	48.682661
2760.000000	48.713981
2759.000000	48.742693
2758.000000	48.768602
2757.000000	48.792760
2756.000000	48.815236
2755.000000	48.834288
2754.000000	48.849085
2753.000000	48.861707
2752.000000	48.875821
2751.000000	48.895185
2750.000000	48.923552
2749.000000	48.962804
2748.000000	49.009684
2747.000000	49.056598
2746.000000	49.097073
2745.000000	49.129296
2744.000000	49.154726
2743.000000	49.176079
2742.000000	49.196951
2741.000000	49.219961
2740.000000	49.243349
2739.000000	49.261561
2738.000000	49.271152
2737.000000	49.275592
2736.000000	49.284227
2735.000000	49.308407
2734.000000	49.357865
2733.000000	49.436228
2732.000000	49.537863
2731.000000	49.650710
2730.000000	49.763412
2729.000000	49.869529
2728.000000	49.966058
2727.000000	50.051680
2726.000000	50.127546
2725.000000	50.196600
2724.000000	50.260194
2723.000000	50.316967
2722.000000	50.365235
2721.000000	50.404247
2720.000000	50.433206
2719.000000	50.451570
2718.000000	50.461660
2717.000000	50.469031
2716.000000	50.479034
2715.000000	50.494777
2714.000000	50.518357
2713.000000	50.551282
2712.000000	50.592836
2711.000000	50.640260
2710.000000	50.691304
2709.000000	50.744806
2708.000000	50.798583
2707.000000	50.849236
2706.000000	50.894731
2705.000000	50.934883
2704.000000	50.968677
2703.000000	50.993639
2702.000000	51.008489
2701.000000	51.013746
2700.000000	51.009421
2699.000000	50.994500
2698.000000	50.969702
2697.000000	50.938897
2696.000000	50.906662
2695.000000	50.876559
2694.000000	50.851870
2693.000000	50.834962
2692.000000	50.824909
2691.000000	50.818081
2690.000000	50.812119
2689.000000	50.807602
2688.000000	50.805615
2687.000000	50.806210
2686.000000	50.810120
2685.000000	50.819217
2684.000000	50.834180
2683.000000	50.854160
2682.000000	50.879349
2681.000000	50.911814
2680.000000	50.952650
2679.000000	51.000111
2678.000000	51.051272
2677.000000	51.103162
2676.000000	51.151981
2675.000000	51.193738
2674.000000	51.226584
2673.000000	51.250817
2672.000000	51.266534
2671.000000	51.273651
2670.000000	51.274845
2669.000000	51.276196
2668.000000	51.284011
2667.000000	51.302691
2666.000000	51.335333
2665.000000	51.383049
2664.000000	51.442419
2663.000000	51.506070
2662.000000	51.566668
2661.000000	51.618857
2660.000000	51.657950
2659.000000	51.680115
2658.000000	51.685080
2657.000000	51.676801
2656.000000	51.660769
2655.000000	51.642518
2654.000000	51.628897
2653.000000	51.627428
2652.000000	51.642960
2651.000000	51.676612
2650.000000	51.727919
2649.000000	51.794990
2648.000000	51.872404
2647.000000	51.951802
2646.000000	52.026078
2645.000000	52.091919
2644.000000	52.148365
2643.000000	52.196238
2642.000000	52.239664
2641.000000	52.285087
2640.000000	52.336998
2639.000000	52.395730
2638.000000	52.459283
2637.000000	52.524837
2636.000000	52.588239
2635.000000	52.644896
2634.000000	52.692695
2633.000000	52.732317
2632.000000	52.764380
2631.000000	52.788665
2630.000000	52.806151
2629.000000	52.819502
2628.000000	52.830448
2627.000000	52.838710
2626.000000	52.844283
2625.000000	52.848132
2624.000000	52.850474
2623.000000	52.850669
2622.000000	52.849359
2621.000000	52.848447
2620.000000	52.847979
2619.000000	52.845461
2618.000000	52.838654
2617.000000	52.826537
2616.000000	52.807201
2615.000000	52.777306
2614.000000	52.735184
2613.000000	52.682699
2612.000000	52.623478
2611.000000	52.561949
2610.000000	52.504467
2609.000000	52.458452
2608.000000	52.428724
2607.000000	52.416274
2606.000000	52.420555
2605.000000	52.441088
2604.000000	52.476108
2603.000000	52.522127
2602.000000	52.576529
2601.000000	52.637667
2600.000000	52.702527
2599.000000	52.766584
2598.000000	52.826539
2597.000000	52.881624
2596.000000	52.931634
2595.000000	52.976444
2594.000000	53.018100
2593.000000	53.060674
2592.000000	53.106622
2591.000000	53.155004
2590.000000	53.203522
2589.000000	53.250009
2588.000000	53.291560
2587.000000	53.324769
2586.000000	53.348474
2585.000000	53.364878
2584.000000	53.377702
2583.000000	53.391327
2582.000000	53.411920
2581.000000	53.446351
2580.000000	53.498434
2579.000000	53.567394
2578.000000	53.649807
2577.000000	53.741562
2576.000000	53.837728
2575.000000	53.933557
2574.000000	54.027022
2573.000000	54.118392
2572.000000	54.207429
2571.000000	54.292624
2570.000000	54.373188
2569.000000	54.449454
2568.000000	54.521034
2567.000000	54.586685
2566.000000	54.646607
2565.000000	54.702949
2564.000000	54.757331
2563.000000	54.810076
2562.000000	54.861778
2561.000000	54.913431
2560.000000	54.964625
2559.000000	55.013573
2558.000000	55.059633
2557.000000	55.103770
2556.000000	55.146501
2555.000000	55.187721
2554.000000	55.228919
2553.000000	55.273240
2552.000000	55.322590
2551.000000	55.376488
2550.000000	55.433934
2549.000000	55.494212
2548.000000	55.555305
2547.000000	55.613830
2546.000000	55.667345
2545.000000	55.715196
2544.000000	55.756806
2543.000000	55.791333
2542.000000	55.819366
2541.000000	55.842608
2540.000000	55.861509
2539.000000	55.874306
2538.000000	55.879035
2537.000000	55.874561
2536.000000	55.859163
2535.000000	55.831171
2534.000000	55.791099
2533.000000	55.741988
2532.000000	55.687218
2531.000000	55.629204
2530.000000	55.570674
2529.000000	55.514438
2528.000000	55.461641
2527.000000	55.412177
2526.000000	55.366855
2525.000000	55.326999
2524.000000	55.291562
2523.000000	55.256947
2522.000000	55.220112
2521.000000	55.179661
2520.000000	55.133771
2519.000000	55.079604
2518.000000	55.015587
2517.000000	54.942453
2516.000000	54.861375
2515.000000	54.773773
2514.000000	54.683245
2513.000000	54.595520
2512.000000	54.515803
2511.000000	54.448065
2510.000000	54.396534
2509.000000	54.365060
2508.000000	54.354553
2507.000000	54.362581
2506.000000	54.386916
2505.000000	54.426083
2504.000000	54.476797
2503.000000	54.534250
2502.000000	54.594739
2501.000000	54.656517
2500.000000	54.717033
2499.000000	54.772305
2498.000000	54.819842
2497.000000	54.859429
2496.000000	54.890608
2495.000000	54.912043
2494.000000	54.924237
2493.000000	54.930127
2492.000000	54.932606
2491.000000	54.933259
2490.000000	54.934289
2489.000000	54.939111
2488.000000	54.949786
2487.000000	54.965966
2486.000000	54.986789
2485.000000	55.011664
2484.000000	55.038668
2483.000000	55.064831
2482.000000	55.088892
2481.000000	55.112088
2480.000000	55.135832
2479.000000	55.160539
2478.000000	55.187304
2477.000000	55.218254
2476.000000	55.254853
2475.000000	55.297843
2474.000000	55.348734
2473.000000	55.409422
2472.000000	55.479595
2471.000000	55.556836
2470.000000	55.639353
2469.000000	55.725828
2468.000000	55.812920
2467.000000	55.895542
2466.000000	55.970465
2465.000000	56.037446
2464.000000	56.096744
2463.000000	56.148127
2462.000000	56.192928
2461.000000	56.234350
2460.000000	56.274302
2459.000000	56.312232
2458.000000	56.347061
2457.000000	56.378255
2456.000000	56.404516
2455.000000	56.423617
2454.000000	56.435108
2453.000000	56.441187
2452.000000	56.444732
2451.000000	56.448357
2450.000000	56.455580
2449.000000	56.470439
2448.000000	56.495004
2447.000000	56.529007
2446.000000	56.572068
2445.000000	56.624441
2444.000000	56.684714
2443.000000	56.749303
2442.000000	56.814726
2441.000000	56.878497
2440.000000	56.938006
2439.000000	56.990774
2438.000000	57.036653
2437.000000	57.077611
2436.000000	57.114930
2435.000000	57.148035
2434.000000	57.176289
2433.000000	57.199504
2432.000000	57.216141
2431.000000	57.223820
2430.000000	57.221643
2429.000000	57.210547
2428.000000	57.190753
2427.000000	57.160658
2426.000000	57.119490
2425.000000	57.068359
2424.000000	57.009101
2423.000000	56.944278
2422.000000	56.878982
2421.000000	56.820553
2420.000000	56.775088
2419.000000	56.745578
2418.000000	56.732834
2417.000000	56.735846
2416.000000	56.750018
2415.000000	56.767843
2414.000000	56.782077
2413.000000	56.787018
2412.000000	56.777120
2411.000000	56.747610
2410.000000	56.697522
2409.000000	56.630163
2408.000000	56.550405
2407.000000	56.462660
2406.000000	56.372142
2405.000000	56.284504
2404.000000	56.203302
2403.000000	56.129748
2402.000000	56.065459
2401.000000	56.013184
2400.000000	55.974164
2399.000000	55.947142
2398.000000	55.929911
2397.000000	55.919822
2396.000000	55.911718
2395.000000	55.898794
2394.000000	55.876432
2393.000000	55.843895
2392.000000	55.802598
2391.000000	55.756001
2390.000000	55.712320
2389.000000	55.683617
2388.000000	55.682152
2387.000000	55.717485
2386.000000	55.797483
2385.000000	55.927727
2384.000000	56.106301
2383.000000	56.322886
2382.000000	56.561011
2381.000000	56.800682
2380.000000	57.018143
2379.000000	57.188476
2378.000000	57.297019
2377.000000	57.344016
2376.000000	57.340554
2375.000000	57.301698
2374.000000	57.245427
2373.000000	57.193659
2372.000000	57.161902
2371.000000	57.151726
2370.000000	57.159426
2369.000000	57.192012
2368.000000	57.254836
2367.000000	57.337163
2366.000000	57.434201
2365.000000	57.557472
2364.000000	57.704189
2363.000000	57.866011
2362.000000	58.031157
2361.000000	58.175898
2360.000000	58.288513
2359.000000	58.346327
2358.000000	58.339508
2357.000000	58.278024
2356.000000	58.167915
2355.000000	58.041627
2354.000000	57.946331
2353.000000	57.968768
2352.000000	58.119162
2351.000000	58.286777
2350.000000	58.367755
2349.000000	58.345011
2348.000000	58.322512
2347.000000	58.361116
2346.000000	58.425036
2345.000000	58.463246
2344.000000	58.444286
2343.000000	58.418377
2342.000000	58.400322
2341.000000	58.397142
2340.000000	58.398322
2339.000000	58.393899
2338.000000	58.386400
2337.000000	58.383517
2336.000000	58.402085
2335.000000	58.438745
2334.000000	58.472399
2333.000000	58.463265
2332.000000	58.392425
2331.000000	58.238431
2330.000000	58.063583
2329.000000	57.889397
2328.000000	57.771723
2327.000000	57.700100
2326.000000	57.672524
2325.000000	57.666809
2324.000000	57.645213
2323.000000	57.590548
2322.000000	57.489487
2321.000000	57.362800
2320.000000	57.233811
2319.000000	57.125827
2318.000000	57.063436
2317.000000	57.040568
2316.000000	57.047753
2315.000000	57.038691
2314.000000	56.996541
2313.000000	56.894553
2312.000000	56.750005
2311.000000	56.562947
2310.000000	56.359451
2309.000000	56.139356
2308.000000	55.917456
2307.000000	55.690603
2306.000000	55.472461
2305.000000	55.263869
2304.000000	55.070828
2303.000000	54.883752
2302.000000	54.704515
2301.000000	54.526653
2300.000000	54.355626
2299.000000	54.186336
2298.000000	54.027605
2297.000000	53.879237
2296.000000	53.750317
2295.000000	53.641178
2294.000000	53.560531
2293.000000	53.511262
2292.000000	53.495768
2291.000000	53.510222
2290.000000	53.551621
2289.000000	53.616494
2288.000000	53.699734
2287.000000	53.797591
2286.000000	53.907846
2285.000000	54.030270
2284.000000	54.159703
2283.000000	54.290808
2282.000000	54.418763
2281.000000	54.541912
2280.000000	54.656605
2279.000000	54.760303
2278.000000	54.853068
2277.000000	54.937122
2276.000000	55.014818
2275.000000	55.088033
2274.000000	55.162565
2273.000000	55.244839
2272.000000	55.339621
2271.000000	55.448646
2270.000000	55.573945
2269.000000	55.716806
2268.000000	55.875529
2267.000000	56.045806
2266.000000	56.224495
2265.000000	56.408555
2264.000000	56.593922
2263.000000	56.776218
2262.000000	56.953284
2261.000000	57.125083
2260.000000	57.288944
2259.000000	57.441800
2258.000000	57.581690
2257.000000	57.709424
2256.000000	57.825866
2255.000000	57.932101
2254.000000	58.031746
2253.000000	58.129263
2252.000000	58.228480
2251.000000	58.330773
2250.000000	58.437422
2249.000000	58.547366
2248.000000	58.657248
2247.000000	58.761873
2246.000000	58.857989
2245.000000	58.944288
2244.000000	59.020275
2243.000000	59.086511
2242.000000	59.145388
2241.000000	59.199534
2240.000000	59.249059
2239.000000	59.292222
2238.000000	59.327506
2237.000000	59.353767
2236.000000	59.369425
2235.000000	59.374109
2234.000000	59.371025
2233.000000	59.366180
2232.000000	59.365431
2231.000000	59.373363
2230.000000	59.393097
2229.000000	59.424514
2228.000000	59.463070
2227.000000	59.502381
2226.000000	59.537955
2225.000000	59.567331
2224.000000	59.588657
2223.000000	59.601607
2222.000000	59.609166
2221.000000	59.615915
2220.000000	59.624983
2219.000000	59.637970
2218.000000	59.656612
2217.000000	59.682071
2216.000000	59.713354
2215.000000	59.748681
2214.000000	59.787995
2213.000000	59.832139
2212.000000	59.880672
2211.000000	59.932483
2210.000000	59.987589
2209.000000	60.045619
2208.000000	60.103207
2207.000000	60.155196
2206.000000	60.197990
2205.000000	60.230087
2204.000000	60.250289
2203.000000	60.258153
2202.000000	60.255741
2201.000000	60.246878
2200.000000	60.234787
2199.000000	60.221913
2198.000000	60.211117
2197.000000	60.204634
2196.000000	60.202681
2195.000000	60.205066
2194.000000	60.213862
2193.000000	60.232327
2192.000000	60.261725
2191.000000	60.301258
2190.000000	60.350167
2189.000000	60.407837
2188.000000	60.472259
2187.000000	60.540729
2186.000000	60.611438
2185.000000	60.682664
2184.000000	60.751256
2183.000000	60.813953
2182.000000	60.869815
2181.000000	60.919600
2180.000000	60.963946
2179.000000	61.003786
2178.000000	61.041325
2177.000000	61.078173
2176.000000	61.112907
2175.000000	61.142364
2174.000000	61.164441
2173.000000	61.178133
2172.000000	61.182176
2171.000000	61.176262
2170.000000	61.163206
2169.000000	61.147782
2168.000000	61.133742
2167.000000	61.123238
2166.000000	61.117780
2165.000000	61.117297
2164.000000	61.118981
2163.000000	61.119575
2162.000000	61.118553
2161.000000	61.117826
2160.000000	61.119466
2159.000000	61.125707
2158.000000	61.139833
2157.000000	61.164198
2156.000000	61.197545
2155.000000	61.235913
2154.000000	61.275461
2153.000000	61.312819
2152.000000	61.344554
2151.000000	61.369177
2150.000000	61.389157
2149.000000	61.408644
2148.000000	61.429563
2147.000000	61.451670
2146.000000	61.474666
2145.000000	61.497838
2144.000000	61.518607
2143.000000	61.533984
2142.000000	61.543482
2141.000000	61.548977
2140.000000	61.552237
2139.000000	61.554363
2138.000000	61.556662
2137.000000	61.559811
2136.000000	61.562449
2135.000000	61.562180
2134.000000	61.557421
2133.000000	61.546780
2132.000000	61.527935
2131.000000	61.499362
2130.000000	61.462693
2129.000000	61.421631
2128.000000	61.379573
2127.000000	61.339924
2126.000000	61.307190
2125.000000	61.285142
2124.000000	61.274248
2123.000000	61.272993
2122.000000	61.280886
2121.000000	61.298519
2120.000000	61.325888
2119.000000	61.362686
2118.000000	61.408998
2117.000000	61.463518
2116.000000	61.521881
2115.000000	61.578631
2114.000000	61.630014
2113.000000	61.673229
2112.000000	61.704911
2111.000000	61.723130
2110.000000	61.730045
2109.000000	61.730587
2108.000000	61.729376
2107.000000	61.730283
2106.000000	61.737303
2105.000000	61.752635
2104.000000	61.774040
2103.000000	61.796108
2102.000000	61.813234
2101.000000	61.820357
2100.000000	61.812769
2099.000000	61.787948
2098.000000	61.747835
2097.000000	61.696803
2096.000000	61.639206
2095.000000	61.580649
2094.000000	61.529222
2093.000000	61.492479
2092.000000	61.474230
2091.000000	61.475971
2090.000000	61.499479
2089.000000	61.544880
2088.000000	61.607191
2087.000000	61.678114
2086.000000	61.750322
2085.000000	61.818083
2084.000000	61.876230
2083.000000	61.921420
2082.000000	61.953193
2081.000000	61.971765
2080.000000	61.975929
2079.000000	61.964703
2078.000000	61.940142
2077.000000	61.905252
2076.000000	61.861513
2075.000000	61.810445
2074.000000	61.754523
2073.000000	61.695045
2072.000000	61.629139
2071.000000	61.552692
2070.000000	61.465452
2069.000000	61.369806
2068.000000	61.266044
2067.000000	61.153096
2066.000000	61.033568
2065.000000	60.914125
2064.000000	60.799405
2063.000000	60.688348
2062.000000	60.576769
2061.000000	60.460554
2060.000000	60.337107
2059.000000	60.206894
2058.000000	60.074288
2057.000000	59.944940
2056.000000	59.822559
2055.000000	59.709368
2054.000000	59.607822
2053.000000	59.519474
2052.000000	59.442339
2051.000000	59.372986
2050.000000	59.311094
2049.000000	59.259042
2048.000000	59.217165
2047.000000	59.184093
2046.000000	59.160910
2045.000000	59.149311
2044.000000	59.146705
2043.000000	59.148520
2042.000000	59.155033
2041.000000	59.171444
2040.000000	59.200775
2039.000000	59.241897
2038.000000	59.294215
2037.000000	59.358964
2036.000000	59.436283
2035.000000	59.524976
2034.000000	59.625048
2033.000000	59.736582
2032.000000	59.856485
2031.000000	59.979659
2030.000000	60.102402
2029.000000	60.221910
2028.000000	60.333599
2027.000000	60.434548
2026.000000	60.526862
2025.000000	60.616324
2024.000000	60.706093
2023.000000	60.796593
2022.000000	60.889799
2021.000000	60.987230
2020.000000	61.084252
2019.000000	61.172841
2018.000000	61.251397
2017.000000	61.327336
2016.000000	61.409081
2015.000000	61.500110
2014.000000	61.600744
2013.000000	61.710189
2012.000000	61.825082
2011.000000	61.940422
2010.000000	62.052980
2009.000000	62.161619
2008.000000	62.265171
2007.000000	62.364088
2006.000000	62.461377
2005.000000	62.560781
2004.000000	62.662024
2003.000000	62.761943
2002.000000	62.859280
2001.000000	62.952630
2000.000000	63.040625
1999.000000	63.121140
1998.000000	63.194147
1997.000000	63.264122
1996.000000	63.336127
1995.000000	63.408598
1994.000000	63.475086
1993.000000	63.534911
1992.000000	63.598564
1991.000000	63.677726
1990.000000	63.772830
1989.000000	63.874970
1988.000000	63.976437
1987.000000	64.075403
1986.000000	64.172000
1985.000000	64.264999
1984.000000	64.354088
1983.000000	64.442760
1982.000000	64.536069
1981.000000	64.634842
1980.000000	64.738202
1979.000000	64.843074
1978.000000	64.944343
1977.000000	65.037992
1976.000000	65.125330
1975.000000	65.210649
1974.000000	65.296418
1973.000000	65.384002
1972.000000	65.476593
1971.000000	65.575240
1970.000000	65.671986
1969.000000	65.753040
1968.000000	65.810408
1967.000000	65.848215
1966.000000	65.875885
1965.000000	65.897779
1964.000000	65.912085
1963.000000	65.915976
1962.000000	65.908370
1961.000000	65.891233
1960.000000	65.868458
1959.000000	65.842877
1958.000000	65.814785
1957.000000	65.784420
1956.000000	65.756591
1955.000000	65.739675
1954.000000	65.738726
1953.000000	65.753845
1952.000000	65.781043
1951.000000	65.818284
1950.000000	65.863864
1949.000000	65.910742
1948.000000	65.952533
1947.000000	65.991179
1946.000000	66.029780
1945.000000	66.060448
1944.000000	66.069050
1943.000000	66.056549
1942.000000	66.043971
1941.000000	66.048833
1940.000000	66.068684
1939.000000	66.091571
1938.000000	66.109664
1937.000000	66.120950
1936.000000	66.123812
1935.000000	66.114635
1934.000000	66.092131
1933.000000	66.061406
1932.000000	66.027660
1931.000000	65.999202
1930.000000	65.983498
1929.000000	65.979211
1928.000000	65.983963
1927.000000	65.996474
1926.000000	66.017813
1925.000000	66.035368
1924.000000	66.033469
1923.000000	66.023012
1922.000000	66.034706
1921.000000	66.077451
1920.000000	66.127176
1919.000000	66.157730
1918.000000	66.174344
1917.000000	66.192347
1916.000000	66.203602
1915.000000	66.192873
1914.000000	66.163413
1913.000000	66.129421
1912.000000	66.096347
1911.000000	66.064523
1910.000000	66.039009
1909.000000	66.025564
1908.000000	66.024354
1907.000000	66.028467
1906.000000	66.040654
1905.000000	66.062244
1904.000000	66.086949
1903.000000	66.115987
1902.000000	66.159374
1901.000000	66.220583
1900.000000	66.294775
1899.000000	66.377138
1898.000000	66.469794
1897.000000	66.566154
1896.000000	66.648668
1895.000000	66.713924
1894.000000	66.778584
1893.000000	66.850853
1892.000000	66.915497
1891.000000	66.956957
1890.000000	66.986464
1889.000000	67.029840
1888.000000	67.092019
1887.000000	67.158360
1886.000000	67.218554
1885.000000	67.269395
1884.000000	67.308850
1883.000000	67.342120
1882.000000	67.378919
1881.000000	67.422580
1880.000000	67.471971
1879.000000	67.527650
1878.000000	67.594996
1877.000000	67.674800
1876.000000	67.751927
1875.000000	67.812571
1874.000000	67.862663
1873.000000	67.914105
1872.000000	67.965070
1871.000000	68.004314
1870.000000	68.031246
1869.000000	68.066346
1868.000000	68.126275
1867.000000	68.204064
1866.000000	68.287566
1865.000000	68.367417
1864.000000	68.432805
1863.000000	68.481294
1862.000000	68.524752
1861.000000	68.573769
1860.000000	68.626964
1859.000000	68.682644
1858.000000	68.747637
1857.000000	68.824149
1856.000000	68.899887
1855.000000	68.963790
1854.000000	69.018835
1853.000000	69.066823
1852.000000	69.112801
1851.000000	69.156845
1850.000000	69.197157
1849.000000	69.237711
1848.000000	69.290042
1847.000000	69.364458
1846.000000	69.451228
1845.000000	69.526772
1844.000000	69.592014
1843.000000	69.659801
1842.000000	69.718690
1841.000000	69.757593
1840.000000	69.782634
1839.000000	69.804763
1838.000000	69.839519
1837.000000	69.889708
1836.000000	69.944797
1835.000000	70.001118
1834.000000	70.062618
1833.000000	70.126588
1832.000000	70.180420
1831.000000	70.204523
1830.000000	70.216335
1829.000000	70.260112
1828.000000	70.341637
1827.000000	70.429130
1826.000000	70.497440
1825.000000	70.559585
1824.000000	70.636867
1823.000000	70.717800
1822.000000	70.780319
1821.000000	70.825032
1820.000000	70.863413
1819.000000	70.896251
1818.000000	70.929447
1817.000000	70.975023
1816.000000	71.035040
1815.000000	71.096912
1814.000000	71.142443
1813.000000	71.165565
1812.000000	71.161434
1811.000000	71.133009
1810.000000	71.103970
1809.000000	71.090810
1808.000000	71.085858
1807.000000	71.082444
1806.000000	71.092854
1805.000000	71.123463
1804.000000	71.152658
1803.000000	71.157143
1802.000000	71.135931
1801.000000	71.121276
1800.000000	71.131349
1799.000000	71.155271
1798.000000	71.180337
1797.000000	71.204830
1796.000000	71.234844
1795.000000	71.281427
1794.000000	71.338998
1793.000000	71.392709
1792.000000	71.433931
1791.000000	71.459835
1790.000000	71.471830
1789.000000	71.480280
1788.000000	71.488571
1787.000000	71.490744
1786.000000	71.491277
1785.000000	71.506206
1784.000000	71.542504
1783.000000	71.590814
1782.000000	71.617738
1781.000000	71.615933
1780.000000	71.605563
1779.000000	71.605430
1778.000000	71.612747
1777.000000	71.620145
1776.000000	71.650077
1775.000000	71.729675
1774.000000	71.842465
1773.000000	71.960348
1772.000000	72.094624
1771.000000	72.225381
1770.000000	72.305603
1769.000000	72.333228
1768.000000	72.345329
1767.000000	72.381659
1766.000000	72.448240
1765.000000	72.534360
1764.000000	72.620958
1763.000000	72.679098
1762.000000	72.700156
1761.000000	72.719913
1760.000000	72.749165
1759.000000	72.773603
1758.000000	72.772671
1757.000000	72.755602
1756.000000	72.775934
1755.000000	72.844795
1754.000000	72.923108
1753.000000	72.982199
1752.000000	73.026485
1751.000000	73.076056
1750.000000	73.136581
1749.000000	73.183922
1748.000000	73.225009
1747.000000	73.284999
1746.000000	73.348698
1745.000000	73.396472
1744.000000	73.436085
1743.000000	73.491207
1742.000000	73.569651
1741.000000	73.649973
1740.000000	73.701849
1739.000000	73.728425
1738.000000	73.742562
1737.000000	73.765704
1736.000000	73.796099
1735.000000	73.792780
1734.000000	73.820538
1733.000000	73.935022
1732.000000	74.018470
1731.000000	74.008547
1730.000000	73.946922
1729.000000	73.880852
1728.000000	73.836917
1727.000000	73.813686
1726.000000	73.795676
1725.000000	73.786716
1724.000000	73.788179
1723.000000	73.804377
1722.000000	73.845968
1721.000000	73.911210
1720.000000	73.970309
1719.000000	73.973396
1718.000000	73.954993
1717.000000	74.004694
1716.000000	74.079911
1715.000000	74.104893
1714.000000	74.114958
1713.000000	74.156060
1712.000000	74.206910
1711.000000	74.239460
1710.000000	74.267051
1709.000000	74.313438
1708.000000	74.374884
1707.000000	74.417114
1706.000000	74.439935
1705.000000	74.482158
1704.000000	74.555448
1703.000000	74.667306
1702.000000	74.799805
1701.000000	74.890822
1700.000000	75.000889
1699.000000	75.144243
1698.000000	75.246871
1697.000000	75.312900
1696.000000	75.364001
1695.000000	75.441680
1694.000000	75.515441
1693.000000	75.541393
1692.000000	75.548300
1691.000000	75.566495
1690.000000	75.589290
1689.000000	75.595805
1688.000000	75.608430
1687.000000	75.666460
1686.000000	75.748917
1685.000000	75.759193
1684.000000	75.763153
1683.000000	75.850068
1682.000000	75.902683
1681.000000	75.856799
1680.000000	75.770990
1679.000000	75.718832
1678.000000	75.706633
1677.000000	75.674884
1676.000000	75.583622
1675.000000	75.497457
1674.000000	75.456678
1673.000000	75.420573
1672.000000	75.370156
1671.000000	75.326488
1670.000000	75.302851
1669.000000	75.287389
1668.000000	75.253340
1667.000000	75.194089
1666.000000	75.122913
1665.000000	75.039369
1664.000000	74.924529
1663.000000	74.810750
1662.000000	74.729330
1661.000000	74.635633
1660.000000	74.490269
1659.000000	74.308150
1658.000000	74.103719
1657.000000	73.880826
1656.000000	73.666212
1655.000000	73.404994
1654.000000	72.925454
1653.000000	72.325919
1652.000000	71.774397
1651.000000	71.118005
1650.000000	70.287716
1649.000000	69.233714
1648.000000	67.756339
1647.000000	65.720836
1646.000000	63.226073
1645.000000	60.397670
1644.000000	57.228979
1643.000000	53.662571
1642.000000	49.683739
1641.000000	45.431480
1640.000000	41.252242
1639.000000	37.505408
1638.000000	34.364363
1637.000000	31.885106
1636.000000	30.265384
1635.000000	29.741993
1634.000000	30.189791
1633.000000	31.285509
1632.000000	32.832812
1631.000000	34.742441
1630.000000	36.936918
1629.000000	39.322608
1628.000000	41.781072
1627.000000	44.153810
1626.000000	46.338345
1625.000000	48.395926
1624.000000	50.448505
1623.000000	52.481724
1622.000000	54.316965
1621.000000	55.842849
1620.000000	57.148406
1619.000000	58.389340
1618.000000	59.652333
1617.000000	60.940825
1616.000000	62.168508
1615.000000	63.170253
1614.000000	63.889237
1613.000000	64.432967
1612.000000	64.922515
1611.000000	65.381255
1610.000000	65.740000
1609.000000	65.946598
1608.000000	65.998364
1607.000000	65.869804
1606.000000	65.473868
1605.000000	64.737577
1604.000000	63.651218
1603.000000	62.212862
1602.000000	60.435069
1601.000000	58.425526
1600.000000	56.392011
1599.000000	54.542688
1598.000000	52.995155
1597.000000	51.785082
1596.000000	50.900233
1595.000000	50.272313
1594.000000	49.770014
1593.000000	49.270214
1592.000000	48.727129
1591.000000	48.138419
1590.000000	47.487737
1589.000000	46.757339
1588.000000	45.958086
1587.000000	45.091875
1586.000000	44.117705
1585.000000	42.996322
1584.000000	41.761979
1583.000000	40.471469
1582.000000	39.128813
1581.000000	37.729278
1580.000000	36.317901
1579.000000	34.903302
1578.000000	33.340154
1577.000000	31.413233
1576.000000	29.182762
1575.000000	27.049929
1574.000000	25.271858
1573.000000	23.781407
1572.000000	22.455916
1571.000000	21.268246
1570.000000	20.267228
1569.000000	19.508774
1568.000000	19.031077
1567.000000	18.850260
1566.000000	18.921294
1565.000000	19.149105
1564.000000	19.483185
1563.000000	19.936192
1562.000000	20.540758
1561.000000	21.334814
1560.000000	22.434776
1559.000000	23.934511
1558.000000	25.504068
1557.000000	26.703097
1556.000000	27.580808
1555.000000	28.375685
1554.000000	29.147273
1553.000000	29.818962
1552.000000	30.367490
1551.000000	30.889882
1550.000000	31.493567
1549.000000	32.203758
1548.000000	33.013129
1547.000000	33.956705
1546.000000	35.062244
1545.000000	36.273743
1544.000000	37.500312
1543.000000	38.711068
1542.000000	39.950418
1541.000000	41.258568
1540.000000	42.621623
1539.000000	43.924053
1538.000000	44.996992
1537.000000	45.825794
1536.000000	46.572038
1535.000000	47.405808
1534.000000	48.370027
1533.000000	49.372153
1532.000000	50.286192
1531.000000	51.091361
1530.000000	51.851683
1529.000000	52.596948
1528.000000	53.323165
1527.000000	54.040361
1526.000000	54.740352
1525.000000	55.383831
1524.000000	55.965734
1523.000000	56.530501
1522.000000	57.097515
1521.000000	57.633513
1520.000000	58.098335
1519.000000	58.499474
1518.000000	58.880483
1517.000000	59.262135
1516.000000	59.651205
1515.000000	60.051177
1514.000000	60.445097
1513.000000	60.817588
1512.000000	61.159277
1511.000000	61.478330
1510.000000	61.786591
1509.000000	62.090935
1508.000000	62.392977
1507.000000	62.772177
1506.000000	63.294226
1505.000000	63.784896
1504.000000	64.106493
1503.000000	64.337558
1502.000000	64.566540
1501.000000	64.804074
1500.000000	65.043668
1499.000000	65.296083
1498.000000	65.567000
1497.000000	65.852702
1496.000000	66.146539
1495.000000	66.440604
1494.000000	66.714795
1493.000000	66.959186
1492.000000	67.178036
1491.000000	67.374201
1490.000000	67.549791
1489.000000	67.707238
1488.000000	67.843342
1487.000000	67.970178
1486.000000	68.081434
1485.000000	68.115990
1484.000000	68.044006
1483.000000	67.855822
1482.000000	67.507573
1481.000000	66.951732
1480.000000	66.187729
1479.000000	65.190224
1478.000000	63.816793
1477.000000	61.926314
1476.000000	59.562316
1475.000000	56.891169
1474.000000	53.967559
1473.000000	50.868813
1472.000000	47.981086
1471.000000	45.724905
1470.000000	44.161754
1469.000000	43.148391
1468.000000	42.615040
1467.000000	42.606798
1466.000000	43.194265
1465.000000	44.339820
1464.000000	45.799852
1463.000000	47.199084
1462.000000	48.264372
1461.000000	48.899003
1460.000000	49.089042
1459.000000	48.797517
1458.000000	47.956146
1457.000000	46.718677
1456.000000	45.546123
1455.000000	44.730108
1454.000000	44.216364
1453.000000	43.888672
1452.000000	43.690167
1451.000000	43.597437
1450.000000	43.606358
1449.000000	43.742227
1448.000000	44.026458
1447.000000	44.433013
1446.000000	44.900187
1445.000000	45.418660
1444.000000	46.037371
1443.000000	46.792618
1442.000000	47.700474
1441.000000	48.780640
1440.000000	50.058438
1439.000000	51.551103
1438.000000	53.272029
1437.000000	55.159964
1436.000000	56.985434
1435.000000	58.476579
1434.000000	59.600540
1433.000000	60.520670
1432.000000	61.350158
1431.000000	62.089151
1430.000000	62.718671
1429.000000	63.262234
1428.000000	63.738804
1427.000000	64.156636
1426.000000	64.525162
1425.000000	64.865379
1424.000000	65.201955
1423.000000	65.536166
1422.000000	65.870834
1421.000000	66.214307
1420.000000	66.544007
1419.000000	66.822367
1418.000000	67.056208
1417.000000	67.278957
1416.000000	67.511508
1415.000000	67.755523
1414.000000	68.005952
1413.000000	68.267815
1412.000000	68.540466
1411.000000	68.802979
1410.000000	69.044777
1409.000000	69.282003
1408.000000	69.515286
1407.000000	69.729175
1406.000000	69.915356
1405.000000	70.086413
1404.000000	70.254442
1403.000000	70.394720
1402.000000	70.455689
1401.000000	70.358298
1400.000000	70.010939
1399.000000	69.415705
1398.000000	68.746987
1397.000000	68.245130
1396.000000	68.063603
1395.000000	68.211890
1394.000000	68.555494
1393.000000	68.923515
1392.000000	69.245403
1391.000000	69.564686
1390.000000	69.953201
1389.000000	70.436669
1388.000000	70.979510
1387.000000	71.525671
1386.000000	72.040526
1385.000000	72.516528
1384.000000	72.958793
1383.000000	73.363300
1382.000000	73.725540
1381.000000	74.040612
1380.000000	74.291878
1379.000000	74.454435
1378.000000	74.500713
1377.000000	74.367206
1376.000000	73.877675
1375.000000	72.706657
1374.000000	70.453244
1373.000000	66.844878
1372.000000	61.950625
1371.000000	56.311207
1370.000000	50.931403
1369.000000	47.031216
1368.000000	45.458753
1367.000000	46.133095
1366.000000	48.153543
1365.000000	50.399100
1364.000000	51.962425
1363.000000	52.325228
1362.000000	51.504703
1361.000000	50.110908
1360.000000	49.094751
1359.000000	49.286707
1358.000000	50.998315
1357.000000	53.890431
1356.000000	57.234154
1355.000000	60.359802
1354.000000	62.940217
1353.000000	64.972300
1352.000000	66.577964
1351.000000	67.871691
1350.000000	68.929666
1349.000000	69.798205
1348.000000	70.506685
1347.000000	71.085402
1346.000000	71.576084
1345.000000	72.018525
1344.000000	72.438124
1343.000000	72.844010
1342.000000	73.236544
1341.000000	73.606892
1340.000000	73.941104
1339.000000	74.236723
1338.000000	74.504845
1337.000000	74.755309
1336.000000	74.983236
1335.000000	75.169051
1334.000000	75.279441
1333.000000	75.243968
1332.000000	74.939775
1331.000000	74.218942
1330.000000	72.968302
1329.000000	71.161898
1328.000000	68.832824
1327.000000	66.006079
1326.000000	62.700728
1325.000000	59.076431
1324.000000	55.613410
1323.000000	53.027205
1322.000000	51.846140
1321.000000	52.033915
1320.000000	53.051626
1319.000000	54.273578
1318.000000	55.359443
1317.000000	56.281292
1316.000000	57.120286
1315.000000	57.933648
1314.000000	58.768140
1313.000000	59.712892
1312.000000	60.874493
1311.000000	62.290173
1310.000000	63.872263
1309.000000	65.436342
1308.000000	66.780630
1307.000000	67.762777
1306.000000	68.329041
1305.000000	68.478545
1304.000000	68.217785
1303.000000	67.539774
1302.000000	66.434823
1301.000000	64.940955
1300.000000	63.208679
1299.000000	61.525355
1298.000000	60.223137
1297.000000	59.500655
1296.000000	59.306989
1295.000000	59.375597
1294.000000	59.363516
1293.000000	58.982714
1292.000000	58.064638
1291.000000	56.560778
1290.000000	54.496444
1289.000000	51.948248
1288.000000	49.105208
1287.000000	46.348961
1286.000000	44.187304
1285.000000	43.022186
1284.000000	42.947662
1283.000000	43.763021
1282.000000	45.184607
1281.000000	47.022090
1280.000000	49.157386
1279.000000	51.392284
1278.000000	53.386498
1277.000000	54.792607
1276.000000	55.438560
1275.000000	55.389049
1274.000000	54.888489
1273.000000	54.283622
1272.000000	53.957925
1271.000000	54.237388
1270.000000	55.267044
1269.000000	56.946231
1268.000000	58.991076
1267.000000	61.083037
1266.000000	62.995033
1265.000000	64.632554
1264.000000	66.000081
1263.000000	67.144758
1262.000000	68.119263
1261.000000	68.967472
1260.000000	69.717553
1259.000000	70.380551
1258.000000	70.963231
1257.000000	71.471162
1256.000000	71.907409
1255.000000	72.278144
1254.000000	72.598223
1253.000000	72.890059
1252.000000	73.171085
1251.000000	73.449691
1250.000000	73.730086
1249.000000	74.011345
1248.000000	74.284901
1247.000000	74.539253
1246.000000	74.769887
1245.000000	74.980184
1244.000000	75.172585
1243.000000	75.347240
1242.000000	75.506788
1241.000000	75.654139
1240.000000	75.785567
1239.000000	75.892065
1238.000000	75.969291
1237.000000	76.017561
1236.000000	76.033596
1235.000000	76.011841
1234.000000	75.951025
1233.000000	75.854273
1232.000000	75.722191
1231.000000	75.552866
1230.000000	75.349328
1229.000000	75.112618
1228.000000	74.830295
1227.000000	74.474005
1226.000000	74.003520
1225.000000	73.372954
1224.000000	72.524406
1223.000000	71.398037
1222.000000	69.947348
1221.000000	68.140990
1220.000000	65.975735
1219.000000	63.484643
1218.000000	60.742946
1217.000000	57.861498
1216.000000	54.976000
1215.000000	52.242870
1214.000000	49.832961
1213.000000	47.912866
1212.000000	46.616359
1211.000000	46.009982
1210.000000	46.039444
1209.000000	46.531543
1208.000000	47.247887
1207.000000	47.941164
1206.000000	48.406551
1205.000000	48.508011
1204.000000	48.187401
1203.000000	47.460278
1202.000000	46.410972
1201.000000	45.197956
1200.000000	44.051157
1199.000000	43.230390
1198.000000	42.942071
1197.000000	43.265661
1196.000000	44.152790
1195.000000	45.468048
1194.000000	47.049836
1193.000000	48.767286
1192.000000	50.535728
1191.000000	52.310569
1190.000000	54.063359
1189.000000	55.769536
1188.000000	57.407454
1187.000000	58.954240
1186.000000	60.385144
1185.000000	61.682411
1184.000000	62.841584
1183.000000	63.863851
1182.000000	64.754362
1181.000000	65.518788
1180.000000	66.166946
1179.000000	66.718337
1178.000000	67.194422
1177.000000	67.612100
1176.000000	67.969748
1175.000000	68.245577
1174.000000	68.407565
1173.000000	68.410940
1172.000000	68.204487
1171.000000	67.730473
1170.000000	66.930562
1169.000000	65.757917
1168.000000	64.185455
1167.000000	62.242964
1166.000000	60.053057
1165.000000	57.838861
1164.000000	55.888681
1163.000000	54.482579
1162.000000	53.795799
1161.000000	53.848782
1160.000000	54.528922
1159.000000	55.639127
1158.000000	56.969435
1157.000000	58.340649
1156.000000	59.623146
1155.000000	60.736663
1154.000000	61.636549
1153.000000	62.304490
1152.000000	62.739654
1151.000000	62.949248
1150.000000	62.935090
1149.000000	62.695974
1148.000000	62.211655
1147.000000	61.440317
1146.000000	60.323415
1145.000000	58.777356
1144.000000	56.717254
1143.000000	54.074033
1142.000000	50.838050
1141.000000	47.116275
1140.000000	43.152857
1139.000000	39.286954
1138.000000	35.822541
1137.000000	32.899711
1136.000000	30.463285
1135.000000	28.356494
1134.000000	26.453519
1133.000000	24.799948
1132.000000	23.657798
1131.000000	23.384262
1130.000000	24.254753
1129.000000	26.296732
1128.000000	29.264333
1127.000000	32.710966
1126.000000	36.091562
1125.000000	38.879392
1124.000000	40.655354
1123.000000	41.159036
1122.000000	40.324061
1121.000000	38.296879
1120.000000	35.364948
1119.000000	31.885981
1118.000000	28.276119
1117.000000	25.048697
1116.000000	22.799832
1115.000000	22.039539
1114.000000	22.942365
1113.000000	25.233939
1112.000000	28.292490
1111.000000	31.334879
1110.000000	33.681608
1109.000000	35.029336
1108.000000	35.580519
1107.000000	35.890674
1106.000000	36.496567
1105.000000	37.607586
1104.000000	39.058777
1103.000000	40.451500
1102.000000	41.303794
1101.000000	41.210696
1100.000000	40.027390
1099.000000	38.033176
1098.000000	35.928539
1097.000000	34.579564
1096.000000	34.623196
1095.000000	36.181597
1094.000000	38.859042
1093.000000	42.010101
1092.000000	45.084838
1091.000000	47.788397
1090.000000	50.053534
1089.000000	51.935240
1088.000000	53.521710
1087.000000	54.894511
1086.000000	56.117423
1085.000000	57.232620
1084.000000	58.260548
1083.000000	59.214984
1082.000000	60.102680
1081.000000	60.922841
1080.000000	61.666606
1079.000000	62.314225
1078.000000	62.846761
1077.000000	63.238860
1076.000000	63.456827
1075.000000	63.458463
1074.000000	63.173236
1073.000000	62.502797
1072.000000	61.290971
1071.000000	59.329958
1070.000000	56.392895
1069.000000	52.262523
1068.000000	46.855088
1067.000000	40.366495
1066.000000	33.378298
1065.000000	26.795291
1064.000000	21.562428
1063.000000	18.246893
1062.000000	16.726076
1061.000000	16.237582
1060.000000	15.811511
1059.000000	14.841974
1058.000000	13.365421
1057.000000	11.970864
1056.000000	11.414710
1055.000000	12.162604
1054.000000	14.207726
1053.000000	17.171331
1052.000000	20.571004
1051.000000	24.022562
1050.000000	27.284219
1049.000000	30.258496
1048.000000	32.955402
1047.000000	35.427952
1046.000000	37.709020
1045.000000	39.798167
1044.000000	41.680018
1043.000000	43.345658
1042.000000	44.800916
1041.000000	46.062897
1040.000000	47.166654
1039.000000	48.147293
1038.000000	49.025946
1037.000000	49.809793
1036.000000	50.495930
1035.000000	51.082744
1034.000000	51.569536
1033.000000	51.962806
1032.000000	52.283530
1031.000000	52.559204
1030.000000	52.815019
1029.000000	53.065238
1028.000000	53.311567
1027.000000	53.544241
1026.000000	53.740871
1025.000000	53.876496
1024.000000	53.930978
1023.000000	53.888745
1022.000000	53.737240
1021.000000	53.458035
1020.000000	53.030152
1019.000000	52.424644
1018.000000	51.597483
1017.000000	50.497710
1016.000000	49.073282
1015.000000	47.301879
1014.000000	45.229598
1013.000000	43.005996
1012.000000	40.881901
1011.000000	39.127521
1010.000000	37.892489
1009.000000	37.103566
1008.000000	36.507789
1007.000000	35.857340
1006.000000	35.144700
1005.000000	34.678876
1004.000000	34.910506
1003.000000	36.112161
1002.000000	38.156392
1001.000000	40.598908
1000.000000	42.934000
999.000000	44.798640
998.000000	46.025918
997.000000	46.602959
996.000000	46.630166
995.000000	46.303028
994.000000	45.895200
993.000000	45.711437
992.000000	46.004425
991.000000	46.875405
990.000000	48.225500
989.000000	49.822156
988.000000	51.436902
987.000000	52.930903
986.000000	54.256397
985.000000	55.416414
984.000000	56.430891
983.000000	57.322074
982.000000	58.109467
981.000000	58.808537
980.000000	59.433832
979.000000	60.003287
978.000000	60.529013
977.000000	61.015223
976.000000	61.463557
975.000000	61.877955
974.000000	62.266210
973.000000	62.634666
972.000000	62.988283
971.000000	63.330405
970.000000	63.659056
969.000000	63.967386
968.000000	64.249259
967.000000	64.507118
966.000000	64.752658
965.000000	64.999699
964.000000	65.257890
963.000000	65.528866
962.000000	65.804920
961.000000	66.071010
960.000000	66.311562
959.000000	66.519907
958.000000	66.702593
957.000000	66.876741
956.000000	67.063099
955.000000	67.277539
954.000000	67.523401
953.000000	67.787918
952.000000	68.047826
951.000000	68.282351
950.000000	68.483306
949.000000	68.656286
948.000000	68.816230
947.000000	68.982118
946.000000	69.170139
945.000000	69.385188
944.000000	69.617583
943.000000	69.848737
942.000000	70.061384
941.000000	70.246520
940.000000	70.404735
939.000000	70.545814
938.000000	70.685277
937.000000	70.836196
936.000000	71.002531
935.000000	71.179608
934.000000	71.359142
933.000000	71.532400
932.000000	71.692321
931.000000	71.837856
930.000000	71.975499
929.000000	72.113502
928.000000	72.254617
927.000000	72.396466
926.000000	72.536889
925.000000	72.674747
924.000000	72.808207
923.000000	72.937251
922.000000	73.066415
921.000000	73.200280
920.000000	73.336501
919.000000	73.467525
918.000000	73.588347
917.000000	73.698202
916.000000	73.797622
915.000000	73.890147
914.000000	73.985004
913.000000	74.091371
912.000000	74.206008
911.000000	74.313211
910.000000	74.388668
909.000000	74.394839
908.000000	74.275379
907.000000	73.957976
906.000000	73.374579
905.000000	72.471475
904.000000	71.223972
903.000000	69.691007
902.000000	68.082039
901.000000	66.748504
900.000000	66.050870
899.000000	66.167294
898.000000	66.990811
897.000000	68.218591
896.000000	69.530129
895.000000	70.720052
894.000000	71.720500
893.000000	72.538727
892.000000	73.201912
891.000000	73.734622
890.000000	74.159299
889.000000	74.496222
888.000000	74.762811
887.000000	74.959492
886.000000	75.050077
885.000000	74.956279
884.000000	74.592873
883.000000	73.952909
882.000000	73.151610
881.000000	72.363340
880.000000	71.684052
879.000000	71.062816
878.000000	70.396827
877.000000	69.703184
876.000000	69.187280
875.000000	69.111922
874.000000	69.594338
873.000000	70.515311
872.000000	71.612048
871.000000	72.646470
870.000000	73.503546
869.000000	74.180595
868.000000	74.719550
867.000000	75.159585
866.000000	75.524148
865.000000	75.826551
864.000000	76.075510
863.000000	76.283169
862.000000	76.467881
861.000000	76.645439
860.000000	76.821018
859.000000	76.988447
858.000000	77.138562
857.000000	77.264717
856.000000	77.365168
855.000000	77.447970
854.000000	77.531528
853.000000	77.634332
852.000000	77.760657
851.000000	77.897454
850.000000	78.024243
849.000000	78.123679
848.000000	78.188778
847.000000	78.228938
846.000000	78.269296
845.000000	78.337581
844.000000	78.447090
843.000000	78.590308
842.000000	78.744358
841.000000	78.879665
840.000000	78.970611
839.000000	79.010433
838.000000	79.020366
837.000000	79.038784
836.000000	79.097500
835.000000	79.206492
834.000000	79.353681
833.000000	79.511845
832.000000	79.649269
831.000000	79.745387
830.000000	79.803544
829.000000	79.848736
828.000000	79.912364
827.000000	80.017914
826.000000	80.172572
825.000000	80.361552
824.000000	80.551456
823.000000	80.709984
822.000000	80.827286
821.000000	80.916318
820.000000	80.996443
819.000000	81.081414
818.000000	81.175617
817.000000	81.270931
816.000000	81.346363
815.000000	81.380851
814.000000	81.369547
813.000000	81.322084
812.000000	81.247611
811.000000	81.143085
810.000000	80.991576
809.000000	80.762234
808.000000	80.409196
807.000000	79.887451
806.000000	79.167704
805.000000	78.235572
804.000000	77.078166
803.000000	75.664901
802.000000	73.947378
801.000000	71.860615
800.000000	69.343221
799.000000	66.379479
798.000000	63.025141
797.000000	59.408604
796.000000	55.700722
795.000000	52.082162
794.000000	48.716663
793.000000	45.742415
792.000000	43.272862
791.000000	41.396991
790.000000	40.175224
789.000000	39.625026
788.000000	39.722592
787.000000	40.393295
786.000000	41.516739
785.000000	42.947008
784.000000	44.524010
783.000000	46.086229
782.000000	47.479934
781.000000	48.580834
780.000000	49.312453
779.000000	49.657705
778.000000	49.657297
777.000000	49.390135
776.000000	48.937161
775.000000	48.352907
774.000000	47.678301
773.000000	46.982225
772.000000	46.394902
771.000000	46.091671
770.000000	46.237042
769.000000	46.919700
768.000000	48.119436
767.000000	49.718140
766.000000	51.548336
765.000000	53.452818
764.000000	55.315734
763.000000	57.071835
762.000000	58.702288
761.000000	60.220303
760.000000	61.644746
759.000000	62.978990
758.000000	64.211355
757.000000	65.327648
756.000000	66.323213
755.000000	67.210311
754.000000	68.022961
753.000000	68.805877
752.000000	69.589660
751.000000	70.373898
750.000000	71.129935
749.000000	71.817090
748.000000	72.398842
747.000000	72.860676
746.000000	73.224741
745.000000	73.542369
744.000000	73.865196
743.000000	74.219220
742.000000	74.599317
741.000000	74.976985
740.000000	75.310506
739.000000	75.562094
738.000000	75.717427
737.000000	75.789099
736.000000	75.800600
735.000000	75.769706
734.000000	75.704934
733.000000	75.607707
732.000000	75.475703
731.000000	75.313392
730.000000	75.140939
729.000000	74.984233
728.000000	74.852441
727.000000	74.721354
726.000000	74.540827
725.000000	74.260855
724.000000	73.843363
723.000000	73.244286
722.000000	72.387381
721.000000	71.174633
720.000000	69.544382
719.000000	67.529536
718.000000	65.260181
717.000000	62.928860
716.000000	60.761832
715.000000	58.991640
714.000000	57.816152
713.000000	57.347471
712.000000	57.579060
711.000000	58.399282
710.000000	59.647201
709.000000	61.159659
708.000000	62.784342
707.000000	64.387076
706.000000	65.875753
705.000000	67.220195
704.000000	68.435390
703.000000	69.553633
702.000000	70.614067
701.000000	71.648039
700.000000	72.654716
699.000000	73.600061
698.000000	74.445842
697.000000	75.177780
696.000000	75.801667
695.000000	76.332487
694.000000	76.802683
693.000000	77.254067
692.000000	77.706725
691.000000	78.146799
690.000000	78.552014
689.000000	78.920368
688.000000	79.261364
687.000000	79.577534
686.000000	79.869899
685.000000	80.139490
684.000000	80.371561
683.000000	80.540595
682.000000	80.645209
681.000000	80.720877
680.000000	80.804114
679.000000	80.915671
678.000000	81.054171
677.000000	81.212299
676.000000	81.374189
675.000000	81.480083
674.000000	81.539487
673.000000	81.729157
672.000000	82.303932
671.000000	83.350396
670.000000	84.653776
669.000000	85.384466
668.000000	84.607430
667.000000	83.131490
666.000000	82.277659
665.000000	81.957279
664.000000	81.818354
663.000000	81.721677
662.000000	81.682445
661.000000	81.707105
660.000000	81.783298
659.000000	81.913923
658.000000	82.080712
657.000000	82.221411
656.000000	82.297393
655.000000	82.307088
654.000000	82.267554
653.000000	82.196898
652.000000	82.124238
651.000000	82.080858
650.000000	82.061488
649.000000	82.021331
648.000000	81.934320
647.000000	81.823306
646.000000	81.717665
645.000000	81.614188
644.000000	81.490171
643.000000	81.332426
642.000000	81.138355
641.000000	80.906953
640.000000	80.654593
639.000000	80.423291
638.000000	80.247681
637.000000	80.124565
636.000000	80.024718
635.000000	79.913557
634.000000	79.753750
633.000000	79.511566
632.000000	79.182752
631.000000	78.806559
630.000000	78.439237
629.000000	78.117501
628.000000	77.854041
627.000000	77.639718
626.000000	77.433473
625.000000	77.174434
624.000000	76.818437
623.000000	76.366752
622.000000	75.859053
621.000000	75.346774
620.000000	74.866355
619.000000	74.411619
618.000000	73.924920
617.000000	73.339031
616.000000	72.640743
615.000000	71.865208
614.000000	71.026382
613.000000	70.093336
612.000000	69.043049
611.000000	67.898120
610.000000	66.685800
609.000000	65.394071
608.000000	64.003095
607.000000	62.518025
606.000000	60.936580
605.000000	59.223332
604.000000	57.351967
603.000000	55.348162
602.000000	53.249379
601.000000	51.063439
600.000000	48.811399
599.000000	46.566227
598.000000	44.390486
597.000000	42.281895
596.000000	40.233276
595.000000	38.288952
594.000000	36.485226
593.000000	34.792244
592.000000	33.190917
591.000000	31.736979
590.000000	30.478112
589.000000	29.376914
588.000000	28.375234
587.000000	27.461429
586.000000	26.602755
585.000000	25.695344
584.000000	24.668538
583.000000	23.573260
582.000000	22.506879
581.000000	21.529910
580.000000	20.720381
579.000000	20.225611
578.000000	20.154137
577.000000	20.488275
576.000000	21.150042
575.000000	22.054578
574.000000	23.056304
573.000000	23.948208
572.000000	24.615340
571.000000	25.141436
570.000000	25.717954
569.000000	26.494378
568.000000	27.535621
567.000000	28.827002
566.000000	30.247544
565.000000	31.613446
564.000000	32.813079
563.000000	33.856515
562.000000	34.783070
561.000000	35.596891
560.000000	36.320758
559.000000	37.027199
558.000000	37.764415
557.000000	38.510829
556.000000	39.239063
555.000000	39.968067
554.000000	40.709403
553.000000	41.429362
552.000000	42.108536
551.000000	42.782094
550.000000	43.480141
549.000000	44.179168
548.000000	44.852101
547.000000	45.513221
546.000000	46.175401
545.000000	46.812600
544.000000	47.404091
543.000000	47.970583
542.000000	48.534040
541.000000	49.082202
540.000000	49.605713
539.000000	50.125253
538.000000	50.650875
537.000000	51.154345
536.000000	51.610304
535.000000	52.029593
534.000000	52.422197
533.000000	52.768402
532.000000	53.049861
531.000000	53.278368
530.000000	53.467290
529.000000	53.599123
528.000000	53.641072
527.000000	53.572124
526.000000	53.358869
525.000000	52.945709
524.000000	52.309257
523.000000	51.502920
522.000000	50.638685
521.000000	49.828770
520.000000	49.140557
519.000000	48.540903
518.000000	47.830846
517.000000	46.701695
516.000000	44.937332
515.000000	42.587481
514.000000	39.945387
513.000000	37.406759
512.000000	35.356004
511.000000	34.093181
510.000000	33.740300
509.000000	34.222562
508.000000	35.388609
507.000000	37.068211
506.000000	39.036499
505.000000	41.054403
504.000000	42.988168
503.000000	44.830151
502.000000	46.576295
501.000000	48.174490
500.000000	49.602334
499.000000	50.906273
498.000000	52.120843
497.000000	53.222662
496.000000	54.188174
495.000000	55.043817
494.000000	55.837235
493.000000	56.587160
492.000000	57.301853
491.000000	58.006189
490.000000	58.711886
489.000000	59.399094
488.000000	60.042743
487.000000	60.641513
486.000000	61.198947
485.000000	61.700628
484.000000	62.136626
483.000000	62.520915
482.000000	62.869384
481.000000	63.183697
480.000000	63.477074
479.000000	63.783991
478.000000	64.106392
477.000000	64.382881
476.000000	64.528471
475.000000	64.460267
474.000000	64.074608
473.000000	63.259228
472.000000	62.010347
471.000000	60.519417
470.000000	59.071537
469.000000	57.912428
468.000000	57.213912
467.000000	56.998149
466.000000	57.001310
465.000000	56.747236
464.000000	55.863358
463.000000	54.362935
462.000000	52.684022
461.000000	51.448396
460.000000	51.184582
459.000000	52.157194
458.000000	54.199155
457.000000	56.685290
456.000000	58.954592
455.000000	60.764242
454.000000	62.184622
453.000000	63.303866
452.000000	64.163624
451.000000	64.816799
450.000000	65.266080
449.000000	65.402646
448.000000	65.082228
447.000000	64.248241
446.000000	62.980852
445.000000	61.476633
444.000000	60.054415
443.000000	59.106919
442.000000	58.879523
441.000000	59.301083
440.000000	60.137184
439.000000	61.201021
438.000000	62.351601
437.000000	63.428128
436.000000	64.286751
435.000000	64.872905
434.000000	65.192332
433.000000	65.259016
432.000000	65.130773
431.000000	64.952063
430.000000	64.869244
429.000000	64.905843
428.000000	64.993952
427.000000	65.064920
426.000000	65.040973
425.000000	64.810849
424.000000	64.343989
423.000000	63.803116
422.000000	63.402335
421.000000	63.200525
420.000000	63.141308
419.000000	63.209082
418.000000	63.372482
417.000000	63.468576
416.000000	63.391959
415.000000	63.215960
414.000000	63.052217
413.000000	62.938037
412.000000	62.897461
411.000000	63.007322
410.000000	63.296185
409.000000	63.637865
408.000000	63.898576
407.000000	64.100292
406.000000	64.314051
405.000000	64.503561
404.000000	64.633797
403.000000	64.791505
402.000000	65.064893
401.000000	65.384749
400.000000	65.657425
