PE IR       SUBTECH     SPECTRUM    ASCII       PEDS        4.00        
   -1
23ms111_trans.asc
24/10/15
15:46:48.00
24/10/15
15:46:48.00
Administrator
Sample 1272 By Administrator Date Tuesday, October 15 2024
400.000000
#HDR
-1
-1
#GR
cm-1
%T
1.0
0.0
4000.000000
-1.000000
3601
8
112.735532
29.606369
#DATA
4000.000000	88.385434
3999.000000	88.310840
3998.000000	88.248050
3997.000000	88.199534
3996.000000	88.152838
3995.000000	88.094722
3994.000000	88.029430
3993.000000	87.973617
3992.000000	87.931301
3991.000000	87.884087
3990.000000	87.811414
3989.000000	87.711743
3988.000000	87.598003
3987.000000	87.480504
3986.000000	87.362743
3985.000000	87.249120
3984.000000	87.146738
3983.000000	87.060051
3982.000000	86.987879
3981.000000	86.929592
3980.000000	86.893057
3979.000000	86.891135
3978.000000	86.929555
3977.000000	87.002579
3976.000000	87.097886
3975.000000	87.201897
3974.000000	87.303850
3973.000000	87.402847
3972.000000	87.509425
3971.000000	87.630616
3970.000000	87.761264
3969.000000	87.886739
3968.000000	87.993415
3967.000000	88.079608
3966.000000	88.157850
3965.000000	88.245223
3964.000000	88.345490
3963.000000	88.438851
3962.000000	88.498114
3961.000000	88.521146
3960.000000	88.538779
3959.000000	88.574696
3958.000000	88.624497
3957.000000	88.669695
3956.000000	88.699562
3955.000000	88.717240
3954.000000	88.730426
3953.000000	88.752307
3952.000000	88.795415
3951.000000	88.863699
3950.000000	88.940398
3949.000000	88.978274
3948.000000	88.938452
3947.000000	88.864893
3946.000000	88.874620
3945.000000	89.031701
3944.000000	89.254707
3943.000000	89.384347
3942.000000	89.352892
3941.000000	89.258367
3940.000000	89.244257
3939.000000	89.321375
3938.000000	89.387665
3937.000000	89.385152
3936.000000	89.372185
3935.000000	89.436466
3934.000000	89.575033
3933.000000	89.704504
3932.000000	89.745381
3931.000000	89.682505
3930.000000	89.563053
3929.000000	89.464079
3928.000000	89.478642
3927.000000	89.640981
3926.000000	89.838415
3925.000000	89.893239
3924.000000	89.766469
3923.000000	89.605389
3922.000000	89.551318
3921.000000	89.600614
3920.000000	89.700196
3919.000000	89.833873
3918.000000	89.960585
3917.000000	89.985159
3916.000000	89.885661
3915.000000	89.783817
3914.000000	89.813808
3913.000000	89.955810
3912.000000	90.102278
3911.000000	90.149223
3910.000000	90.073305
3909.000000	89.934442
3908.000000	89.840321
3907.000000	89.881473
3906.000000	90.027306
3905.000000	90.110749
3904.000000	89.980984
3903.000000	89.716549
3902.000000	89.593682
3901.000000	89.739593
3900.000000	89.943382
3899.000000	89.949171
3898.000000	89.773008
3897.000000	89.618219
3896.000000	89.634108
3895.000000	89.833262
3894.000000	90.218252
3893.000000	90.706598
3892.000000	90.978219
3891.000000	90.653914
3890.000000	89.916693
3889.000000	89.497180
3888.000000	89.803781
3887.000000	90.494000
3886.000000	90.840855
3885.000000	90.471087
3884.000000	89.873099
3883.000000	89.788175
3882.000000	90.290676
3881.000000	90.813533
3880.000000	90.789031
3879.000000	90.257439
3878.000000	89.848714
3877.000000	89.994485
3876.000000	90.468854
3875.000000	90.709629
3874.000000	90.459477
3873.000000	90.135683
3872.000000	90.297508
3871.000000	90.803935
3870.000000	90.899159
3869.000000	90.267165
3868.000000	89.631203
3867.000000	89.712273
3866.000000	90.286932
3865.000000	90.739346
3864.000000	90.818358
3863.000000	90.652276
3862.000000	90.481648
3861.000000	90.366303
3860.000000	90.242555
3859.000000	90.053101
3858.000000	89.850175
3857.000000	89.825043
3856.000000	90.226117
3855.000000	91.080001
3854.000000	91.746272
3853.000000	91.119777
3852.000000	89.471901
3851.000000	88.471263
3850.000000	88.696742
3849.000000	89.442228
3848.000000	90.121317
3847.000000	90.594748
3846.000000	90.910718
3845.000000	91.098094
3844.000000	91.095161
3843.000000	90.849261
3842.000000	90.560101
3841.000000	90.505291
3840.000000	90.739640
3839.000000	91.034322
3838.000000	91.060825
3837.000000	90.702135
3836.000000	90.234513
3835.000000	90.071944
3834.000000	90.346979
3833.000000	90.800274
3832.000000	91.057777
3831.000000	91.000064
3830.000000	90.870987
3829.000000	90.973629
3828.000000	91.281165
3827.000000	91.401792
3826.000000	91.101249
3825.000000	90.702049
3824.000000	90.762445
3823.000000	91.398454
3822.000000	92.025715
3821.000000	91.773516
3820.000000	90.704754
3819.000000	90.054326
3818.000000	90.516847
3817.000000	91.477880
3816.000000	91.873997
3815.000000	91.382910
3814.000000	90.760211
3813.000000	90.665543
3812.000000	90.907954
3811.000000	91.133633
3810.000000	91.395736
3809.000000	91.880878
3808.000000	92.359086
3807.000000	92.206111
3806.000000	91.324395
3805.000000	90.590932
3804.000000	90.804150
3803.000000	91.738287
3802.000000	92.429055
3801.000000	92.080709
3800.000000	91.120135
3799.000000	90.710837
3798.000000	91.140946
3797.000000	91.772622
3796.000000	92.020206
3795.000000	91.899051
3794.000000	91.792505
3793.000000	91.895191
3792.000000	92.097563
3791.000000	92.251047
3790.000000	92.309345
3789.000000	92.311646
3788.000000	92.329232
3787.000000	92.417953
3786.000000	92.531306
3785.000000	92.516642
3784.000000	92.325574
3783.000000	92.155196
3782.000000	92.244890
3781.000000	92.562713
3780.000000	92.814091
3779.000000	92.736040
3778.000000	92.429247
3777.000000	92.224143
3776.000000	92.230440
3775.000000	92.270240
3774.000000	92.250431
3773.000000	92.318611
3772.000000	92.583056
3771.000000	92.841664
3770.000000	92.776628
3769.000000	92.394791
3768.000000	92.105092
3767.000000	92.184832
3766.000000	92.396594
3765.000000	92.349373
3764.000000	92.070682
3763.000000	91.956996
3762.000000	92.202241
3761.000000	92.566327
3760.000000	92.762964
3759.000000	92.687272
3758.000000	92.368351
3757.000000	91.935942
3756.000000	91.608161
3755.000000	91.561210
3754.000000	91.770793
3753.000000	92.089044
3752.000000	92.393391
3751.000000	92.452016
3750.000000	91.885246
3749.000000	90.805401
3748.000000	90.110847
3747.000000	90.549423
3746.000000	91.882816
3745.000000	93.034570
3744.000000	92.738935
3743.000000	91.308929
3742.000000	90.474953
3741.000000	90.727813
3740.000000	91.334409
3739.000000	91.855619
3738.000000	92.298697
3737.000000	92.658629
3736.000000	92.746103
3735.000000	92.574225
3734.000000	92.462989
3733.000000	92.514576
3732.000000	92.447277
3731.000000	92.144752
3730.000000	91.946169
3729.000000	92.171522
3728.000000	92.671168
3727.000000	93.041748
3726.000000	93.083298
3725.000000	92.985198
3724.000000	92.991360
3723.000000	93.086508
3722.000000	93.140936
3721.000000	93.111936
3720.000000	93.095027
3719.000000	93.119315
3718.000000	93.055382
3717.000000	92.860507
3716.000000	92.717367
3715.000000	92.833667
3714.000000	93.207404
3713.000000	93.623212
3712.000000	93.813022
3711.000000	93.620975
3710.000000	93.208138
3709.000000	92.903616
3708.000000	92.831406
3707.000000	92.907105
3706.000000	93.065839
3705.000000	93.335151
3704.000000	93.716153
3703.000000	94.075987
3702.000000	94.196420
3701.000000	93.971692
3700.000000	93.612154
3699.000000	93.473177
3698.000000	93.604728
3697.000000	93.750585
3696.000000	93.732637
3695.000000	93.616478
3694.000000	93.535783
3693.000000	93.523549
3692.000000	93.599036
3691.000000	93.815701
3690.000000	94.116732
3689.000000	94.169332
3688.000000	93.688804
3687.000000	93.016820
3686.000000	92.788816
3685.000000	93.093674
3684.000000	93.539469
3683.000000	93.850820
3682.000000	93.998662
3681.000000	93.974912
3680.000000	93.704721
3679.000000	93.390207
3678.000000	93.493100
3677.000000	94.112242
3676.000000	94.536755
3675.000000	93.846858
3674.000000	92.532620
3673.000000	92.063408
3672.000000	92.779282
3671.000000	93.820816
3670.000000	94.255093
3669.000000	93.843104
3668.000000	93.255278
3667.000000	93.157381
3666.000000	93.509832
3665.000000	93.949652
3664.000000	94.276416
3663.000000	94.462755
3662.000000	94.480439
3661.000000	94.331919
3660.000000	94.156215
3659.000000	94.200877
3658.000000	94.512304
3657.000000	94.749585
3656.000000	94.441826
3655.000000	93.660950
3654.000000	93.062058
3653.000000	93.048002
3652.000000	93.445040
3651.000000	93.901175
3650.000000	94.146299
3649.000000	94.018049
3648.000000	93.558120
3647.000000	93.041628
3646.000000	92.798823
3645.000000	92.955998
3644.000000	93.392211
3643.000000	93.848853
3642.000000	94.125757
3641.000000	94.219977
3640.000000	94.237920
3639.000000	94.222708
3638.000000	94.145251
3637.000000	94.068735
3636.000000	94.078212
3635.000000	94.056384
3634.000000	93.779175
3633.000000	93.319087
3632.000000	93.108671
3631.000000	93.453584
3630.000000	94.113804
3629.000000	94.300460
3628.000000	93.540684
3627.000000	92.583386
3626.000000	92.328068
3625.000000	92.646278
3624.000000	93.002740
3623.000000	93.219657
3622.000000	93.428075
3621.000000	93.697313
3620.000000	93.859145
3619.000000	93.654804
3618.000000	93.091168
3617.000000	92.576048
3616.000000	92.470015
3615.000000	92.699919
3614.000000	92.921797
3613.000000	92.898813
3612.000000	92.718456
3611.000000	92.649182
3610.000000	92.794019
3609.000000	92.973473
3608.000000	92.962554
3607.000000	92.762720
3606.000000	92.581643
3605.000000	92.572026
3604.000000	92.700508
3603.000000	92.867398
3602.000000	92.981035
3601.000000	92.972243
3600.000000	92.837731
3599.000000	92.672211
3598.000000	92.566444
3597.000000	92.561558
3596.000000	92.612994
3595.000000	92.601329
3594.000000	92.428369
3593.000000	92.122129
3592.000000	91.838915
3591.000000	91.739194
3590.000000	91.867263
3589.000000	92.107569
3588.000000	92.222797
3587.000000	92.028868
3586.000000	91.640939
3585.000000	91.375113
3584.000000	91.370059
3583.000000	91.521074
3582.000000	91.672270
3581.000000	91.752045
3580.000000	91.759781
3579.000000	91.723987
3578.000000	91.674175
3577.000000	91.630851
3576.000000	91.604237
3575.000000	91.570734
3574.000000	91.492381
3573.000000	91.345787
3572.000000	91.155882
3571.000000	91.009687
3570.000000	91.007568
3569.000000	91.160109
3568.000000	91.330125
3567.000000	91.319625
3566.000000	91.094998
3565.000000	90.866252
3564.000000	90.833209
3563.000000	90.983593
3562.000000	91.189527
3561.000000	91.353905
3560.000000	91.448710
3559.000000	91.483792
3558.000000	91.481940
3557.000000	91.466970
3556.000000	91.471846
3555.000000	91.525373
3554.000000	91.613473
3553.000000	91.666015
3552.000000	91.612265
3551.000000	91.472975
3550.000000	91.358909
3549.000000	91.353043
3548.000000	91.435327
3547.000000	91.525280
3546.000000	91.558921
3545.000000	91.533716
3544.000000	91.497118
3543.000000	91.491283
3542.000000	91.522184
3541.000000	91.571028
3540.000000	91.624898
3539.000000	91.685960
3538.000000	91.748809
3537.000000	91.792935
3536.000000	91.792397
3535.000000	91.751430
3534.000000	91.705775
3533.000000	91.687371
3532.000000	91.696850
3531.000000	91.716190
3530.000000	91.729012
3529.000000	91.717208
3528.000000	91.664423
3527.000000	91.585862
3526.000000	91.536353
3525.000000	91.553988
3524.000000	91.609980
3523.000000	91.637414
3522.000000	91.611657
3521.000000	91.575517
3520.000000	91.572042
3519.000000	91.587448
3518.000000	91.577356
3517.000000	91.532669
3516.000000	91.477300
3515.000000	91.420341
3514.000000	91.352144
3513.000000	91.280855
3512.000000	91.229357
3511.000000	91.193883
3510.000000	91.131932
3509.000000	91.006951
3508.000000	90.839353
3507.000000	90.694990
3506.000000	90.618306
3505.000000	90.592281
3504.000000	90.560452
3503.000000	90.477829
3502.000000	90.348547
3501.000000	90.219485
3500.000000	90.135747
3499.000000	90.103404
3498.000000	90.093982
3497.000000	90.074563
3496.000000	90.030670
3495.000000	89.967283
3494.000000	89.899370
3493.000000	89.843165
3492.000000	89.805995
3491.000000	89.786105
3490.000000	89.780295
3489.000000	89.781867
3488.000000	89.775334
3487.000000	89.749720
3486.000000	89.720122
3485.000000	89.720881
3484.000000	89.765734
3483.000000	89.827776
3482.000000	89.868652
3481.000000	89.881252
3480.000000	89.893289
3479.000000	89.933445
3478.000000	90.007465
3477.000000	90.100998
3476.000000	90.193847
3475.000000	90.270045
3474.000000	90.326353
3473.000000	90.374946
3472.000000	90.429887
3471.000000	90.493569
3470.000000	90.564784
3469.000000	90.646947
3468.000000	90.737417
3467.000000	90.821856
3466.000000	90.892903
3465.000000	90.964055
3464.000000	91.048731
3463.000000	91.137711
3462.000000	91.212992
3461.000000	91.276384
3460.000000	91.347825
3459.000000	91.438160
3458.000000	91.538919
3457.000000	91.638625
3456.000000	91.731603
3455.000000	91.819717
3454.000000	91.905776
3453.000000	91.984868
3452.000000	92.049010
3451.000000	92.106331
3450.000000	92.185603
3449.000000	92.300435
3448.000000	92.418354
3447.000000	92.490343
3446.000000	92.517568
3445.000000	92.558331
3444.000000	92.654546
3443.000000	92.782513
3442.000000	92.892675
3441.000000	92.972728
3440.000000	93.048051
3439.000000	93.137054
3438.000000	93.233679
3437.000000	93.329179
3436.000000	93.423715
3435.000000	93.520463
3434.000000	93.616778
3433.000000	93.706019
3432.000000	93.786133
3431.000000	93.861787
3430.000000	93.940716
3429.000000	94.026007
3428.000000	94.113923
3427.000000	94.197025
3426.000000	94.271149
3425.000000	94.341781
3424.000000	94.421271
3423.000000	94.516229
3422.000000	94.617507
3421.000000	94.707765
3420.000000	94.779516
3419.000000	94.843799
3418.000000	94.918512
3417.000000	95.010012
3416.000000	95.110448
3415.000000	95.209712
3414.000000	95.304864
3413.000000	95.398387
3412.000000	95.492613
3411.000000	95.588240
3410.000000	95.685557
3409.000000	95.784246
3408.000000	95.883630
3407.000000	95.982538
3406.000000	96.078912
3405.000000	96.172343
3404.000000	96.264064
3403.000000	96.355352
3402.000000	96.448737
3401.000000	96.552428
3400.000000	96.674586
3399.000000	96.807471
3398.000000	96.927854
3397.000000	97.021668
3396.000000	97.102453
3395.000000	97.195294
3394.000000	97.307844
3393.000000	97.426570
3392.000000	97.538375
3391.000000	97.645245
3390.000000	97.755810
3389.000000	97.872238
3388.000000	97.990755
3387.000000	98.108726
3386.000000	98.224874
3385.000000	98.337791
3384.000000	98.447589
3383.000000	98.558465
3382.000000	98.676041
3381.000000	98.802528
3380.000000	98.934832
3379.000000	99.066583
3378.000000	99.194452
3377.000000	99.320895
3376.000000	99.449177
3375.000000	99.576457
3374.000000	99.696691
3373.000000	99.809620
3372.000000	99.922135
3371.000000	100.040933
3370.000000	100.168992
3369.000000	100.307795
3368.000000	100.455820
3367.000000	100.605430
3366.000000	100.747302
3365.000000	100.879652
3364.000000	101.009391
3363.000000	101.143421
3362.000000	101.282438
3361.000000	101.424297
3360.000000	101.569009
3359.000000	101.718223
3358.000000	101.871894
3357.000000	102.026827
3356.000000	102.178459
3355.000000	102.324180
3354.000000	102.467027
3353.000000	102.615330
3352.000000	102.775809
3351.000000	102.946393
3350.000000	103.118440
3349.000000	103.284638
3348.000000	103.442008
3347.000000	103.590791
3346.000000	103.733504
3345.000000	103.875982
3344.000000	104.023562
3343.000000	104.174002
3342.000000	104.319771
3341.000000	104.458937
3340.000000	104.599568
3339.000000	104.749898
3338.000000	104.907124
3337.000000	105.058879
3336.000000	105.194232
3335.000000	105.311842
3334.000000	105.418292
3333.000000	105.519783
3332.000000	105.616134
3331.000000	105.701368
3330.000000	105.769095
3329.000000	105.816566
3328.000000	105.843231
3327.000000	105.848160
3326.000000	105.827959
3325.000000	105.777385
3324.000000	105.691060
3323.000000	105.562587
3322.000000	105.387507
3321.000000	105.164952
3320.000000	104.892422
3319.000000	104.561713
3318.000000	104.159901
3317.000000	103.677951
3316.000000	103.111414
3315.000000	102.450576
3314.000000	101.680048
3313.000000	100.787184
3312.000000	99.771812
3311.000000	98.643771
3310.000000	97.411359
3309.000000	96.083097
3308.000000	94.674856
3307.000000	93.213014
3306.000000	91.728634
3305.000000	90.245763
3304.000000	88.779221
3303.000000	87.340733
3302.000000	85.947547
3301.000000	84.623437
3300.000000	83.389573
3299.000000	82.256650
3298.000000	81.228483
3297.000000	80.307883
3296.000000	79.491091
3295.000000	78.758000
3294.000000	78.069276
3293.000000	77.375098
3292.000000	76.626257
3291.000000	75.782230
3290.000000	74.818731
3289.000000	73.731832
3288.000000	72.532057
3287.000000	71.234409
3286.000000	69.852323
3285.000000	68.391202
3284.000000	66.847470
3283.000000	65.210718
3282.000000	63.474742
3281.000000	61.652969
3280.000000	59.780824
3279.000000	57.913422
3278.000000	56.126818
3277.000000	54.516152
3276.000000	53.175213
3275.000000	52.173894
3274.000000	51.546503
3273.000000	51.293126
3272.000000	51.389325
3271.000000	51.783812
3270.000000	52.410512
3269.000000	53.202383
3268.000000	54.095128
3267.000000	55.034957
3266.000000	55.975562
3265.000000	56.875928
3264.000000	57.694723
3263.000000	58.383612
3262.000000	58.887963
3261.000000	59.155343
3260.000000	59.132884
3259.000000	58.765866
3258.000000	58.012314
3257.000000	56.838799
3256.000000	55.222073
3255.000000	53.143207
3254.000000	50.598612
3253.000000	47.637479
3252.000000	44.370505
3251.000000	40.973150
3250.000000	37.675997
3249.000000	34.733880
3248.000000	32.368805
3247.000000	30.719156
3246.000000	29.816814
3245.000000	29.606369
3244.000000	29.990880
3243.000000	30.855198
3242.000000	32.096072
3241.000000	33.613462
3240.000000	35.290716
3239.000000	37.005464
3238.000000	38.644622
3237.000000	40.130056
3236.000000	41.423122
3235.000000	42.518697
3234.000000	43.436901
3233.000000	44.208109
3232.000000	44.855085
3231.000000	45.388787
3230.000000	45.823916
3229.000000	46.184895
3228.000000	46.501246
3227.000000	46.799237
3226.000000	47.102326
3225.000000	47.433926
3224.000000	47.809151
3223.000000	48.229221
3222.000000	48.685560
3221.000000	49.164190
3220.000000	49.642478
3219.000000	50.088868
3218.000000	50.476443
3217.000000	50.791822
3216.000000	51.027286
3215.000000	51.174879
3214.000000	51.234452
3213.000000	51.224383
3212.000000	51.172565
3211.000000	51.100057
3210.000000	51.020992
3209.000000	50.950186
3208.000000	50.904201
3207.000000	50.894817
3206.000000	50.927580
3205.000000	51.004877
3204.000000	51.125654
3203.000000	51.283966
3202.000000	51.473271
3201.000000	51.690393
3200.000000	51.929842
3199.000000	52.179587
3198.000000	52.426552
3197.000000	52.664308
3196.000000	52.891597
3195.000000	53.106542
3194.000000	53.305934
3193.000000	53.486712
3192.000000	53.644129
3191.000000	53.771264
3190.000000	53.865950
3189.000000	53.934511
3188.000000	53.985831
3187.000000	54.024210
3186.000000	54.050770
3185.000000	54.067394
3184.000000	54.073387
3183.000000	54.064565
3182.000000	54.039959
3181.000000	54.004347
3180.000000	53.961610
3179.000000	53.911498
3178.000000	53.858622
3177.000000	53.819303
3176.000000	53.814097
3175.000000	53.855530
3174.000000	53.947647
3173.000000	54.094489
3172.000000	54.303095
3171.000000	54.585994
3170.000000	54.961670
3169.000000	55.450487
3168.000000	56.065638
3167.000000	56.803855
3166.000000	57.652171
3165.000000	58.593698
3164.000000	59.606783
3163.000000	60.667495
3162.000000	61.753998
3161.000000	62.848876
3160.000000	63.932006
3159.000000	64.978103
3158.000000	65.962471
3157.000000	66.864888
3156.000000	67.665571
3155.000000	68.343082
3154.000000	68.879531
3153.000000	69.260758
3152.000000	69.478227
3151.000000	69.531251
3150.000000	69.433925
3149.000000	69.216371
3148.000000	68.907337
3147.000000	68.523935
3146.000000	68.068730
3145.000000	67.531868
3144.000000	66.895894
3143.000000	66.139067
3142.000000	65.250125
3141.000000	64.235546
3140.000000	63.113281
3139.000000	61.907068
3138.000000	60.646102
3137.000000	59.369470
3136.000000	58.118546
3135.000000	56.926906
3134.000000	55.821013
3133.000000	54.825366
3132.000000	53.960812
3131.000000	53.241464
3130.000000	52.678150
3129.000000	52.274361
3128.000000	52.022727
3127.000000	51.907272
3126.000000	51.914531
3125.000000	52.037883
3124.000000	52.263424
3123.000000	52.569013
3122.000000	52.934519
3121.000000	53.348055
3120.000000	53.800164
3119.000000	54.274457
3118.000000	54.754041
3117.000000	55.227614
3116.000000	55.684797
3115.000000	56.110782
3114.000000	56.490366
3113.000000	56.811740
3112.000000	57.062450
3111.000000	57.230152
3110.000000	57.307342
3109.000000	57.293243
3108.000000	57.184741
3107.000000	56.974035
3106.000000	56.660301
3105.000000	56.251396
3104.000000	55.759100
3103.000000	55.195121
3102.000000	54.575758
3101.000000	53.927047
3100.000000	53.278867
3099.000000	52.658586
3098.000000	52.088821
3097.000000	51.586532
3096.000000	51.158951
3095.000000	50.805335
3094.000000	50.523395
3093.000000	50.310196
3092.000000	50.156402
3091.000000	50.043947
3090.000000	49.954363
3089.000000	49.872868
3088.000000	49.785708
3087.000000	49.682596
3086.000000	49.564471
3085.000000	49.444257
3084.000000	49.336059
3083.000000	49.248437
3082.000000	49.190155
3081.000000	49.174156
3080.000000	49.212730
3079.000000	49.312618
3078.000000	49.477229
3077.000000	49.709148
3076.000000	50.003983
3075.000000	50.350413
3074.000000	50.738190
3073.000000	51.160789
3072.000000	51.611640
3071.000000	52.081359
3070.000000	52.564158
3069.000000	53.060401
3068.000000	53.569620
3067.000000	54.085865
3066.000000	54.600342
3065.000000	55.106022
3064.000000	55.598022
3063.000000	56.073317
3062.000000	56.531317
3061.000000	56.972438
3060.000000	57.395704
3059.000000	57.800537
3058.000000	58.190458
3057.000000	58.570748
3056.000000	58.942726
3055.000000	59.304407
3054.000000	59.656776
3053.000000	60.004652
3052.000000	60.350819
3051.000000	60.692948
3050.000000	61.026099
3049.000000	61.345247
3048.000000	61.646299
3047.000000	61.928659
3046.000000	62.197503
3045.000000	62.459729
3044.000000	62.717930
3043.000000	62.971656
3042.000000	63.223702
3041.000000	63.479917
3040.000000	63.741854
3039.000000	64.005699
3038.000000	64.268778
3037.000000	64.532708
3036.000000	64.799896
3035.000000	65.071036
3034.000000	65.347128
3033.000000	65.628239
3032.000000	65.908698
3031.000000	66.180180
3030.000000	66.442318
3029.000000	66.704143
3028.000000	66.972277
3027.000000	67.243984
3026.000000	67.514723
3025.000000	67.785557
3024.000000	68.058692
3023.000000	68.331188
3022.000000	68.597791
3021.000000	68.856797
3020.000000	69.110109
3019.000000	69.359579
3018.000000	69.606001
3017.000000	69.850105
3016.000000	70.092533
3015.000000	70.334050
3014.000000	70.576507
3013.000000	70.821926
3012.000000	71.069629
3011.000000	71.315873
3010.000000	71.557636
3009.000000	71.793603
3008.000000	72.020136
3007.000000	72.227933
3006.000000	72.398937
3005.000000	72.500566
3004.000000	72.474827
3003.000000	72.241905
3002.000000	71.735186
3001.000000	70.957588
3000.000000	70.020553
2999.000000	69.116730
2998.000000	68.433938
2997.000000	68.068309
2996.000000	68.003315
2995.000000	68.159717
2994.000000	68.458526
2993.000000	68.844379
2992.000000	69.272331
2991.000000	69.699504
2990.000000	70.091900
2989.000000	70.430227
2988.000000	70.702869
2987.000000	70.897374
2986.000000	70.996629
2985.000000	70.976063
2984.000000	70.806480
2983.000000	70.475513
2982.000000	70.021145
2981.000000	69.541468
2980.000000	69.161872
2979.000000	68.978272
2978.000000	69.020829
2977.000000	69.257207
2976.000000	69.624540
2975.000000	70.063978
2974.000000	70.536965
2973.000000	71.021170
2972.000000	71.497926
2971.000000	71.949381
2970.000000	72.361321
2969.000000	72.725206
2968.000000	73.032774
2967.000000	73.271842
2966.000000	73.423842
2965.000000	73.453248
2964.000000	73.292150
2963.000000	72.832282
2962.000000	71.958970
2961.000000	70.627660
2960.000000	68.945411
2959.000000	67.178639
2958.000000	65.648764
2957.000000	64.577621
2956.000000	63.996625
2955.000000	63.792310
2954.000000	63.821139
2953.000000	63.988509
2952.000000	64.247295
2951.000000	64.567953
2950.000000	64.928673
2949.000000	65.316908
2948.000000	65.728310
2947.000000	66.160549
2946.000000	66.613354
2945.000000	67.083796
2944.000000	67.558373
2943.000000	68.017373
2942.000000	68.450399
2941.000000	68.865909
2940.000000	69.283559
2939.000000	69.722290
2938.000000	70.194591
2937.000000	70.702982
2936.000000	71.236883
2935.000000	71.776737
2934.000000	72.304726
2933.000000	72.810174
2932.000000	73.287035
2931.000000	73.733293
2930.000000	74.153101
2929.000000	74.553378
2928.000000	74.936340
2927.000000	75.299674
2926.000000	75.644023
2925.000000	75.973542
2924.000000	76.288519
2923.000000	76.582692
2922.000000	76.848968
2921.000000	77.083013
2920.000000	77.280853
2919.000000	77.439473
2918.000000	77.560745
2917.000000	77.650521
2916.000000	77.713970
2915.000000	77.755345
2914.000000	77.781461
2913.000000	77.798934
2912.000000	77.808424
2911.000000	77.807331
2910.000000	77.797220
2909.000000	77.784800
2908.000000	77.775116
2907.000000	77.769181
2906.000000	77.768970
2905.000000	77.777833
2904.000000	77.794276
2903.000000	77.811042
2902.000000	77.821600
2901.000000	77.823080
2900.000000	77.813029
2899.000000	77.788427
2898.000000	77.750392
2897.000000	77.704858
2896.000000	77.657273
2895.000000	77.610775
2894.000000	77.570305
2893.000000	77.542922
2892.000000	77.532042
2891.000000	77.535162
2890.000000	77.548199
2889.000000	77.568038
2888.000000	77.590111
2887.000000	77.608350
2886.000000	77.619308
2885.000000	77.622785
2884.000000	77.617444
2883.000000	77.600037
2882.000000	77.569407
2881.000000	77.527004
2880.000000	77.472324
2879.000000	77.401586
2878.000000	77.312254
2877.000000	77.206356
2876.000000	77.090546
2875.000000	76.977061
2874.000000	76.883971
2873.000000	76.827102
2872.000000	76.809064
2871.000000	76.820698
2870.000000	76.854771
2869.000000	76.915277
2868.000000	77.013401
2867.000000	77.158973
2866.000000	77.355535
2865.000000	77.596679
2864.000000	77.864209
2863.000000	78.135210
2862.000000	78.393690
2861.000000	78.633408
2860.000000	78.851646
2859.000000	79.046305
2858.000000	79.220681
2857.000000	79.385445
2856.000000	79.552924
2855.000000	79.732326
2854.000000	79.929681
2853.000000	80.146086
2852.000000	80.373470
2851.000000	80.596416
2850.000000	80.800822
2849.000000	80.978995
2848.000000	81.127764
2847.000000	81.247419
2846.000000	81.343782
2845.000000	81.426540
2844.000000	81.502714
2843.000000	81.573826
2842.000000	81.640277
2841.000000	81.705228
2840.000000	81.772639
2839.000000	81.844557
2838.000000	81.921471
2837.000000	82.002898
2836.000000	82.087052
2835.000000	82.172025
2834.000000	82.257742
2833.000000	82.344760
2832.000000	82.431555
2831.000000	82.515732
2830.000000	82.597509
2829.000000	82.679147
2828.000000	82.761230
2827.000000	82.842600
2826.000000	82.923580
2825.000000	83.005836
2824.000000	83.089064
2823.000000	83.170885
2822.000000	83.250102
2821.000000	83.326993
2820.000000	83.400501
2819.000000	83.468333
2818.000000	83.529894
2817.000000	83.586283
2816.000000	83.637519
2815.000000	83.682674
2814.000000	83.722687
2813.000000	83.760281
2812.000000	83.797365
2811.000000	83.835220
2810.000000	83.876284
2809.000000	83.922286
2808.000000	83.971190
2807.000000	84.019391
2806.000000	84.066650
2805.000000	84.115571
2804.000000	84.166615
2803.000000	84.217408
2802.000000	84.266904
2801.000000	84.316739
2800.000000	84.368599
2799.000000	84.423369
2798.000000	84.482574
2797.000000	84.547108
2796.000000	84.614573
2795.000000	84.681157
2794.000000	84.745932
2793.000000	84.810191
2792.000000	84.873339
2791.000000	84.933258
2790.000000	84.990389
2789.000000	85.047491
2788.000000	85.105136
2787.000000	85.161057
2786.000000	85.214064
2785.000000	85.265092
2784.000000	85.314265
2783.000000	85.360402
2782.000000	85.403559
2781.000000	85.444616
2780.000000	85.481961
2779.000000	85.511982
2778.000000	85.533404
2777.000000	85.548229
2776.000000	85.558481
2775.000000	85.565027
2774.000000	85.569602
2773.000000	85.574774
2772.000000	85.581330
2771.000000	85.588532
2770.000000	85.596874
2769.000000	85.607505
2768.000000	85.618981
2767.000000	85.627595
2766.000000	85.631207
2765.000000	85.630227
2764.000000	85.625308
2763.000000	85.617404
2762.000000	85.610165
2761.000000	85.609089
2760.000000	85.617991
2759.000000	85.638563
2758.000000	85.672366
2757.000000	85.719899
2756.000000	85.777686
2755.000000	85.839447
2754.000000	85.900350
2753.000000	85.957541
2752.000000	86.007574
2751.000000	86.047264
2750.000000	86.077051
2749.000000	86.100288
2748.000000	86.119105
2747.000000	86.133538
2746.000000	86.144163
2745.000000	86.152074
2744.000000	86.155884
2743.000000	86.152254
2742.000000	86.140102
2741.000000	86.122298
2740.000000	86.104215
2739.000000	86.093246
2738.000000	86.098328
2737.000000	86.125832
2736.000000	86.175035
2735.000000	86.239854
2734.000000	86.314871
2733.000000	86.396720
2732.000000	86.481096
2731.000000	86.562905
2730.000000	86.639602
2729.000000	86.711305
2728.000000	86.777291
2727.000000	86.834841
2726.000000	86.881423
2725.000000	86.915504
2724.000000	86.935687
2723.000000	86.942630
2722.000000	86.941917
2721.000000	86.941917
2720.000000	86.948763
2719.000000	86.965120
2718.000000	86.992441
2717.000000	87.030840
2716.000000	87.077002
2715.000000	87.125584
2714.000000	87.173004
2713.000000	87.217522
2712.000000	87.256447
2711.000000	87.286636
2710.000000	87.307605
2709.000000	87.321054
2708.000000	87.327508
2707.000000	87.326106
2706.000000	87.317205
2705.000000	87.303021
2704.000000	87.286309
2703.000000	87.271010
2702.000000	87.263439
2701.000000	87.269558
2700.000000	87.290942
2699.000000	87.325575
2698.000000	87.371188
2697.000000	87.424870
2696.000000	87.481242
2695.000000	87.534726
2694.000000	87.583427
2693.000000	87.628192
2692.000000	87.668774
2691.000000	87.704144
2690.000000	87.735466
2689.000000	87.765067
2688.000000	87.793001
2687.000000	87.817824
2686.000000	87.839706
2685.000000	87.859536
2684.000000	87.875922
2683.000000	87.886653
2682.000000	87.892826
2681.000000	87.898020
2680.000000	87.904020
2679.000000	87.910878
2678.000000	87.920579
2677.000000	87.936802
2676.000000	87.961177
2675.000000	87.992886
2674.000000	88.031538
2673.000000	88.077176
2672.000000	88.127433
2671.000000	88.178116
2670.000000	88.226669
2669.000000	88.272289
2668.000000	88.313423
2667.000000	88.348351
2666.000000	88.377958
2665.000000	88.405091
2664.000000	88.431600
2663.000000	88.458740
2662.000000	88.489507
2661.000000	88.527036
2660.000000	88.570753
2659.000000	88.616944
2658.000000	88.662635
2657.000000	88.706216
2656.000000	88.745129
2655.000000	88.776320
2654.000000	88.798907
2653.000000	88.813547
2652.000000	88.820248
2651.000000	88.819738
2650.000000	88.816087
2649.000000	88.814835
2648.000000	88.818719
2647.000000	88.827946
2646.000000	88.843602
2645.000000	88.867268
2644.000000	88.897852
2643.000000	88.932426
2642.000000	88.969720
2641.000000	89.009674
2640.000000	89.050250
2639.000000	89.087929
2638.000000	89.121016
2637.000000	89.149344
2636.000000	89.171351
2635.000000	89.185003
2634.000000	89.191695
2633.000000	89.196138
2632.000000	89.202350
2631.000000	89.212400
2630.000000	89.228259
2629.000000	89.251464
2628.000000	89.281012
2627.000000	89.314421
2626.000000	89.350792
2625.000000	89.390485
2624.000000	89.432253
2623.000000	89.473586
2622.000000	89.513338
2621.000000	89.551136
2620.000000	89.584720
2619.000000	89.610862
2618.000000	89.628412
2617.000000	89.637764
2616.000000	89.638315
2615.000000	89.629160
2614.000000	89.612184
2613.000000	89.591489
2612.000000	89.569721
2611.000000	89.547749
2610.000000	89.527101
2609.000000	89.509996
2608.000000	89.497219
2607.000000	89.488472
2606.000000	89.484380
2605.000000	89.485955
2604.000000	89.492697
2603.000000	89.503662
2602.000000	89.519913
2601.000000	89.542961
2600.000000	89.571806
2599.000000	89.603852
2598.000000	89.637671
2597.000000	89.672537
2596.000000	89.706195
2595.000000	89.736209
2594.000000	89.762839
2593.000000	89.787879
2592.000000	89.811429
2591.000000	89.832313
2590.000000	89.850542
2589.000000	89.866721
2588.000000	89.880208
2587.000000	89.890590
2586.000000	89.900141
2585.000000	89.912045
2584.000000	89.926967
2583.000000	89.943856
2582.000000	89.962869
2581.000000	89.984727
2580.000000	90.008341
2579.000000	90.031895
2578.000000	90.055179
2577.000000	90.078329
2576.000000	90.099641
2575.000000	90.117547
2574.000000	90.133564
2573.000000	90.150394
2572.000000	90.168387
2571.000000	90.186631
2570.000000	90.206037
2569.000000	90.228185
2568.000000	90.252317
2567.000000	90.276666
2566.000000	90.301608
2565.000000	90.328484
2564.000000	90.356685
2563.000000	90.385018
2562.000000	90.414984
2561.000000	90.449413
2560.000000	90.488740
2559.000000	90.531596
2558.000000	90.577590
2557.000000	90.626421
2556.000000	90.675410
2555.000000	90.721164
2554.000000	90.762836
2553.000000	90.800831
2552.000000	90.833560
2551.000000	90.858600
2550.000000	90.876160
2549.000000	90.887953
2548.000000	90.894091
2547.000000	90.893991
2546.000000	90.889157
2545.000000	90.882159
2544.000000	90.873675
2543.000000	90.864107
2542.000000	90.857025
2541.000000	90.857480
2540.000000	90.867393
2539.000000	90.885654
2538.000000	90.911552
2537.000000	90.944940
2536.000000	90.984010
2535.000000	91.025859
2534.000000	91.069142
2533.000000	91.113374
2532.000000	91.156768
2531.000000	91.197918
2530.000000	91.238273
2529.000000	91.279960
2528.000000	91.321925
2527.000000	91.361029
2526.000000	91.395500
2525.000000	91.424427
2524.000000	91.444965
2523.000000	91.453724
2522.000000	91.450601
2521.000000	91.437848
2520.000000	91.416899
2519.000000	91.388577
2518.000000	91.355437
2517.000000	91.320856
2516.000000	91.285907
2515.000000	91.250453
2514.000000	91.216124
2513.000000	91.185332
2512.000000	91.158344
2511.000000	91.134468
2510.000000	91.115176
2509.000000	91.103046
2508.000000	91.098575
2507.000000	91.100772
2506.000000	91.110171
2505.000000	91.127344
2504.000000	91.149251
2503.000000	91.170569
2502.000000	91.188116
2501.000000	91.201589
2500.000000	91.210678
2499.000000	91.214730
2498.000000	91.215095
2497.000000	91.214817
2496.000000	91.216442
2495.000000	91.222099
2494.000000	91.234559
2493.000000	91.255627
2492.000000	91.284132
2491.000000	91.318123
2490.000000	91.357721
2489.000000	91.403343
2488.000000	91.452898
2487.000000	91.503171
2486.000000	91.552785
2485.000000	91.600868
2484.000000	91.644395
2483.000000	91.680071
2482.000000	91.707858
2481.000000	91.730207
2480.000000	91.749612
2479.000000	91.769684
2478.000000	91.796093
2477.000000	91.832322
2476.000000	91.875144
2475.000000	91.917423
2474.000000	91.954302
2473.000000	91.983709
2472.000000	92.003249
2471.000000	92.011003
2470.000000	92.008766
2469.000000	92.001110
2468.000000	91.991432
2467.000000	91.982014
2466.000000	91.976629
2465.000000	91.979350
2464.000000	91.991042
2463.000000	92.009839
2462.000000	92.034247
2461.000000	92.062989
2460.000000	92.093227
2459.000000	92.122157
2458.000000	92.149996
2457.000000	92.178463
2456.000000	92.207314
2455.000000	92.235380
2454.000000	92.263588
2453.000000	92.293838
2452.000000	92.325813
2451.000000	92.357942
2450.000000	92.390390
2449.000000	92.423898
2448.000000	92.456889
2447.000000	92.487065
2446.000000	92.514962
2445.000000	92.542633
2444.000000	92.569824
2443.000000	92.594631
2442.000000	92.616945
2441.000000	92.638017
2440.000000	92.657214
2439.000000	92.672662
2438.000000	92.684293
2437.000000	92.693134
2436.000000	92.698529
2435.000000	92.698975
2434.000000	92.695341
2433.000000	92.690181
2432.000000	92.684607
2431.000000	92.678866
2430.000000	92.674908
2429.000000	92.675165
2428.000000	92.679310
2427.000000	92.685309
2426.000000	92.692965
2425.000000	92.703486
2424.000000	92.716318
2423.000000	92.729471
2422.000000	92.742283
2421.000000	92.754787
2420.000000	92.765366
2419.000000	92.772260
2418.000000	92.776803
2417.000000	92.782210
2416.000000	92.789934
2415.000000	92.800167
2414.000000	92.814532
2413.000000	92.834455
2412.000000	92.857525
2411.000000	92.879009
2410.000000	92.896508
2409.000000	92.909822
2408.000000	92.917231
2407.000000	92.915445
2406.000000	92.903276
2405.000000	92.881647
2404.000000	92.850396
2403.000000	92.809173
2402.000000	92.760640
2401.000000	92.709489
2400.000000	92.657482
2399.000000	92.602368
2398.000000	92.541796
2397.000000	92.473314
2396.000000	92.391420
2395.000000	92.288926
2394.000000	92.161856
2393.000000	92.012131
2392.000000	91.843775
2391.000000	91.661489
2390.000000	91.473454
2389.000000	91.289536
2388.000000	91.116915
2387.000000	90.957505
2386.000000	90.811817
2385.000000	90.681803
2384.000000	90.565281
2383.000000	90.456434
2382.000000	90.348618
2381.000000	90.237367
2380.000000	90.118721
2379.000000	89.987919
2378.000000	89.845322
2377.000000	89.694293
2376.000000	89.542408
2375.000000	89.397611
2374.000000	89.279210
2373.000000	89.207352
2372.000000	89.182506
2371.000000	89.191137
2370.000000	89.226074
2369.000000	89.278535
2368.000000	89.322532
2367.000000	89.345531
2366.000000	89.362923
2365.000000	89.355373
2364.000000	89.315249
2363.000000	89.270192
2362.000000	89.213493
2361.000000	89.163729
2360.000000	89.117880
2359.000000	89.064826
2358.000000	89.053240
2357.000000	89.058289
2356.000000	89.073418
2355.000000	89.075140
2354.000000	89.013132
2353.000000	88.759163
2352.000000	88.234242
2351.000000	87.734055
2350.000000	87.650657
2349.000000	88.150593
2348.000000	88.999472
2347.000000	89.630535
2346.000000	89.718034
2345.000000	89.333355
2344.000000	88.928830
2343.000000	88.745404
2342.000000	88.727728
2341.000000	88.806486
2340.000000	88.908664
2339.000000	89.039679
2338.000000	89.169312
2337.000000	89.307231
2336.000000	89.429804
2335.000000	89.582167
2334.000000	89.754023
2333.000000	89.957665
2332.000000	90.060831
2331.000000	90.107193
2330.000000	90.088294
2329.000000	90.079903
2328.000000	90.117029
2327.000000	90.192899
2326.000000	90.324480
2325.000000	90.416237
2324.000000	90.441638
2323.000000	90.394262
2322.000000	90.306154
2321.000000	90.224004
2320.000000	90.121559
2319.000000	90.044916
2318.000000	89.981775
2317.000000	89.980069
2316.000000	89.976707
2315.000000	89.964756
2314.000000	89.892083
2313.000000	89.795243
2312.000000	89.674056
2311.000000	89.573242
2310.000000	89.493480
2309.000000	89.451235
2308.000000	89.430263
2307.000000	89.438962
2306.000000	89.472668
2305.000000	89.537986
2304.000000	89.608820
2303.000000	89.680481
2302.000000	89.729450
2301.000000	89.761018
2300.000000	89.759788
2299.000000	89.734315
2298.000000	89.678696
2297.000000	89.598993
2296.000000	89.491435
2295.000000	89.361404
2294.000000	89.223541
2293.000000	89.091403
2292.000000	88.979538
2291.000000	88.895557
2290.000000	88.851352
2289.000000	88.843542
2288.000000	88.861809
2287.000000	88.889146
2286.000000	88.919694
2285.000000	88.950919
2284.000000	88.985458
2283.000000	89.026897
2282.000000	89.081612
2281.000000	89.154021
2280.000000	89.244634
2279.000000	89.354634
2278.000000	89.482251
2277.000000	89.624776
2276.000000	89.772498
2275.000000	89.920937
2274.000000	90.069132
2273.000000	90.215353
2272.000000	90.353241
2271.000000	90.478074
2270.000000	90.591028
2269.000000	90.693673
2268.000000	90.784100
2267.000000	90.864276
2266.000000	90.941328
2265.000000	91.021714
2264.000000	91.107560
2263.000000	91.197844
2262.000000	91.296450
2261.000000	91.402152
2260.000000	91.510776
2259.000000	91.619358
2258.000000	91.730098
2257.000000	91.846200
2256.000000	91.964469
2255.000000	92.083797
2254.000000	92.204214
2253.000000	92.326941
2252.000000	92.448623
2251.000000	92.568698
2250.000000	92.690086
2249.000000	92.813770
2248.000000	92.936938
2247.000000	93.057734
2246.000000	93.178089
2245.000000	93.297054
2244.000000	93.408501
2243.000000	93.507296
2242.000000	93.594166
2241.000000	93.670697
2240.000000	93.736076
2239.000000	93.790604
2238.000000	93.838068
2237.000000	93.880396
2236.000000	93.915771
2235.000000	93.943677
2234.000000	93.967225
2233.000000	93.987745
2232.000000	94.002396
2231.000000	94.010379
2230.000000	94.015686
2229.000000	94.021670
2228.000000	94.027424
2227.000000	94.032731
2226.000000	94.040476
2225.000000	94.051643
2224.000000	94.062490
2223.000000	94.069967
2222.000000	94.074463
2221.000000	94.075146
2220.000000	94.068112
2219.000000	94.052204
2218.000000	94.031559
2217.000000	94.009391
2216.000000	93.984734
2215.000000	93.958002
2214.000000	93.934724
2213.000000	93.920414
2212.000000	93.916407
2211.000000	93.922836
2210.000000	93.940274
2209.000000	93.965781
2208.000000	93.992523
2207.000000	94.016265
2206.000000	94.037059
2205.000000	94.052557
2204.000000	94.055508
2203.000000	94.041270
2202.000000	94.013342
2201.000000	93.980282
2200.000000	93.952834
2199.000000	93.945639
2198.000000	93.973206
2197.000000	94.038957
2196.000000	94.132095
2195.000000	94.237649
2194.000000	94.344518
2193.000000	94.442844
2192.000000	94.522630
2191.000000	94.579824
2190.000000	94.618753
2189.000000	94.644723
2188.000000	94.659103
2187.000000	94.663814
2186.000000	94.663903
2185.000000	94.662417
2184.000000	94.658330
2183.000000	94.652769
2182.000000	94.651243
2181.000000	94.656605
2180.000000	94.665435
2179.000000	94.674281
2178.000000	94.683853
2177.000000	94.694171
2176.000000	94.701966
2175.000000	94.706226
2174.000000	94.710816
2173.000000	94.718760
2172.000000	94.729796
2171.000000	94.746162
2170.000000	94.774123
2169.000000	94.816529
2168.000000	94.869525
2167.000000	94.929559
2166.000000	94.997202
2165.000000	95.070919
2164.000000	95.143829
2163.000000	95.210415
2162.000000	95.270796
2161.000000	95.325397
2160.000000	95.371954
2159.000000	95.410957
2158.000000	95.447598
2157.000000	95.484864
2156.000000	95.520356
2155.000000	95.552342
2154.000000	95.582531
2153.000000	95.610007
2152.000000	95.629269
2151.000000	95.637509
2150.000000	95.637809
2149.000000	95.632320
2148.000000	95.618803
2147.000000	95.597056
2146.000000	95.571630
2145.000000	95.544495
2144.000000	95.511650
2143.000000	95.470577
2142.000000	95.424509
2141.000000	95.377337
2140.000000	95.330763
2139.000000	95.289250
2138.000000	95.261089
2137.000000	95.250908
2136.000000	95.256978
2135.000000	95.278394
2134.000000	95.317713
2133.000000	95.373295
2132.000000	95.436363
2131.000000	95.499292
2130.000000	95.560607
2129.000000	95.618941
2128.000000	95.669269
2127.000000	95.709160
2126.000000	95.742206
2125.000000	95.771213
2124.000000	95.794291
2123.000000	95.810232
2122.000000	95.820744
2121.000000	95.824379
2120.000000	95.815524
2119.000000	95.792790
2118.000000	95.762269
2117.000000	95.729838
2116.000000	95.696674
2115.000000	95.664737
2114.000000	95.638856
2113.000000	95.619858
2112.000000	95.602245
2111.000000	95.581977
2110.000000	95.560361
2109.000000	95.538036
2108.000000	95.512542
2107.000000	95.484965
2106.000000	95.462025
2105.000000	95.448622
2104.000000	95.444659
2103.000000	95.451275
2102.000000	95.473134
2101.000000	95.510749
2100.000000	95.558280
2099.000000	95.611130
2098.000000	95.668669
2097.000000	95.726998
2096.000000	95.775961
2095.000000	95.808223
2094.000000	95.823375
2093.000000	95.820839
2092.000000	95.798065
2091.000000	95.759702
2090.000000	95.720371
2089.000000	95.694131
2088.000000	95.687579
2087.000000	95.705563
2086.000000	95.753154
2085.000000	95.828043
2084.000000	95.918511
2083.000000	96.013650
2082.000000	96.109486
2081.000000	96.202757
2080.000000	96.287479
2079.000000	96.361792
2078.000000	96.430301
2077.000000	96.496344
2076.000000	96.558573
2075.000000	96.618738
2074.000000	96.682051
2073.000000	96.747576
2072.000000	96.807930
2071.000000	96.858642
2070.000000	96.902897
2069.000000	96.943524
2068.000000	96.978582
2067.000000	97.007659
2066.000000	97.034582
2065.000000	97.062078
2064.000000	97.089695
2063.000000	97.119575
2062.000000	97.155863
2061.000000	97.196197
2060.000000	97.232365
2059.000000	97.261995
2058.000000	97.290881
2057.000000	97.321780
2056.000000	97.350951
2055.000000	97.377941
2054.000000	97.408222
2053.000000	97.443574
2052.000000	97.480003
2051.000000	97.515765
2050.000000	97.554424
2049.000000	97.597332
2048.000000	97.639709
2047.000000	97.677159
2046.000000	97.710876
2045.000000	97.741225
2044.000000	97.763499
2043.000000	97.775381
2042.000000	97.782365
2041.000000	97.791024
2040.000000	97.803389
2039.000000	97.821996
2038.000000	97.851707
2037.000000	97.891992
2036.000000	97.934771
2035.000000	97.974546
2034.000000	98.013058
2033.000000	98.050120
2032.000000	98.080011
2031.000000	98.101932
2030.000000	98.122810
2029.000000	98.145834
2028.000000	98.164717
2027.000000	98.174206
2026.000000	98.178255
2025.000000	98.180797
2024.000000	98.180753
2023.000000	98.176850
2022.000000	98.175141
2021.000000	98.182405
2020.000000	98.196872
2019.000000	98.212803
2018.000000	98.229486
2017.000000	98.249320
2016.000000	98.272627
2015.000000	98.300556
2014.000000	98.335914
2013.000000	98.375994
2012.000000	98.411322
2011.000000	98.437997
2010.000000	98.463328
2009.000000	98.492812
2008.000000	98.521036
2007.000000	98.543149
2006.000000	98.564516
2005.000000	98.589632
2004.000000	98.615381
2003.000000	98.637812
2002.000000	98.661747
2001.000000	98.690233
2000.000000	98.717360
1999.000000	98.741673
1998.000000	98.764770
1997.000000	98.786278
1996.000000	98.802958
1995.000000	98.810732
1994.000000	98.802090
1993.000000	98.766504
1992.000000	98.701403
1991.000000	98.621117
1990.000000	98.545074
1989.000000	98.480226
1988.000000	98.422678
1987.000000	98.372492
1986.000000	98.338548
1985.000000	98.326387
1984.000000	98.331301
1983.000000	98.346526
1982.000000	98.371487
1981.000000	98.405815
1980.000000	98.445707
1979.000000	98.489936
1978.000000	98.535436
1977.000000	98.579419
1976.000000	98.622944
1975.000000	98.670342
1974.000000	98.721400
1973.000000	98.770584
1972.000000	98.814150
1971.000000	98.850925
1970.000000	98.874832
1969.000000	98.874918
1968.000000	98.844892
1967.000000	98.789268
1966.000000	98.719794
1965.000000	98.646865
1964.000000	98.574852
1963.000000	98.502145
1962.000000	98.426714
1961.000000	98.355065
1960.000000	98.303418
1959.000000	98.282363
1958.000000	98.284037
1957.000000	98.292148
1956.000000	98.299618
1955.000000	98.311015
1954.000000	98.329051
1953.000000	98.351717
1952.000000	98.379564
1951.000000	98.415730
1950.000000	98.466288
1949.000000	98.529280
1948.000000	98.596759
1947.000000	98.668417
1946.000000	98.747714
1945.000000	98.829248
1944.000000	98.899312
1943.000000	98.951861
1942.000000	98.998063
1941.000000	99.053489
1940.000000	99.124055
1939.000000	99.203829
1938.000000	99.278412
1937.000000	99.335202
1936.000000	99.374686
1935.000000	99.404407
1934.000000	99.423059
1933.000000	99.423890
1932.000000	99.405010
1931.000000	99.372927
1930.000000	99.342221
1929.000000	99.311368
1928.000000	99.274547
1927.000000	99.241034
1926.000000	99.224342
1925.000000	99.223624
1924.000000	99.209881
1923.000000	99.174225
1922.000000	99.143874
1921.000000	99.136612
1920.000000	99.136927
1919.000000	99.122001
1918.000000	99.093499
1917.000000	99.071360
1916.000000	99.060016
1915.000000	99.057677
1914.000000	99.065266
1913.000000	99.075482
1912.000000	99.075152
1911.000000	99.065058
1910.000000	99.059914
1909.000000	99.055561
1908.000000	99.039941
1907.000000	99.019089
1906.000000	99.010796
1905.000000	99.019171
1904.000000	99.019265
1903.000000	99.011752
1902.000000	99.029030
1901.000000	99.075387
1900.000000	99.126828
1899.000000	99.179500
1898.000000	99.251008
1897.000000	99.340596
1896.000000	99.413008
1895.000000	99.456442
1894.000000	99.503315
1893.000000	99.571822
1892.000000	99.638821
1891.000000	99.683552
1890.000000	99.715933
1889.000000	99.752676
1888.000000	99.793873
1887.000000	99.842725
1886.000000	99.909487
1885.000000	99.979728
1884.000000	100.022841
1883.000000	100.042814
1882.000000	100.073721
1881.000000	100.115265
1880.000000	100.139031
1879.000000	100.143215
1878.000000	100.150473
1877.000000	100.167736
1876.000000	100.169226
1875.000000	100.136211
1874.000000	100.087538
1873.000000	100.040564
1872.000000	99.980556
1871.000000	99.896679
1870.000000	99.805798
1869.000000	99.733361
1868.000000	99.691949
1867.000000	99.695749
1866.000000	99.765222
1865.000000	99.884891
1864.000000	100.000928
1863.000000	100.084556
1862.000000	100.157827
1861.000000	100.233385
1860.000000	100.284494
1859.000000	100.301132
1858.000000	100.317553
1857.000000	100.353806
1856.000000	100.386711
1855.000000	100.404005
1854.000000	100.433916
1853.000000	100.482866
1852.000000	100.528096
1851.000000	100.574041
1850.000000	100.631779
1849.000000	100.695592
1848.000000	100.746464
1847.000000	100.788232
1846.000000	100.834911
1845.000000	100.867504
1844.000000	100.872457
1843.000000	100.880223
1842.000000	100.917538
1841.000000	100.968311
1840.000000	101.010007
1839.000000	101.034484
1838.000000	101.055623
1837.000000	101.089717
1836.000000	101.123395
1835.000000	101.152373
1834.000000	101.192949
1833.000000	101.248603
1832.000000	101.309198
1831.000000	101.350606
1830.000000	101.356116
1829.000000	101.360489
1828.000000	101.400851
1827.000000	101.473799
1826.000000	101.552954
1825.000000	101.623410
1824.000000	101.690034
1823.000000	101.759331
1822.000000	101.835117
1821.000000	101.916819
1820.000000	101.990751
1819.000000	102.039223
1818.000000	102.077979
1817.000000	102.138172
1816.000000	102.204484
1815.000000	102.253464
1814.000000	102.298205
1813.000000	102.359040
1812.000000	102.417159
1811.000000	102.433452
1810.000000	102.437626
1809.000000	102.476158
1808.000000	102.520186
1807.000000	102.531768
1806.000000	102.536884
1805.000000	102.568392
1804.000000	102.597565
1803.000000	102.596181
1802.000000	102.585550
1801.000000	102.594292
1800.000000	102.613288
1799.000000	102.616467
1798.000000	102.625120
1797.000000	102.653456
1796.000000	102.666308
1795.000000	102.652434
1794.000000	102.645290
1793.000000	102.664440
1792.000000	102.689474
1791.000000	102.699785
1790.000000	102.725317
1789.000000	102.786865
1788.000000	102.854636
1787.000000	102.899316
1786.000000	102.942594
1785.000000	103.011406
1784.000000	103.078981
1783.000000	103.128837
1782.000000	103.168661
1781.000000	103.196398
1780.000000	103.221446
1779.000000	103.251219
1778.000000	103.304704
1777.000000	103.376860
1776.000000	103.450764
1775.000000	103.534621
1774.000000	103.623959
1773.000000	103.695449
1772.000000	103.758089
1771.000000	103.808914
1770.000000	103.831179
1769.000000	103.857434
1768.000000	103.910015
1767.000000	103.960632
1766.000000	103.993284
1765.000000	104.034511
1764.000000	104.104169
1763.000000	104.163002
1762.000000	104.167401
1761.000000	104.158957
1760.000000	104.180773
1759.000000	104.201255
1758.000000	104.187580
1757.000000	104.128901
1756.000000	104.073477
1755.000000	104.044657
1754.000000	104.013031
1753.000000	103.987707
1752.000000	104.009829
1751.000000	104.073838
1750.000000	104.122838
1749.000000	104.125660
1748.000000	104.096467
1747.000000	104.068640
1746.000000	104.029571
1745.000000	103.973403
1744.000000	103.932960
1743.000000	103.909043
1742.000000	103.892213
1741.000000	103.904522
1740.000000	103.956827
1739.000000	104.014977
1738.000000	104.048119
1737.000000	104.073482
1736.000000	104.132603
1735.000000	104.186997
1734.000000	104.237398
1733.000000	104.341369
1732.000000	104.445635
1731.000000	104.485559
1730.000000	104.491749
1729.000000	104.491585
1728.000000	104.508222
1727.000000	104.557359
1726.000000	104.617047
1725.000000	104.675690
1724.000000	104.723649
1723.000000	104.744065
1722.000000	104.771577
1721.000000	104.837751
1720.000000	104.917181
1719.000000	104.936917
1718.000000	104.919255
1717.000000	104.996958
1716.000000	105.122067
1715.000000	105.176358
1714.000000	105.217184
1713.000000	105.310471
1712.000000	105.391914
1711.000000	105.417188
1710.000000	105.448496
1709.000000	105.526733
1708.000000	105.611589
1707.000000	105.662541
1706.000000	105.708804
1705.000000	105.793796
1704.000000	105.868075
1703.000000	105.921200
1702.000000	106.039188
1701.000000	106.202454
1700.000000	106.341092
1699.000000	106.415136
1698.000000	106.470413
1697.000000	106.570527
1696.000000	106.672308
1695.000000	106.734428
1694.000000	106.801660
1693.000000	106.873960
1692.000000	106.942570
1691.000000	107.005702
1690.000000	107.065545
1689.000000	107.122119
1688.000000	107.194339
1687.000000	107.313496
1686.000000	107.467557
1685.000000	107.552895
1684.000000	107.580787
1683.000000	107.675696
1682.000000	107.792899
1681.000000	107.839799
1680.000000	107.867164
1679.000000	107.930658
1678.000000	108.019165
1677.000000	108.100616
1676.000000	108.176364
1675.000000	108.281432
1674.000000	108.375518
1673.000000	108.408797
1672.000000	108.433409
1671.000000	108.487680
1670.000000	108.545642
1669.000000	108.586116
1668.000000	108.643591
1667.000000	108.734504
1666.000000	108.817844
1665.000000	108.873286
1664.000000	108.900271
1663.000000	108.918804
1662.000000	108.942485
1661.000000	108.928722
1660.000000	108.902319
1659.000000	108.917607
1658.000000	108.938478
1657.000000	108.926783
1656.000000	108.939087
1655.000000	109.028214
1654.000000	108.997450
1653.000000	108.902892
1652.000000	108.952065
1651.000000	108.952771
1650.000000	108.772270
1649.000000	108.527794
1648.000000	108.197912
1647.000000	107.734902
1646.000000	107.217567
1645.000000	106.719263
1644.000000	106.183070
1643.000000	105.572185
1642.000000	104.927354
1641.000000	104.295777
1640.000000	103.752035
1639.000000	103.337537
1638.000000	103.074380
1637.000000	102.966828
1636.000000	103.057175
1635.000000	103.402251
1634.000000	103.892861
1633.000000	104.395576
1632.000000	104.890520
1631.000000	105.431965
1630.000000	106.042173
1629.000000	106.687199
1628.000000	107.321094
1627.000000	107.928834
1626.000000	108.494552
1625.000000	109.006237
1624.000000	109.483842
1623.000000	109.958759
1622.000000	110.405702
1621.000000	110.752958
1620.000000	111.025734
1619.000000	111.306950
1618.000000	111.586931
1617.000000	111.773770
1616.000000	111.838132
1615.000000	111.775492
1614.000000	111.517588
1613.000000	111.014675
1612.000000	110.286571
1611.000000	109.381802
1610.000000	108.271705
1609.000000	106.858245
1608.000000	105.098046
1607.000000	102.994235
1606.000000	100.443657
1605.000000	97.215825
1604.000000	93.132179
1603.000000	88.091740
1602.000000	82.102660
1601.000000	75.466506
1600.000000	68.883307
1599.000000	63.207738
1598.000000	58.906400
1597.000000	55.783345
1596.000000	53.314626
1595.000000	51.208093
1594.000000	49.528909
1593.000000	48.437689
1592.000000	48.023144
1591.000000	48.322640
1590.000000	49.346871
1589.000000	50.982114
1588.000000	52.957304
1587.000000	54.900422
1586.000000	56.442446
1585.000000	57.404490
1584.000000	57.959943
1583.000000	58.509042
1582.000000	59.312792
1581.000000	60.354141
1580.000000	61.523812
1579.000000	62.786610
1578.000000	64.127709
1577.000000	65.456441
1576.000000	66.646839
1575.000000	67.620756
1574.000000	68.345538
1573.000000	68.879859
1572.000000	69.405089
1571.000000	70.117979
1570.000000	71.109807
1569.000000	72.295048
1568.000000	73.572331
1567.000000	74.935678
1566.000000	76.362080
1565.000000	77.746292
1564.000000	78.985747
1563.000000	80.080124
1562.000000	81.083224
1561.000000	82.078099
1560.000000	83.121618
1559.000000	84.297839
1558.000000	85.501079
1557.000000	86.468596
1556.000000	87.204608
1555.000000	87.906149
1554.000000	88.598617
1553.000000	89.204087
1552.000000	89.716315
1551.000000	90.150640
1550.000000	90.509686
1549.000000	90.798096
1548.000000	91.056601
1547.000000	91.350816
1546.000000	91.690138
1545.000000	92.024432
1544.000000	92.339191
1543.000000	92.663796
1542.000000	93.031666
1541.000000	93.434641
1540.000000	93.854184
1539.000000	94.309064
1538.000000	94.733592
1537.000000	95.051285
1536.000000	95.313727
1535.000000	95.599996
1534.000000	95.892455
1533.000000	96.156391
1532.000000	96.407399
1531.000000	96.653217
1530.000000	96.910696
1529.000000	97.179261
1528.000000	97.416888
1527.000000	97.622170
1526.000000	97.824513
1525.000000	98.027853
1524.000000	98.226168
1523.000000	98.412852
1522.000000	98.569995
1521.000000	98.698353
1520.000000	98.812514
1519.000000	98.917320
1518.000000	99.008732
1517.000000	99.081280
1516.000000	99.134056
1515.000000	99.194701
1514.000000	99.289001
1513.000000	99.432655
1512.000000	99.592302
1511.000000	99.715153
1510.000000	99.810979
1509.000000	99.937262
1508.000000	100.060229
1507.000000	100.110590
1506.000000	100.224618
1505.000000	100.453546
1504.000000	100.642992
1503.000000	100.749633
1502.000000	100.837855
1501.000000	100.945048
1500.000000	101.064105
1499.000000	101.162774
1498.000000	101.249007
1497.000000	101.402398
1496.000000	101.640166
1495.000000	101.886712
1494.000000	102.113732
1493.000000	102.347728
1492.000000	102.583039
1491.000000	102.771397
1490.000000	102.913600
1489.000000	103.067740
1488.000000	103.226221
1487.000000	103.356244
1486.000000	103.505219
1485.000000	103.666708
1484.000000	103.799321
1483.000000	103.915958
1482.000000	104.035964
1481.000000	104.162236
1480.000000	104.276547
1479.000000	104.390477
1478.000000	104.527351
1477.000000	104.677443
1476.000000	104.794027
1475.000000	104.894289
1474.000000	105.043850
1473.000000	105.247571
1472.000000	105.477376
1471.000000	105.701283
1470.000000	105.905196
1469.000000	106.086464
1468.000000	106.228221
1467.000000	106.308476
1466.000000	106.285229
1465.000000	106.064724
1464.000000	105.592632
1463.000000	104.870382
1462.000000	103.931479
1461.000000	102.845723
1460.000000	101.687139
1459.000000	100.483322
1458.000000	99.171870
1457.000000	97.815564
1456.000000	96.633635
1455.000000	95.617762
1454.000000	94.513220
1453.000000	93.157668
1452.000000	91.547897
1451.000000	89.673380
1450.000000	87.375452
1449.000000	84.455997
1448.000000	81.046933
1447.000000	77.824957
1446.000000	75.609992
1445.000000	74.887308
1444.000000	75.738064
1443.000000	77.838102
1442.000000	80.571246
1441.000000	83.326952
1440.000000	85.731463
1439.000000	87.639290
1438.000000	89.052207
1437.000000	90.106406
1436.000000	91.013289
1435.000000	91.892516
1434.000000	92.777594
1433.000000	93.737043
1432.000000	94.794445
1431.000000	95.842997
1430.000000	96.758259
1429.000000	97.542831
1428.000000	98.240154
1427.000000	98.850595
1426.000000	99.360457
1425.000000	99.789061
1424.000000	100.195064
1423.000000	100.566921
1422.000000	100.871112
1421.000000	101.146345
1420.000000	101.445160
1419.000000	101.732643
1418.000000	101.960551
1417.000000	102.195509
1416.000000	102.497632
1415.000000	102.824922
1414.000000	103.105263
1413.000000	103.339796
1412.000000	103.575354
1411.000000	103.789423
1410.000000	103.931387
1409.000000	104.035985
1408.000000	104.153201
1407.000000	104.265500
1406.000000	104.322025
1405.000000	104.307165
1404.000000	104.260833
1403.000000	104.190246
1402.000000	104.079339
1401.000000	103.953751
1400.000000	103.850537
1399.000000	103.760052
1398.000000	103.650397
1397.000000	103.526520
1396.000000	103.400317
1395.000000	103.249888
1394.000000	103.020462
1393.000000	102.689066
1392.000000	102.281755
1391.000000	101.814578
1390.000000	101.305437
1389.000000	100.822245
1388.000000	100.482439
1387.000000	100.402692
1386.000000	100.631368
1385.000000	101.130343
1384.000000	101.819743
1383.000000	102.592862
1382.000000	103.352322
1381.000000	104.063475
1380.000000	104.729163
1379.000000	105.335004
1378.000000	105.845050
1377.000000	106.230419
1376.000000	106.453878
1375.000000	106.429539
1374.000000	106.002678
1373.000000	104.967356
1372.000000	103.058873
1371.000000	100.002603
1370.000000	95.758331
1369.000000	90.861576
1368.000000	86.446317
1367.000000	83.624738
1366.000000	82.805104
1365.000000	83.654426
1364.000000	85.510595
1363.000000	87.742610
1362.000000	89.926983
1361.000000	91.902398
1360.000000	93.682088
1359.000000	95.303452
1358.000000	96.761012
1357.000000	98.031184
1356.000000	99.115066
1355.000000	100.038855
1354.000000	100.835596
1353.000000	101.542905
1352.000000	102.181909
1351.000000	102.756168
1350.000000	103.262801
1349.000000	103.700025
1348.000000	104.082603
1347.000000	104.423285
1346.000000	104.726094
1345.000000	105.000575
1344.000000	105.265050
1343.000000	105.529469
1342.000000	105.789712
1341.000000	106.040362
1340.000000	106.280049
1339.000000	106.504561
1338.000000	106.706347
1337.000000	106.889368
1336.000000	107.065124
1335.000000	107.237860
1334.000000	107.411004
1333.000000	107.598154
1332.000000	107.807584
1331.000000	108.024873
1330.000000	108.226864
1329.000000	108.408915
1328.000000	108.575179
1327.000000	108.714013
1326.000000	108.796548
1325.000000	108.788338
1324.000000	108.648089
1323.000000	108.289766
1322.000000	107.567695
1321.000000	106.289399
1320.000000	104.250297
1319.000000	101.383124
1318.000000	97.988410
1317.000000	94.763780
1316.000000	92.452109
1315.000000	91.364723
1314.000000	91.235738
1313.000000	91.577608
1312.000000	92.137605
1311.000000	92.981247
1310.000000	94.227173
1309.000000	95.806151
1308.000000	97.497028
1307.000000	99.102633
1306.000000	100.536885
1305.000000	101.791735
1304.000000	102.873110
1303.000000	103.777040
1302.000000	104.507422
1301.000000	105.088891
1300.000000	105.543460
1299.000000	105.866757
1298.000000	106.004606
1297.000000	105.805316
1296.000000	105.015999
1295.000000	103.438548
1294.000000	101.216329
1293.000000	98.949485
1292.000000	97.402481
1291.000000	96.990701
1290.000000	97.534104
1289.000000	98.497693
1288.000000	99.394788
1287.000000	99.967818
1286.000000	100.134364
1285.000000	99.929972
1284.000000	99.516416
1283.000000	99.139017
1282.000000	98.996954
1281.000000	99.131421
1280.000000	99.395794
1279.000000	99.473274
1278.000000	98.916381
1277.000000	97.267915
1276.000000	94.325609
1275.000000	90.426325
1274.000000	86.497893
1273.000000	83.729995
1272.000000	82.999364
1271.000000	84.399963
1270.000000	87.261505
1269.000000	90.628413
1268.000000	93.765527
1267.000000	96.354080
1266.000000	98.371906
1265.000000	99.924257
1264.000000	101.148849
1263.000000	102.156127
1262.000000	103.004435
1261.000000	103.727393
1260.000000	104.364550
1259.000000	104.945734
1258.000000	105.476973
1257.000000	105.955434
1256.000000	106.388560
1255.000000	106.783023
1254.000000	107.130498
1253.000000	107.427179
1252.000000	107.688691
1251.000000	107.934263
1250.000000	108.170852
1249.000000	108.404800
1248.000000	108.654926
1247.000000	108.935971
1246.000000	109.242093
1245.000000	109.561300
1244.000000	109.890022
1243.000000	110.220930
1242.000000	110.532668
1241.000000	110.806355
1240.000000	111.039476
1239.000000	111.231795
1238.000000	111.374715
1237.000000	111.464158
1236.000000	111.509234
1235.000000	111.518369
1234.000000	111.486268
1233.000000	111.407396
1232.000000	111.284801
1231.000000	111.113339
1230.000000	110.871661
1229.000000	110.533795
1228.000000	110.081374
1227.000000	109.489970
1226.000000	108.715247
1225.000000	107.712814
1224.000000	106.446825
1223.000000	104.885454
1222.000000	102.999685
1221.000000	100.779076
1220.000000	98.261227
1219.000000	95.520850
1218.000000	92.646713
1217.000000	89.736513
1216.000000	86.895320
1215.000000	84.211363
1214.000000	81.719957
1213.000000	79.406469
1212.000000	77.252354
1211.000000	75.285305
1210.000000	73.587754
1209.000000	72.306873
1208.000000	71.629308
1207.000000	71.681663
1206.000000	72.446413
1205.000000	73.751585
1204.000000	75.366740
1203.000000	77.091725
1202.000000	78.784293
1201.000000	80.386473
1200.000000	81.914544
1199.000000	83.412242
1198.000000	84.906497
1197.000000	86.406414
1196.000000	87.923177
1195.000000	89.460633
1194.000000	90.998198
1193.000000	92.503538
1192.000000	93.956765
1191.000000	95.342089
1190.000000	96.635249
1189.000000	97.816901
1188.000000	98.886073
1187.000000	99.850800
1186.000000	100.709604
1185.000000	101.463757
1184.000000	102.132885
1183.000000	102.739173
1182.000000	103.291345
1181.000000	103.786070
1180.000000	104.221598
1179.000000	104.598955
1178.000000	104.916429
1177.000000	105.180424
1176.000000	105.407756
1175.000000	105.612264
1174.000000	105.798637
1173.000000	105.974086
1172.000000	106.157732
1171.000000	106.366952
1170.000000	106.604612
1169.000000	106.867916
1168.000000	107.157773
1167.000000	107.469118
1166.000000	107.781822
1165.000000	108.072099
1164.000000	108.325765
1163.000000	108.535558
1162.000000	108.700377
1161.000000	108.836104
1160.000000	108.975211
1159.000000	109.144105
1158.000000	109.345998
1157.000000	109.572493
1156.000000	109.820274
1155.000000	110.086741
1154.000000	110.360423
1153.000000	110.625910
1152.000000	110.870882
1151.000000	111.080705
1150.000000	111.236735
1149.000000	111.331992
1148.000000	111.378094
1147.000000	111.390718
1146.000000	111.375099
1145.000000	111.328468
1144.000000	111.249418
1143.000000	111.129038
1142.000000	110.943796
1141.000000	110.668081
1140.000000	110.282136
1139.000000	109.770009
1138.000000	109.103415
1137.000000	108.242629
1136.000000	107.149835
1135.000000	105.775665
1134.000000	104.057748
1133.000000	101.922305
1132.000000	99.305988
1131.000000	96.195920
1130.000000	92.643567
1129.000000	88.786200
1128.000000	84.815632
1127.000000	80.873742
1126.000000	76.926325
1125.000000	72.738547
1124.000000	68.063410
1123.000000	62.945819
1122.000000	57.904898
1121.000000	53.774085
1120.000000	51.282751
1119.000000	50.591559
1118.000000	51.206334
1117.000000	52.438836
1116.000000	53.965281
1115.000000	55.991552
1114.000000	58.838269
1113.000000	62.465259
1112.000000	66.424583
1111.000000	70.156511
1110.000000	73.262863
1109.000000	75.535433
1108.000000	76.787515
1107.000000	76.684542
1106.000000	74.835377
1105.000000	71.137618
1104.000000	66.208650
1103.000000	61.485010
1102.000000	58.663530
1101.000000	58.762872
1100.000000	61.574493
1099.000000	65.939496
1098.000000	70.560354
1097.000000	74.671857
1096.000000	78.092202
1095.000000	80.917259
1094.000000	83.278651
1093.000000	85.291242
1092.000000	87.057869
1091.000000	88.646568
1090.000000	90.088304
1089.000000	91.410146
1088.000000	92.652886
1087.000000	93.834817
1086.000000	94.951011
1085.000000	96.004241
1084.000000	97.007261
1083.000000	97.961198
1082.000000	98.852679
1081.000000	99.683922
1080.000000	100.474890
1079.000000	101.233660
1078.000000	101.956088
1077.000000	102.647414
1076.000000	103.318988
1075.000000	103.959933
1074.000000	104.532880
1073.000000	105.007805
1072.000000	105.359231
1071.000000	105.538830
1070.000000	105.475044
1069.000000	105.084865
1068.000000	104.288798
1067.000000	102.982716
1066.000000	101.049199
1065.000000	98.420483
1064.000000	95.100141
1063.000000	91.183083
1062.000000	86.822200
1061.000000	82.175440
1060.000000	77.335576
1059.000000	72.261578
1058.000000	66.837673
1057.000000	61.079319
1056.000000	55.359292
1055.000000	50.414316
1054.000000	47.114596
1053.000000	46.069568
1052.000000	47.364283
1051.000000	50.543299
1050.000000	54.792773
1049.000000	59.316663
1048.000000	63.573899
1047.000000	67.313818
1046.000000	70.501056
1045.000000	73.214411
1044.000000	75.574842
1043.000000	77.674693
1042.000000	79.552079
1041.000000	81.216411
1040.000000	82.689023
1039.000000	83.988258
1038.000000	85.118979
1037.000000	86.095041
1036.000000	86.946906
1035.000000	87.710811
1034.000000	88.411577
1033.000000	89.076718
1032.000000	89.744710
1031.000000	90.439179
1030.000000	91.154237
1029.000000	91.873618
1028.000000	92.593890
1027.000000	93.320079
1026.000000	94.056541
1025.000000	94.814888
1024.000000	95.615557
1023.000000	96.465335
1022.000000	97.345415
1021.000000	98.225977
1020.000000	99.079748
1019.000000	99.864409
1018.000000	100.502395
1017.000000	100.898130
1016.000000	100.930665
1015.000000	100.456147
1014.000000	99.308769
1013.000000	97.323592
1012.000000	94.383560
1011.000000	90.402845
1010.000000	85.360658
1009.000000	79.418846
1008.000000	73.084348
1007.000000	67.249430
1006.000000	62.967080
1005.000000	61.012498
1004.000000	61.512856
1003.000000	63.911112
1002.000000	67.233058
1001.000000	70.492435
1000.000000	72.924707
999.000000	74.005599
998.000000	73.470748
997.000000	71.456512
996.000000	68.628142
995.000000	66.030278
994.000000	64.616719
993.000000	64.784079
992.000000	66.279293
991.000000	68.500272
990.000000	70.897530
989.000000	73.189624
988.000000	75.328198
987.000000	77.333377
986.000000	79.201816
985.000000	80.911950
984.000000	82.449319
983.000000	83.809585
982.000000	85.000050
981.000000	86.044950
980.000000	86.973275
979.000000	87.805490
978.000000	88.548562
977.000000	89.214515
976.000000	89.821775
975.000000	90.379613
974.000000	90.891736
973.000000	91.367271
972.000000	91.820526
971.000000	92.255783
970.000000	92.665987
969.000000	93.049910
968.000000	93.412302
967.000000	93.751070
966.000000	94.057968
965.000000	94.332945
964.000000	94.586744
963.000000	94.827471
962.000000	95.059711
961.000000	95.295368
960.000000	95.548993
959.000000	95.821601
958.000000	96.100512
957.000000	96.375301
956.000000	96.640757
955.000000	96.885352
954.000000	97.094835
953.000000	97.268433
952.000000	97.419262
951.000000	97.558835
950.000000	97.693486
949.000000	97.834844
948.000000	97.996700
947.000000	98.179931
946.000000	98.373435
945.000000	98.568805
944.000000	98.761428
943.000000	98.939557
942.000000	99.088896
941.000000	99.209109
940.000000	99.312031
939.000000	99.406189
938.000000	99.496671
937.000000	99.597012
936.000000	99.724088
935.000000	99.880414
934.000000	100.055055
933.000000	100.239782
932.000000	100.429512
931.000000	100.609336
930.000000	100.758565
929.000000	100.869228
928.000000	100.948137
927.000000	101.003508
926.000000	101.044992
925.000000	101.093155
924.000000	101.171726
923.000000	101.289180
922.000000	101.439564
921.000000	101.616883
920.000000	101.813850
919.000000	102.011321
918.000000	102.186855
917.000000	102.332895
916.000000	102.452963
915.000000	102.546483
914.000000	102.614317
913.000000	102.674490
912.000000	102.753068
911.000000	102.862327
910.000000	103.001941
909.000000	103.174350
908.000000	103.376064
907.000000	103.570595
906.000000	103.691234
905.000000	103.681877
904.000000	103.542332
903.000000	103.344937
902.000000	103.201067
901.000000	103.182157
900.000000	103.247623
899.000000	103.265107
898.000000	103.128998
897.000000	102.845005
896.000000	102.507630
895.000000	102.216594
894.000000	101.994434
893.000000	101.707792
892.000000	101.028913
891.000000	99.604045
890.000000	97.431863
889.000000	95.089560
888.000000	93.436002
887.000000	93.008530
886.000000	93.683591
885.000000	94.904203
884.000000	96.172710
883.000000	97.276608
882.000000	98.201145
881.000000	98.980626
880.000000	99.645233
879.000000	100.226788
878.000000	100.749751
877.000000	101.224470
876.000000	101.654088
875.000000	102.038627
874.000000	102.374651
873.000000	102.669042
872.000000	102.944293
871.000000	103.219121
870.000000	103.492226
869.000000	103.749015
868.000000	103.975236
867.000000	104.153133
866.000000	104.260522
865.000000	104.289469
864.000000	104.257797
863.000000	104.198516
862.000000	104.145432
861.000000	104.131289
860.000000	104.183638
859.000000	104.309467
858.000000	104.490329
857.000000	104.698697
856.000000	104.912514
855.000000	105.112344
854.000000	105.280074
853.000000	105.408070
852.000000	105.501133
851.000000	105.566338
850.000000	105.610905
849.000000	105.650503
848.000000	105.706475
847.000000	105.790228
846.000000	105.899124
845.000000	106.028106
844.000000	106.173183
843.000000	106.323545
842.000000	106.464175
841.000000	106.589212
840.000000	106.702098
839.000000	106.803066
838.000000	106.888756
837.000000	106.963837
836.000000	107.039865
835.000000	107.122801
834.000000	107.213252
833.000000	107.316877
832.000000	107.440050
831.000000	107.575338
830.000000	107.705550
829.000000	107.823131
828.000000	107.933691
827.000000	108.041834
826.000000	108.147982
825.000000	108.257475
824.000000	108.376894
823.000000	108.500731
822.000000	108.617175
821.000000	108.723049
820.000000	108.818324
819.000000	108.887734
818.000000	108.897316
817.000000	108.807644
816.000000	108.559356
815.000000	108.044228
814.000000	107.095320
813.000000	105.521491
812.000000	103.207590
811.000000	100.248419
810.000000	97.043084
809.000000	94.217283
808.000000	92.363202
807.000000	91.757293
806.000000	92.272997
805.000000	93.521566
804.000000	95.073596
803.000000	96.613313
802.000000	97.972196
801.000000	99.105764
800.000000	100.034094
799.000000	100.785716
798.000000	101.381562
797.000000	101.843687
796.000000	102.191390
795.000000	102.426713
794.000000	102.544854
793.000000	102.555122
792.000000	102.485694
791.000000	102.369700
790.000000	102.242362
789.000000	102.145443
788.000000	102.113885
787.000000	102.158846
786.000000	102.273257
785.000000	102.448346
784.000000	102.670555
783.000000	102.910610
782.000000	103.133356
781.000000	103.318686
780.000000	103.463669
779.000000	103.573798
778.000000	103.668607
777.000000	103.786020
776.000000	103.960831
775.000000	104.199727
774.000000	104.487520
773.000000	104.808562
772.000000	105.146750
771.000000	105.475600
770.000000	105.769186
769.000000	106.019789
768.000000	106.231293
767.000000	106.403883
766.000000	106.540948
765.000000	106.661476
764.000000	106.788651
763.000000	106.931850
762.000000	107.092512
761.000000	107.275439
760.000000	107.477272
759.000000	107.674745
758.000000	107.841617
757.000000	107.969017
756.000000	108.056297
755.000000	108.097386
754.000000	108.095652
753.000000	108.079406
752.000000	108.083317
751.000000	108.122928
750.000000	108.200740
749.000000	108.321647
748.000000	108.480817
747.000000	108.648395
746.000000	108.787836
745.000000	108.880343
744.000000	108.917390
743.000000	108.888393
742.000000	108.797099
741.000000	108.675945
740.000000	108.563447
739.000000	108.478254
738.000000	108.426922
737.000000	108.410935
736.000000	108.400208
735.000000	108.314732
734.000000	108.055627
733.000000	107.544256
732.000000	106.727826
731.000000	105.595666
730.000000	104.231549
729.000000	102.831660
728.000000	101.640099
727.000000	100.849833
726.000000	100.551128
725.000000	100.739290
724.000000	101.325209
723.000000	102.153907
722.000000	103.063421
721.000000	103.941712
720.000000	104.728684
719.000000	105.389964
718.000000	105.914569
717.000000	106.318292
716.000000	106.622483
715.000000	106.841620
714.000000	107.003431
713.000000	107.156143
712.000000	107.334049
711.000000	107.533593
710.000000	107.744053
709.000000	107.968106
708.000000	108.195520
707.000000	108.389342
706.000000	108.515984
705.000000	108.580285
704.000000	108.604921
703.000000	108.592037
702.000000	108.551544
701.000000	108.527747
700.000000	108.555837
699.000000	108.633189
698.000000	108.743604
697.000000	108.891614
696.000000	109.071219
695.000000	109.225371
694.000000	109.309358
693.000000	109.336806
692.000000	109.326416
691.000000	109.266934
690.000000	109.160484
689.000000	109.072591
688.000000	109.065237
687.000000	109.115929
686.000000	109.188226
685.000000	109.300743
684.000000	109.459956
683.000000	109.603348
682.000000	109.682276
681.000000	109.725943
680.000000	109.762597
679.000000	109.741519
678.000000	109.660768
677.000000	109.585371
676.000000	109.531779
675.000000	109.537944
674.000000	109.616221
673.000000	109.732416
672.000000	109.857932
671.000000	110.002849
670.000000	110.177668
669.000000	110.148613
668.000000	109.615581
667.000000	109.178679
666.000000	109.411647
665.000000	109.864837
664.000000	110.175100
663.000000	110.288023
662.000000	110.307610
661.000000	110.349384
660.000000	110.437270
659.000000	110.532246
658.000000	110.625603
657.000000	110.703342
656.000000	110.718090
655.000000	110.728867
654.000000	110.772102
653.000000	110.792155
652.000000	110.772297
651.000000	110.779051
650.000000	110.839388
649.000000	110.888477
648.000000	110.904029
647.000000	110.950154
646.000000	111.044963
645.000000	111.125643
644.000000	111.163451
643.000000	111.206953
642.000000	111.285031
641.000000	111.350226
640.000000	111.370235
639.000000	111.383750
638.000000	111.413742
637.000000	111.424645
636.000000	111.404470
635.000000	111.393216
634.000000	111.409701
633.000000	111.425325
632.000000	111.432563
631.000000	111.469879
630.000000	111.548968
629.000000	111.623806
628.000000	111.667075
627.000000	111.704759
626.000000	111.748348
625.000000	111.774248
624.000000	111.776354
623.000000	111.784135
622.000000	111.809525
621.000000	111.828843
620.000000	111.833034
619.000000	111.842379
618.000000	111.866106
617.000000	111.896541
616.000000	111.948958
615.000000	112.053429
614.000000	112.198226
613.000000	112.335854
612.000000	112.447493
611.000000	112.548850
610.000000	112.637914
609.000000	112.686140
608.000000	112.692056
607.000000	112.688753
606.000000	112.687370
605.000000	112.677864
604.000000	112.670934
603.000000	112.692099
602.000000	112.730824
601.000000	112.735532
600.000000	112.658148
599.000000	112.462099
598.000000	112.085629
597.000000	111.429977
596.000000	110.396446
595.000000	108.877337
594.000000	106.668224
593.000000	103.440010
592.000000	98.889884
591.000000	93.087756
590.000000	86.782855
589.000000	81.344882
588.000000	78.208877
587.000000	78.094763
586.000000	80.538351
585.000000	84.228245
584.000000	87.946994
583.000000	91.135973
582.000000	93.741830
581.000000	95.862264
580.000000	97.609461
579.000000	99.102189
578.000000	100.407374
577.000000	101.521889
576.000000	102.448677
575.000000	103.231963
574.000000	103.883777
573.000000	104.369837
572.000000	104.691724
571.000000	104.911594
570.000000	105.080962
569.000000	105.204226
568.000000	105.303338
567.000000	105.430817
566.000000	105.589123
565.000000	105.708466
564.000000	105.731716
563.000000	105.662323
562.000000	105.510885
561.000000	105.273479
560.000000	104.981352
559.000000	104.696408
558.000000	104.435140
557.000000	104.171988
556.000000	103.943941
555.000000	103.878507
554.000000	104.078834
553.000000	104.535871
552.000000	105.172080
551.000000	105.895542
550.000000	106.587333
549.000000	107.126701
548.000000	107.470919
547.000000	107.662947
546.000000	107.751579
545.000000	107.759487
544.000000	107.732361
543.000000	107.743781
542.000000	107.827116
541.000000	107.954253
540.000000	108.100864
539.000000	108.270405
538.000000	108.441929
537.000000	108.558558
536.000000	108.590093
535.000000	108.552921
534.000000	108.459094
533.000000	108.307182
532.000000	108.123662
531.000000	107.970795
530.000000	107.886471
529.000000	107.853949
528.000000	107.840643
527.000000	107.825699
526.000000	107.759362
525.000000	107.557591
524.000000	107.156198
523.000000	106.505782
522.000000	105.528471
521.000000	104.126918
520.000000	102.262348
519.000000	99.995123
518.000000	97.466421
517.000000	94.912621
516.000000	92.689027
515.000000	91.160629
514.000000	90.506567
513.000000	90.672044
512.000000	91.479498
511.000000	92.730124
510.000000	94.206731
509.000000	95.700599
508.000000	97.101252
507.000000	98.403251
506.000000	99.617469
505.000000	100.735241
504.000000	101.778528
503.000000	102.794629
502.000000	103.777936
501.000000	104.655411
500.000000	105.373145
499.000000	105.941180
498.000000	106.374391
497.000000	106.677150
496.000000	106.892457
495.000000	107.099024
494.000000	107.343275
493.000000	107.607136
492.000000	107.871634
491.000000	108.147751
490.000000	108.416809
489.000000	108.617849
488.000000	108.705586
487.000000	108.676073
486.000000	108.504978
485.000000	108.115215
484.000000	107.451651
483.000000	106.517271
482.000000	105.306598
481.000000	103.764697
480.000000	101.838664
479.000000	99.503475
478.000000	96.713703
477.000000	93.478509
476.000000	90.035537
475.000000	86.863079
474.000000	84.448037
473.000000	83.122309
472.000000	83.065544
471.000000	84.259603
470.000000	86.416928
469.000000	89.072230
468.000000	91.819330
467.000000	94.408276
466.000000	96.686800
465.000000	98.580110
464.000000	100.099602
463.000000	101.322212
462.000000	102.312039
461.000000	103.093480
460.000000	103.705117
459.000000	104.222296
458.000000	104.696961
457.000000	105.132836
456.000000	105.546071
455.000000	105.972976
454.000000	106.403417
453.000000	106.763057
452.000000	107.001264
451.000000	107.153548
450.000000	107.262419
449.000000	107.320719
448.000000	107.331661
447.000000	107.348450
446.000000	107.408934
445.000000	107.498599
444.000000	107.601693
443.000000	107.738899
442.000000	107.907106
441.000000	108.046874
440.000000	108.118785
439.000000	108.136650
438.000000	108.106262
437.000000	108.005094
436.000000	107.862703
435.000000	107.773714
434.000000	107.775075
433.000000	107.801931
432.000000	107.810364
431.000000	107.845814
430.000000	107.944915
429.000000	108.041350
428.000000	108.060841
427.000000	108.024573
426.000000	107.964382
425.000000	107.833733
424.000000	107.625050
423.000000	107.483413
422.000000	107.537194
421.000000	107.723001
420.000000	107.906594
419.000000	108.103918
418.000000	108.397089
417.000000	108.699959
416.000000	108.902476
415.000000	109.018309
414.000000	109.061533
413.000000	108.974172
412.000000	108.752715
411.000000	108.530301
410.000000	108.406253
409.000000	108.249815
408.000000	107.889575
407.000000	107.416602
406.000000	107.105583
405.000000	107.090877
404.000000	107.324221
403.000000	107.696956
402.000000	108.082225
401.000000	108.284923
400.000000	108.259932
