PE IR       SUBTECH     SPECTRUM    ASCII       PEDS        4.00        
   -1
23ms076-Trans.asc
24/10/15
16:13:32.00
24/10/15
16:13:32.00
Administrator
Sample 1277 By Administrator Date Tuesday, October 15 2024
400.000000
#HDR
-1
-1
#GR
cm-1
%T
1.0
0.0
4000.000000
-1.000000
3601
8
111.998963
11.734311
#DATA
4000.000000	81.303424
3999.000000	81.258217
3998.000000	81.218352
3997.000000	81.182606
3996.000000	81.148809
3995.000000	81.115340
3994.000000	81.082436
3993.000000	81.051079
3992.000000	81.020871
3991.000000	80.988745
3990.000000	80.950073
3989.000000	80.902636
3988.000000	80.848462
3987.000000	80.790904
3986.000000	80.730971
3985.000000	80.666982
3984.000000	80.597143
3983.000000	80.520805
3982.000000	80.438852
3981.000000	80.354702
3980.000000	80.274246
3979.000000	80.205416
3978.000000	80.156884
3977.000000	80.134073
3976.000000	80.137327
3975.000000	80.163152
3974.000000	80.207389
3973.000000	80.268135
3972.000000	80.344443
3971.000000	80.434735
3970.000000	80.533943
3969.000000	80.633758
3968.000000	80.727180
3967.000000	80.810215
3966.000000	80.881493
3965.000000	80.940966
3964.000000	80.988449
3963.000000	81.022272
3962.000000	81.041684
3961.000000	81.047857
3960.000000	81.044494
3959.000000	81.040142
3958.000000	81.042134
3957.000000	81.053547
3956.000000	81.076745
3955.000000	81.114419
3954.000000	81.169413
3953.000000	81.241283
3952.000000	81.328022
3951.000000	81.428298
3950.000000	81.539290
3949.000000	81.659103
3948.000000	81.788255
3947.000000	81.927901
3946.000000	82.076841
3945.000000	82.230243
3944.000000	82.379594
3943.000000	82.510724
3942.000000	82.617714
3941.000000	82.712107
3940.000000	82.807887
3939.000000	82.910236
3938.000000	83.009514
3937.000000	83.091103
3936.000000	83.156275
3935.000000	83.220473
3934.000000	83.299396
3933.000000	83.388381
3932.000000	83.469632
3931.000000	83.532909
3930.000000	83.577876
3929.000000	83.617549
3928.000000	83.662151
3927.000000	83.710151
3926.000000	83.755480
3925.000000	83.786650
3924.000000	83.799218
3923.000000	83.805043
3922.000000	83.818099
3921.000000	83.844397
3920.000000	83.880228
3919.000000	83.922348
3918.000000	83.974906
3917.000000	84.039380
3916.000000	84.111161
3915.000000	84.179920
3914.000000	84.244652
3913.000000	84.314581
3912.000000	84.387995
3911.000000	84.462773
3910.000000	84.540770
3909.000000	84.626967
3908.000000	84.730450
3907.000000	84.839792
3906.000000	84.931373
3905.000000	84.987009
3904.000000	85.016516
3903.000000	85.064344
3902.000000	85.157827
3901.000000	85.281636
3900.000000	85.400364
3899.000000	85.477267
3898.000000	85.509473
3897.000000	85.527132
3896.000000	85.555011
3895.000000	85.605984
3894.000000	85.671197
3893.000000	85.725744
3892.000000	85.746740
3891.000000	85.736809
3890.000000	85.722965
3889.000000	85.725159
3888.000000	85.764775
3887.000000	85.846133
3886.000000	85.923988
3885.000000	85.959325
3884.000000	85.970515
3883.000000	85.998629
3882.000000	86.046351
3881.000000	86.069206
3880.000000	86.039834
3879.000000	85.993739
3878.000000	85.983595
3877.000000	86.024882
3876.000000	86.092086
3875.000000	86.140274
3874.000000	86.146370
3873.000000	86.131204
3872.000000	86.143879
3871.000000	86.204019
3870.000000	86.270374
3869.000000	86.311364
3868.000000	86.336974
3867.000000	86.372676
3866.000000	86.438668
3865.000000	86.495077
3864.000000	86.488505
3863.000000	86.449892
3862.000000	86.434394
3861.000000	86.459854
3860.000000	86.512081
3859.000000	86.572883
3858.000000	86.658202
3857.000000	86.791774
3856.000000	86.974261
3855.000000	87.108939
3854.000000	87.077568
3853.000000	86.977054
3852.000000	86.987627
3851.000000	87.067497
3850.000000	87.095975
3849.000000	87.060046
3848.000000	86.987347
3847.000000	86.916821
3846.000000	86.883692
3845.000000	86.883866
3844.000000	86.897005
3843.000000	86.917545
3842.000000	86.942517
3841.000000	86.990318
3840.000000	87.064902
3839.000000	87.128258
3838.000000	87.164384
3837.000000	87.189808
3836.000000	87.220743
3835.000000	87.248864
3834.000000	87.260598
3833.000000	87.260153
3832.000000	87.249406
3831.000000	87.231761
3830.000000	87.232976
3829.000000	87.264311
3828.000000	87.302223
3827.000000	87.328910
3826.000000	87.340314
3825.000000	87.352967
3824.000000	87.399296
3823.000000	87.483737
3822.000000	87.552518
3821.000000	87.555616
3820.000000	87.530536
3819.000000	87.541463
3818.000000	87.612808
3817.000000	87.713369
3816.000000	87.774365
3815.000000	87.776135
3814.000000	87.769454
3813.000000	87.788913
3812.000000	87.815209
3811.000000	87.829602
3810.000000	87.847198
3809.000000	87.883164
3808.000000	87.930145
3807.000000	87.970386
3806.000000	88.003965
3805.000000	88.061460
3804.000000	88.157354
3803.000000	88.284517
3802.000000	88.378629
3801.000000	88.385237
3800.000000	88.359548
3799.000000	88.366445
3798.000000	88.404901
3797.000000	88.433873
3796.000000	88.425931
3795.000000	88.400008
3794.000000	88.400100
3793.000000	88.441257
3792.000000	88.493823
3791.000000	88.531079
3790.000000	88.558163
3789.000000	88.589125
3788.000000	88.629101
3787.000000	88.672953
3786.000000	88.712834
3785.000000	88.745704
3784.000000	88.770834
3783.000000	88.795563
3782.000000	88.832601
3781.000000	88.877878
3780.000000	88.905711
3779.000000	88.909706
3778.000000	88.914075
3777.000000	88.936264
3776.000000	88.967993
3775.000000	88.995139
3774.000000	89.014281
3773.000000	89.025758
3772.000000	89.033334
3771.000000	89.040789
3770.000000	89.040366
3769.000000	89.031803
3768.000000	89.031065
3767.000000	89.046894
3766.000000	89.076774
3765.000000	89.097677
3764.000000	89.093910
3763.000000	89.087264
3762.000000	89.108403
3761.000000	89.158609
3760.000000	89.188666
3759.000000	89.180110
3758.000000	89.178265
3757.000000	89.204843
3756.000000	89.246623
3755.000000	89.296428
3754.000000	89.374322
3753.000000	89.485215
3752.000000	89.573680
3751.000000	89.612508
3750.000000	89.659401
3749.000000	89.751611
3748.000000	89.844580
3747.000000	89.919801
3746.000000	90.013658
3745.000000	90.091535
3744.000000	90.097449
3743.000000	90.089637
3742.000000	90.095238
3741.000000	90.091164
3740.000000	90.072964
3739.000000	90.052952
3738.000000	90.074478
3737.000000	90.162221
3736.000000	90.300345
3735.000000	90.426274
3734.000000	90.504506
3733.000000	90.568811
3732.000000	90.631756
3731.000000	90.669723
3730.000000	90.667811
3729.000000	90.649941
3728.000000	90.662480
3727.000000	90.704932
3726.000000	90.741797
3725.000000	90.763724
3724.000000	90.794903
3723.000000	90.837819
3722.000000	90.860869
3721.000000	90.869886
3720.000000	90.882223
3719.000000	90.897429
3718.000000	90.915916
3717.000000	90.936078
3716.000000	90.972357
3715.000000	91.042870
3714.000000	91.150166
3713.000000	91.265238
3712.000000	91.340988
3711.000000	91.374863
3710.000000	91.403925
3709.000000	91.448051
3708.000000	91.495710
3707.000000	91.525506
3706.000000	91.536371
3705.000000	91.548193
3704.000000	91.573893
3703.000000	91.600433
3702.000000	91.607439
3701.000000	91.607072
3700.000000	91.620354
3699.000000	91.640857
3698.000000	91.664310
3697.000000	91.692630
3696.000000	91.715575
3695.000000	91.728112
3694.000000	91.745831
3693.000000	91.789425
3692.000000	91.851595
3691.000000	91.902312
3690.000000	91.927555
3689.000000	91.958341
3688.000000	92.033885
3687.000000	92.124894
3686.000000	92.168105
3685.000000	92.157814
3684.000000	92.123910
3683.000000	92.085434
3682.000000	92.055844
3681.000000	92.040792
3680.000000	92.048527
3679.000000	92.066265
3678.000000	92.094156
3677.000000	92.151982
3676.000000	92.205100
3675.000000	92.225086
3674.000000	92.233751
3673.000000	92.243506
3672.000000	92.274240
3671.000000	92.322629
3670.000000	92.319281
3669.000000	92.251417
3668.000000	92.194720
3667.000000	92.171802
3666.000000	92.138987
3665.000000	92.078832
3664.000000	92.002472
3663.000000	91.928980
3662.000000	91.866963
3661.000000	91.804455
3660.000000	91.745812
3659.000000	91.700508
3658.000000	91.663416
3657.000000	91.615280
3656.000000	91.547754
3655.000000	91.478557
3654.000000	91.405950
3653.000000	91.325157
3652.000000	91.255641
3651.000000	91.187766
3650.000000	91.080449
3649.000000	90.949531
3648.000000	90.863318
3647.000000	90.823036
3646.000000	90.757487
3645.000000	90.634394
3644.000000	90.480678
3643.000000	90.332263
3642.000000	90.191358
3641.000000	90.041423
3640.000000	89.887946
3639.000000	89.743363
3638.000000	89.605861
3637.000000	89.460658
3636.000000	89.306815
3635.000000	89.157120
3634.000000	89.009425
3633.000000	88.855988
3632.000000	88.702361
3631.000000	88.562936
3630.000000	88.407574
3629.000000	88.191703
3628.000000	87.959558
3627.000000	87.778675
3626.000000	87.620976
3625.000000	87.436615
3624.000000	87.226612
3623.000000	87.013467
3622.000000	86.815583
3621.000000	86.630163
3620.000000	86.420872
3619.000000	86.163547
3618.000000	85.893729
3617.000000	85.652344
3616.000000	85.442354
3615.000000	85.245901
3614.000000	85.040393
3613.000000	84.820228
3612.000000	84.605990
3611.000000	84.416909
3610.000000	84.250992
3609.000000	84.093461
3608.000000	83.921289
3607.000000	83.724469
3606.000000	83.512245
3605.000000	83.296489
3604.000000	83.083026
3603.000000	82.860203
3602.000000	82.615871
3601.000000	82.360425
3600.000000	82.109355
3599.000000	81.864005
3598.000000	81.623241
3597.000000	81.380781
3596.000000	81.129331
3595.000000	80.863428
3594.000000	80.582139
3593.000000	80.304266
3592.000000	80.047770
3591.000000	79.810959
3590.000000	79.582942
3589.000000	79.350240
3588.000000	79.095486
3587.000000	78.819526
3586.000000	78.549683
3585.000000	78.309986
3584.000000	78.096670
3583.000000	77.888221
3582.000000	77.672262
3581.000000	77.454200
3580.000000	77.244649
3579.000000	77.043036
3578.000000	76.844640
3577.000000	76.653184
3576.000000	76.472342
3575.000000	76.300948
3574.000000	76.134903
3573.000000	75.976247
3572.000000	75.832258
3571.000000	75.703392
3570.000000	75.589037
3569.000000	75.494139
3568.000000	75.416238
3567.000000	75.341674
3566.000000	75.267471
3565.000000	75.203410
3564.000000	75.154722
3563.000000	75.118350
3562.000000	75.089582
3561.000000	75.068686
3560.000000	75.057484
3559.000000	75.052890
3558.000000	75.050991
3557.000000	75.055343
3556.000000	75.070710
3555.000000	75.093216
3554.000000	75.114126
3553.000000	75.128431
3552.000000	75.138783
3551.000000	75.148260
3550.000000	75.156950
3549.000000	75.168564
3548.000000	75.187412
3547.000000	75.210856
3546.000000	75.232256
3545.000000	75.250901
3544.000000	75.269642
3543.000000	75.286949
3542.000000	75.297178
3541.000000	75.298873
3540.000000	75.293008
3539.000000	75.276460
3538.000000	75.247805
3537.000000	75.211390
3536.000000	75.173444
3535.000000	75.131772
3534.000000	75.080286
3533.000000	75.019992
3532.000000	74.954554
3531.000000	74.880788
3530.000000	74.789070
3529.000000	74.675943
3528.000000	74.546711
3527.000000	74.406944
3526.000000	74.260422
3525.000000	74.112739
3524.000000	73.965208
3523.000000	73.808832
3522.000000	73.633442
3521.000000	73.440430
3520.000000	73.238051
3519.000000	73.025829
3518.000000	72.796341
3517.000000	72.548520
3516.000000	72.290292
3515.000000	72.027710
3514.000000	71.759920
3513.000000	71.486075
3512.000000	71.206643
3511.000000	70.917014
3510.000000	70.610699
3509.000000	70.290570
3508.000000	69.966494
3507.000000	69.641777
3506.000000	69.311044
3505.000000	68.971796
3504.000000	68.629763
3503.000000	68.293219
3502.000000	67.967194
3501.000000	67.653819
3500.000000	67.352384
3499.000000	67.058671
3498.000000	66.770165
3497.000000	66.490559
3496.000000	66.225788
3495.000000	65.977531
3494.000000	65.745588
3493.000000	65.533770
3492.000000	65.346404
3491.000000	65.181173
3490.000000	65.033178
3489.000000	64.904834
3488.000000	64.803785
3487.000000	64.733348
3486.000000	64.692165
3485.000000	64.678846
3484.000000	64.689941
3483.000000	64.717199
3482.000000	64.756368
3481.000000	64.816729
3480.000000	64.911789
3479.000000	65.042120
3478.000000	65.195626
3477.000000	65.362441
3476.000000	65.539475
3475.000000	65.723438
3474.000000	65.909988
3473.000000	66.098408
3472.000000	66.290959
3471.000000	66.488466
3470.000000	66.692431
3469.000000	66.909418
3468.000000	67.144392
3467.000000	67.391774
3466.000000	67.640304
3465.000000	67.883309
3464.000000	68.118589
3463.000000	68.342788
3462.000000	68.555224
3461.000000	68.764301
3460.000000	68.979699
3459.000000	69.201096
3458.000000	69.420668
3457.000000	69.634006
3456.000000	69.843635
3455.000000	70.051457
3454.000000	70.257211
3453.000000	70.462295
3452.000000	70.667807
3451.000000	70.872029
3450.000000	71.072746
3449.000000	71.271111
3448.000000	71.468804
3447.000000	71.664241
3446.000000	71.857077
3445.000000	72.051879
3444.000000	72.251414
3443.000000	72.449990
3442.000000	72.638953
3441.000000	72.817178
3440.000000	72.990463
3439.000000	73.163193
3438.000000	73.336810
3437.000000	73.514313
3436.000000	73.700602
3435.000000	73.894557
3434.000000	74.087507
3433.000000	74.271343
3432.000000	74.444826
3431.000000	74.613432
3430.000000	74.783204
3429.000000	74.956544
3428.000000	75.131122
3427.000000	75.302165
3426.000000	75.467274
3425.000000	75.628142
3424.000000	75.787609
3423.000000	75.946085
3422.000000	76.102841
3421.000000	76.258787
3420.000000	76.415459
3419.000000	76.571953
3418.000000	76.725497
3417.000000	76.874732
3416.000000	77.020400
3415.000000	77.164477
3414.000000	77.310046
3413.000000	77.460333
3412.000000	77.615770
3411.000000	77.773586
3410.000000	77.932249
3409.000000	78.094315
3408.000000	78.261493
3407.000000	78.429589
3406.000000	78.591789
3405.000000	78.745105
3404.000000	78.892301
3403.000000	79.039188
3402.000000	79.193804
3401.000000	79.364167
3400.000000	79.550609
3399.000000	79.742188
3398.000000	79.924796
3397.000000	80.092754
3396.000000	80.249280
3395.000000	80.399320
3394.000000	80.547865
3393.000000	80.702659
3392.000000	80.870285
3391.000000	81.048552
3390.000000	81.227918
3389.000000	81.400537
3388.000000	81.564583
3387.000000	81.721066
3386.000000	81.871657
3385.000000	82.019045
3384.000000	82.165472
3383.000000	82.310564
3382.000000	82.453673
3381.000000	82.596916
3380.000000	82.742431
3379.000000	82.889250
3378.000000	83.036206
3377.000000	83.185824
3376.000000	83.340086
3375.000000	83.494528
3374.000000	83.642072
3373.000000	83.781832
3372.000000	83.920095
3371.000000	84.064037
3370.000000	84.218435
3369.000000	84.386171
3368.000000	84.566691
3367.000000	84.754363
3366.000000	84.942786
3365.000000	85.129819
3364.000000	85.316366
3363.000000	85.503215
3362.000000	85.692457
3361.000000	85.889149
3360.000000	86.096542
3359.000000	86.311253
3358.000000	86.527114
3357.000000	86.741436
3356.000000	86.953502
3355.000000	87.160471
3354.000000	87.360615
3353.000000	87.559467
3352.000000	87.766904
3351.000000	87.987750
3350.000000	88.217867
3349.000000	88.448693
3348.000000	88.672718
3347.000000	88.885552
3346.000000	89.088248
3345.000000	89.286757
3344.000000	89.485307
3343.000000	89.680461
3342.000000	89.864450
3341.000000	90.033881
3340.000000	90.191592
3339.000000	90.340293
3338.000000	90.476950
3337.000000	90.594143
3336.000000	90.683610
3335.000000	90.738991
3334.000000	90.757718
3333.000000	90.738702
3332.000000	90.678717
3331.000000	90.570073
3330.000000	90.403807
3329.000000	90.175249
3328.000000	89.882437
3327.000000	89.523629
3326.000000	89.096186
3325.000000	88.595319
3324.000000	88.014164
3323.000000	87.341604
3322.000000	86.567252
3321.000000	85.683501
3320.000000	84.679056
3319.000000	83.537223
3318.000000	82.234767
3317.000000	80.748097
3316.000000	79.052547
3315.000000	77.118168
3314.000000	74.921261
3313.000000	72.450674
3312.000000	69.711454
3311.000000	66.725891
3310.000000	63.532488
3309.000000	60.192816
3308.000000	56.781259
3307.000000	53.369964
3306.000000	50.025524
3305.000000	46.807589
3304.000000	43.765086
3303.000000	40.934740
3302.000000	38.347400
3301.000000	36.033028
3300.000000	34.018323
3299.000000	32.315764
3298.000000	30.929862
3297.000000	29.863120
3296.000000	29.098836
3295.000000	28.594788
3294.000000	28.285822
3293.000000	28.100111
3292.000000	27.971309
3291.000000	27.838768
3290.000000	27.665356
3289.000000	27.446337
3288.000000	27.202235
3287.000000	26.964128
3286.000000	26.761308
3285.000000	26.616378
3284.000000	26.535264
3283.000000	26.504421
3282.000000	26.501838
3281.000000	26.507813
3280.000000	26.504435
3279.000000	26.473122
3278.000000	26.403019
3277.000000	26.298837
3276.000000	26.174333
3275.000000	26.043096
3274.000000	25.921185
3273.000000	25.833372
3272.000000	25.809228
3271.000000	25.872361
3270.000000	26.038713
3269.000000	26.317643
3268.000000	26.707665
3267.000000	27.197056
3266.000000	27.768504
3265.000000	28.402205
3264.000000	29.068627
3263.000000	29.723178
3262.000000	30.314558
3261.000000	30.794928
3260.000000	31.119485
3259.000000	31.247106
3258.000000	31.153346
3257.000000	30.834041
3256.000000	30.302458
3255.000000	29.579564
3254.000000	28.692128
3253.000000	27.677167
3252.000000	26.566555
3251.000000	25.381835
3250.000000	24.141207
3249.000000	22.868168
3248.000000	21.593115
3247.000000	20.347166
3246.000000	19.165949
3245.000000	18.091864
3244.000000	17.163593
3243.000000	16.400918
3242.000000	15.803736
3241.000000	15.352896
3240.000000	15.008094
3239.000000	14.717497
3238.000000	14.435105
3237.000000	14.136814
3236.000000	13.817909
3235.000000	13.484651
3234.000000	13.153875
3233.000000	12.845452
3232.000000	12.568870
3231.000000	12.320274
3230.000000	12.097484
3229.000000	11.913260
3228.000000	11.786892
3227.000000	11.734311
3226.000000	11.770896
3225.000000	11.913556
3224.000000	12.173562
3223.000000	12.547140
3222.000000	13.021399
3221.000000	13.580998
3220.000000	14.201574
3219.000000	14.847094
3218.000000	15.478670
3217.000000	16.065157
3216.000000	16.583301
3215.000000	17.017651
3214.000000	17.368404
3213.000000	17.653862
3212.000000	17.898924
3211.000000	18.125579
3210.000000	18.357002
3209.000000	18.620069
3208.000000	18.936709
3207.000000	19.317123
3206.000000	19.766085
3205.000000	20.287864
3204.000000	20.881771
3203.000000	21.538518
3202.000000	22.246823
3201.000000	22.999188
3200.000000	23.785056
3199.000000	24.588117
3198.000000	25.393635
3197.000000	26.193331
3196.000000	26.979617
3195.000000	27.740703
3194.000000	28.466184
3193.000000	29.150748
3192.000000	29.788775
3191.000000	30.369824
3190.000000	30.886249
3189.000000	31.337620
3188.000000	31.724859
3187.000000	32.047782
3186.000000	32.309987
3185.000000	32.523486
3184.000000	32.700828
3183.000000	32.848883
3182.000000	32.974216
3181.000000	33.085791
3180.000000	33.191080
3179.000000	33.293640
3178.000000	33.399652
3177.000000	33.521669
3176.000000	33.671560
3175.000000	33.855194
3174.000000	34.077067
3173.000000	34.343285
3172.000000	34.654791
3171.000000	35.005495
3170.000000	35.389221
3169.000000	35.804250
3168.000000	36.248359
3167.000000	36.714232
3166.000000	37.195635
3165.000000	37.690421
3164.000000	38.194770
3163.000000	38.700419
3162.000000	39.200344
3161.000000	39.690699
3160.000000	40.162929
3159.000000	40.599839
3158.000000	40.980171
3157.000000	41.283413
3156.000000	41.483746
3155.000000	41.547919
3154.000000	41.444955
3153.000000	41.154812
3152.000000	40.677709
3151.000000	40.040595
3150.000000	39.302454
3149.000000	38.544452
3148.000000	37.839214
3147.000000	37.227334
3146.000000	36.712416
3145.000000	36.266717
3144.000000	35.839235
3143.000000	35.370476
3142.000000	34.815876
3141.000000	34.158658
3140.000000	33.403672
3139.000000	32.569440
3138.000000	31.687907
3137.000000	30.802540
3136.000000	29.956129
3135.000000	29.182613
3134.000000	28.511339
3133.000000	27.971268
3132.000000	27.582842
3131.000000	27.352593
3130.000000	27.281329
3129.000000	27.366058
3128.000000	27.597802
3127.000000	27.959953
3126.000000	28.435623
3125.000000	29.013300
3124.000000	29.676423
3123.000000	30.403493
3122.000000	31.176803
3121.000000	31.985173
3120.000000	32.817102
3119.000000	33.655740
3118.000000	34.487687
3117.000000	35.306613
3116.000000	36.105391
3115.000000	36.871930
3114.000000	37.596899
3113.000000	38.278225
3112.000000	38.914933
3111.000000	39.504644
3110.000000	40.048208
3109.000000	40.551587
3108.000000	41.017485
3107.000000	41.442317
3106.000000	41.824696
3105.000000	42.168640
3104.000000	42.478565
3103.000000	42.757066
3102.000000	43.012253
3101.000000	43.260979
3100.000000	43.520415
3099.000000	43.801953
3098.000000	44.114934
3097.000000	44.469612
3096.000000	44.870963
3095.000000	45.315585
3094.000000	45.797080
3093.000000	46.310138
3092.000000	46.847607
3091.000000	47.398506
3090.000000	47.953461
3089.000000	48.506679
3088.000000	49.051655
3087.000000	49.580930
3086.000000	50.091705
3085.000000	50.586307
3084.000000	51.064557
3083.000000	51.521583
3082.000000	51.954994
3081.000000	52.369157
3080.000000	52.769362
3079.000000	53.157248
3078.000000	53.534096
3077.000000	53.901901
3076.000000	54.259961
3075.000000	54.604716
3074.000000	54.935784
3073.000000	55.257252
3072.000000	55.570628
3071.000000	55.873350
3070.000000	56.165678
3069.000000	56.453789
3068.000000	56.743064
3067.000000	57.032365
3066.000000	57.318085
3065.000000	57.599161
3064.000000	57.875447
3063.000000	58.145569
3062.000000	58.408783
3061.000000	58.666059
3060.000000	58.917376
3059.000000	59.161329
3058.000000	59.399190
3057.000000	59.634573
3056.000000	59.868018
3055.000000	60.095710
3054.000000	60.315285
3053.000000	60.529411
3052.000000	60.740936
3051.000000	60.948938
3050.000000	61.150982
3049.000000	61.345715
3048.000000	61.532196
3047.000000	61.709964
3046.000000	61.881821
3045.000000	62.052834
3044.000000	62.224907
3043.000000	62.396376
3042.000000	62.567115
3041.000000	62.739421
3040.000000	62.912382
3039.000000	63.080217
3038.000000	63.239497
3037.000000	63.393662
3036.000000	63.548475
3035.000000	63.706744
3034.000000	63.868923
3033.000000	64.034813
3032.000000	64.202146
3031.000000	64.367489
3030.000000	64.530538
3029.000000	64.693913
3028.000000	64.858046
3027.000000	65.020732
3026.000000	65.182562
3025.000000	65.347505
3024.000000	65.516273
3023.000000	65.684133
3022.000000	65.847273
3021.000000	66.007054
3020.000000	66.165991
3019.000000	66.323626
3018.000000	66.478640
3017.000000	66.631094
3016.000000	66.780181
3015.000000	66.923140
3014.000000	67.058201
3013.000000	67.185402
3012.000000	67.302657
3011.000000	67.403297
3010.000000	67.479686
3009.000000	67.525320
3008.000000	67.532248
3007.000000	67.490161
3006.000000	67.388967
3005.000000	67.222528
3004.000000	66.988207
3003.000000	66.687490
3002.000000	66.328816
3001.000000	65.925631
3000.000000	65.490801
2999.000000	65.031679
2998.000000	64.553129
2997.000000	64.065086
2996.000000	63.591569
2995.000000	63.175764
2994.000000	62.870084
2993.000000	62.710136
2992.000000	62.689953
2991.000000	62.766521
2990.000000	62.887325
2989.000000	63.012847
2988.000000	63.119273
2987.000000	63.193263
2986.000000	63.233225
2985.000000	63.249266
2984.000000	63.258057
2983.000000	63.279186
2982.000000	63.335103
2981.000000	63.446760
2980.000000	63.622246
2979.000000	63.852153
2978.000000	64.119012
2977.000000	64.408834
2976.000000	64.715411
2975.000000	65.038333
2974.000000	65.379412
2973.000000	65.734540
2972.000000	66.085437
2971.000000	66.402039
2970.000000	66.653013
2969.000000	66.813523
2968.000000	66.862218
2967.000000	66.780612
2966.000000	66.557577
2965.000000	66.191594
2964.000000	65.688713
2963.000000	65.060399
2962.000000	64.328610
2961.000000	63.523648
2960.000000	62.673962
2959.000000	61.798326
2958.000000	60.908924
2957.000000	60.022523
2956.000000	59.168902
2955.000000	58.396526
2954.000000	57.762614
2953.000000	57.304734
2952.000000	57.013271
2951.000000	56.838558
2950.000000	56.732545
2949.000000	56.680665
2948.000000	56.700368
2947.000000	56.815428
2946.000000	57.032387
2945.000000	57.326185
2944.000000	57.639694
2943.000000	57.909253
2942.000000	58.103638
2941.000000	58.247357
2940.000000	58.409265
2939.000000	58.669574
2938.000000	59.089223
2937.000000	59.690710
2936.000000	60.453705
2935.000000	61.329212
2934.000000	62.262440
2933.000000	63.207086
2932.000000	64.126117
2931.000000	64.992336
2930.000000	65.791654
2929.000000	66.520591
2928.000000	67.179264
2927.000000	67.769279
2926.000000	68.298372
2925.000000	68.778275
2924.000000	69.216067
2923.000000	69.611480
2922.000000	69.963385
2921.000000	70.273652
2920.000000	70.543286
2919.000000	70.771819
2918.000000	70.961273
2917.000000	71.116987
2916.000000	71.243430
2915.000000	71.343088
2914.000000	71.420249
2913.000000	71.480474
2912.000000	71.526570
2911.000000	71.559372
2910.000000	71.583085
2909.000000	71.605290
2908.000000	71.630683
2907.000000	71.660005
2906.000000	71.694695
2905.000000	71.738172
2904.000000	71.790039
2903.000000	71.846096
2902.000000	71.903710
2901.000000	71.962397
2900.000000	72.020733
2899.000000	72.073931
2898.000000	72.118156
2897.000000	72.150689
2896.000000	72.165576
2895.000000	72.153504
2894.000000	72.107554
2893.000000	72.025462
2892.000000	71.905185
2891.000000	71.743482
2890.000000	71.540555
2889.000000	71.302481
2888.000000	71.037988
2887.000000	70.757010
2886.000000	70.473192
2885.000000	70.202600
2884.000000	69.958611
2883.000000	69.750337
2882.000000	69.586612
2881.000000	69.476519
2880.000000	69.424119
2879.000000	69.427619
2878.000000	69.484123
2877.000000	69.591247
2876.000000	69.743535
2875.000000	69.932072
2874.000000	70.147959
2873.000000	70.381899
2872.000000	70.620793
2871.000000	70.850980
2870.000000	71.067074
2869.000000	71.272595
2868.000000	71.471823
2867.000000	71.665678
2866.000000	71.855335
2865.000000	72.043476
2864.000000	72.229839
2863.000000	72.410995
2862.000000	72.586279
2861.000000	72.759275
2860.000000	72.932150
2859.000000	73.103864
2858.000000	73.275535
2857.000000	73.452429
2856.000000	73.638723
2855.000000	73.834478
2854.000000	74.038495
2853.000000	74.248635
2852.000000	74.457379
2851.000000	74.651915
2850.000000	74.821575
2849.000000	74.962506
2848.000000	75.075271
2847.000000	75.163237
2846.000000	75.234773
2845.000000	75.301912
2844.000000	75.373847
2843.000000	75.454012
2842.000000	75.544369
2841.000000	75.649076
2840.000000	75.771801
2839.000000	75.912518
2838.000000	76.068389
2837.000000	76.235292
2836.000000	76.407891
2835.000000	76.581068
2834.000000	76.752181
2833.000000	76.920026
2832.000000	77.082072
2831.000000	77.235415
2830.000000	77.380257
2829.000000	77.519236
2828.000000	77.653324
2827.000000	77.781660
2826.000000	77.904999
2825.000000	78.025578
2824.000000	78.143464
2823.000000	78.256331
2822.000000	78.363042
2821.000000	78.464142
2820.000000	78.558858
2819.000000	78.645379
2818.000000	78.724335
2817.000000	78.798493
2816.000000	78.868687
2815.000000	78.933385
2814.000000	78.992761
2813.000000	79.050046
2812.000000	79.108534
2811.000000	79.170322
2810.000000	79.237743
2809.000000	79.312312
2808.000000	79.392008
2807.000000	79.472984
2806.000000	79.554182
2805.000000	79.637103
2804.000000	79.721056
2803.000000	79.802389
2802.000000	79.878811
2801.000000	79.951029
2800.000000	80.019958
2799.000000	80.085747
2798.000000	80.149696
2797.000000	80.213582
2796.000000	80.276622
2795.000000	80.336252
2794.000000	80.392091
2793.000000	80.446034
2792.000000	80.498564
2791.000000	80.548496
2790.000000	80.596265
2789.000000	80.643692
2788.000000	80.690309
2787.000000	80.733612
2786.000000	80.773381
2785.000000	80.812360
2784.000000	80.852493
2783.000000	80.894233
2782.000000	80.939757
2781.000000	80.992743
2780.000000	81.054090
2779.000000	81.121191
2778.000000	81.192019
2777.000000	81.266563
2776.000000	81.343581
2775.000000	81.419349
2774.000000	81.490664
2773.000000	81.556225
2772.000000	81.614737
2771.000000	81.664988
2770.000000	81.708348
2769.000000	81.748167
2768.000000	81.786153
2767.000000	81.821872
2766.000000	81.855918
2765.000000	81.890366
2764.000000	81.925690
2763.000000	81.960504
2762.000000	81.994746
2761.000000	82.030039
2760.000000	82.066337
2759.000000	82.101092
2758.000000	82.132067
2757.000000	82.157846
2756.000000	82.175436
2755.000000	82.180478
2754.000000	82.170650
2753.000000	82.146819
2752.000000	82.110767
2751.000000	82.064999
2750.000000	82.015198
2749.000000	81.969485
2748.000000	81.934341
2747.000000	81.913500
2746.000000	81.910341
2745.000000	81.928205
2744.000000	81.967973
2743.000000	82.027504
2742.000000	82.103783
2741.000000	82.193025
2740.000000	82.288654
2739.000000	82.383002
2738.000000	82.471326
2737.000000	82.552070
2736.000000	82.624159
2735.000000	82.687005
2734.000000	82.742932
2733.000000	82.796144
2732.000000	82.848602
2731.000000	82.899407
2730.000000	82.948115
2729.000000	82.995442
2728.000000	83.040753
2727.000000	83.081639
2726.000000	83.116206
2725.000000	83.143758
2724.000000	83.163552
2723.000000	83.175881
2722.000000	83.184185
2721.000000	83.193126
2720.000000	83.204701
2719.000000	83.218516
2718.000000	83.235254
2717.000000	83.257028
2716.000000	83.284780
2715.000000	83.318213
2714.000000	83.357911
2713.000000	83.404416
2712.000000	83.455483
2711.000000	83.507338
2710.000000	83.558121
2709.000000	83.607413
2708.000000	83.653229
2707.000000	83.692833
2706.000000	83.726315
2705.000000	83.756376
2704.000000	83.784930
2703.000000	83.812866
2702.000000	83.842476
2701.000000	83.876577
2700.000000	83.915288
2699.000000	83.956417
2698.000000	83.998413
2697.000000	84.039964
2696.000000	84.077439
2695.000000	84.106487
2694.000000	84.126056
2693.000000	84.138100
2692.000000	84.144071
2691.000000	84.144655
2690.000000	84.142396
2689.000000	84.140946
2688.000000	84.141718
2687.000000	84.144371
2686.000000	84.149955
2685.000000	84.160351
2684.000000	84.175156
2683.000000	84.192451
2682.000000	84.212036
2681.000000	84.234626
2680.000000	84.258458
2679.000000	84.280353
2678.000000	84.299885
2677.000000	84.318854
2676.000000	84.337174
2675.000000	84.353176
2674.000000	84.367892
2673.000000	84.385407
2672.000000	84.408577
2671.000000	84.437819
2670.000000	84.473978
2669.000000	84.518724
2668.000000	84.571957
2667.000000	84.631699
2666.000000	84.696825
2665.000000	84.766969
2664.000000	84.839747
2663.000000	84.911592
2662.000000	84.981005
2661.000000	85.047983
2660.000000	85.110641
2659.000000	85.165812
2658.000000	85.213075
2657.000000	85.255259
2656.000000	85.294950
2655.000000	85.333325
2654.000000	85.372191
2653.000000	85.413391
2652.000000	85.455997
2651.000000	85.496752
2650.000000	85.533253
2649.000000	85.564453
2648.000000	85.588580
2647.000000	85.604091
2646.000000	85.612829
2645.000000	85.619272
2644.000000	85.626736
2643.000000	85.636648
2642.000000	85.650883
2641.000000	85.671775
2640.000000	85.699931
2639.000000	85.734694
2638.000000	85.776527
2637.000000	85.826064
2636.000000	85.881309
2635.000000	85.939021
2634.000000	85.998163
2633.000000	86.059349
2632.000000	86.121518
2631.000000	86.182200
2630.000000	86.240842
2629.000000	86.298676
2628.000000	86.355728
2627.000000	86.410794
2626.000000	86.463878
2625.000000	86.515526
2624.000000	86.564367
2623.000000	86.608249
2622.000000	86.647387
2621.000000	86.683632
2620.000000	86.716914
2619.000000	86.745552
2618.000000	86.769389
2617.000000	86.789422
2616.000000	86.805081
2615.000000	86.814759
2614.000000	86.819008
2613.000000	86.820267
2612.000000	86.819634
2611.000000	86.817071
2610.000000	86.814119
2609.000000	86.813394
2608.000000	86.815567
2607.000000	86.819633
2606.000000	86.825788
2605.000000	86.835133
2604.000000	86.846948
2603.000000	86.859191
2602.000000	86.871438
2601.000000	86.884378
2600.000000	86.896880
2599.000000	86.906432
2598.000000	86.912058
2597.000000	86.913913
2596.000000	86.910818
2595.000000	86.901290
2594.000000	86.886757
2593.000000	86.870845
2592.000000	86.855478
2591.000000	86.840488
2590.000000	86.826327
2589.000000	86.814160
2588.000000	86.803682
2587.000000	86.793792
2586.000000	86.785123
2585.000000	86.779296
2584.000000	86.776272
2583.000000	86.775140
2582.000000	86.777056
2581.000000	86.784383
2580.000000	86.797709
2579.000000	86.816690
2578.000000	86.842650
2577.000000	86.877556
2576.000000	86.920688
2575.000000	86.969400
2574.000000	87.022597
2573.000000	87.080045
2572.000000	87.139585
2571.000000	87.198142
2570.000000	87.254993
2569.000000	87.311139
2568.000000	87.365971
2567.000000	87.417810
2566.000000	87.467011
2565.000000	87.515536
2564.000000	87.564205
2563.000000	87.613442
2562.000000	87.665830
2561.000000	87.724509
2560.000000	87.789447
2559.000000	87.858407
2558.000000	87.930661
2557.000000	88.006616
2556.000000	88.084526
2555.000000	88.160852
2554.000000	88.233627
2553.000000	88.302372
2552.000000	88.365528
2551.000000	88.421311
2550.000000	88.470897
2549.000000	88.517546
2548.000000	88.562993
2547.000000	88.607161
2546.000000	88.650521
2545.000000	88.693910
2544.000000	88.736485
2543.000000	88.777122
2542.000000	88.817245
2541.000000	88.859272
2540.000000	88.902914
2539.000000	88.945777
2538.000000	88.986885
2537.000000	89.026606
2536.000000	89.063657
2535.000000	89.095570
2534.000000	89.121656
2533.000000	89.143028
2532.000000	89.160331
2531.000000	89.174105
2530.000000	89.186827
2529.000000	89.201468
2528.000000	89.218557
2527.000000	89.237039
2526.000000	89.256750
2525.000000	89.277252
2524.000000	89.295305
2523.000000	89.306896
2522.000000	89.311292
2521.000000	89.309874
2520.000000	89.302295
2519.000000	89.286805
2518.000000	89.263594
2517.000000	89.234624
2516.000000	89.200112
2515.000000	89.159042
2514.000000	89.112468
2513.000000	89.063234
2512.000000	89.013063
2511.000000	88.962669
2510.000000	88.914429
2509.000000	88.871455
2508.000000	88.834131
2507.000000	88.800487
2506.000000	88.769550
2505.000000	88.741191
2504.000000	88.713451
2503.000000	88.683706
2502.000000	88.652346
2501.000000	88.622628
2500.000000	88.597114
2499.000000	88.577304
2498.000000	88.566675
2497.000000	88.569724
2496.000000	88.588334
2495.000000	88.621162
2494.000000	88.666050
2493.000000	88.720614
2492.000000	88.780336
2491.000000	88.840178
2490.000000	88.897910
2489.000000	88.953572
2488.000000	89.006993
2487.000000	89.058428
2486.000000	89.111092
2485.000000	89.169483
2484.000000	89.235096
2483.000000	89.306502
2482.000000	89.382563
2481.000000	89.462690
2480.000000	89.544860
2479.000000	89.626550
2478.000000	89.707378
2477.000000	89.787687
2476.000000	89.865336
2475.000000	89.936818
2474.000000	90.001102
2473.000000	90.059090
2472.000000	90.110273
2471.000000	90.152982
2470.000000	90.187379
2469.000000	90.215545
2468.000000	90.238382
2467.000000	90.255722
2466.000000	90.268869
2465.000000	90.279848
2464.000000	90.288734
2463.000000	90.293756
2462.000000	90.293891
2461.000000	90.288778
2460.000000	90.276728
2459.000000	90.256366
2458.000000	90.229342
2457.000000	90.198998
2456.000000	90.166931
2455.000000	90.133626
2454.000000	90.101829
2453.000000	90.075724
2452.000000	90.057220
2451.000000	90.045889
2450.000000	90.042360
2449.000000	90.048188
2448.000000	90.063033
2447.000000	90.085094
2446.000000	90.113970
2445.000000	90.150621
2444.000000	90.194064
2443.000000	90.241444
2442.000000	90.290956
2441.000000	90.341886
2440.000000	90.392757
2439.000000	90.442110
2438.000000	90.491017
2437.000000	90.541992
2436.000000	90.595761
2435.000000	90.651900
2434.000000	90.711437
2433.000000	90.775637
2432.000000	90.842674
2431.000000	90.908626
2430.000000	90.971267
2429.000000	91.029762
2428.000000	91.081467
2427.000000	91.122444
2426.000000	91.151527
2425.000000	91.170396
2424.000000	91.180238
2423.000000	91.181442
2422.000000	91.176124
2421.000000	91.168119
2420.000000	91.159581
2419.000000	91.150776
2418.000000	91.143140
2417.000000	91.139606
2416.000000	91.141851
2415.000000	91.149779
2414.000000	91.163457
2413.000000	91.182319
2412.000000	91.202523
2411.000000	91.218243
2410.000000	91.226076
2409.000000	91.225784
2408.000000	91.217363
2407.000000	91.200632
2406.000000	91.178064
2405.000000	91.154468
2404.000000	91.133190
2403.000000	91.115222
2402.000000	91.101454
2401.000000	91.092211
2400.000000	91.083727
2399.000000	91.068241
2398.000000	91.038943
2397.000000	90.991545
2396.000000	90.921733
2395.000000	90.825150
2394.000000	90.700816
2393.000000	90.553177
2392.000000	90.388064
2391.000000	90.210671
2390.000000	90.027991
2389.000000	89.847869
2388.000000	89.676278
2387.000000	89.515303
2386.000000	89.367635
2385.000000	89.240681
2384.000000	89.140550
2383.000000	89.070776
2382.000000	89.032131
2381.000000	89.024294
2380.000000	89.044490
2379.000000	89.082220
2378.000000	89.125852
2377.000000	89.164628
2376.000000	89.188345
2375.000000	89.187422
2374.000000	89.162104
2373.000000	89.125203
2372.000000	89.087391
2371.000000	89.050508
2370.000000	89.015021
2369.000000	88.989989
2368.000000	88.977051
2367.000000	88.969922
2366.000000	88.972209
2365.000000	88.986690
2364.000000	89.013066
2363.000000	89.044334
2362.000000	89.067334
2361.000000	89.086927
2360.000000	89.108201
2359.000000	89.132248
2358.000000	89.167820
2357.000000	89.205381
2356.000000	89.218447
2355.000000	89.167640
2354.000000	89.022074
2353.000000	88.769499
2352.000000	88.460817
2351.000000	88.248167
2350.000000	88.298633
2349.000000	88.676281
2348.000000	89.285951
2347.000000	89.872888
2346.000000	90.187706
2345.000000	90.179215
2344.000000	90.016046
2343.000000	89.875106
2342.000000	89.805656
2341.000000	89.796458
2340.000000	89.820510
2339.000000	89.866142
2338.000000	89.935728
2337.000000	90.034156
2336.000000	90.158010
2335.000000	90.303660
2334.000000	90.465554
2333.000000	90.620714
2332.000000	90.720222
2331.000000	90.753733
2330.000000	90.751698
2329.000000	90.753113
2328.000000	90.782129
2327.000000	90.831559
2326.000000	90.892490
2325.000000	90.929943
2324.000000	90.916040
2323.000000	90.847678
2322.000000	90.742861
2321.000000	90.625649
2320.000000	90.503191
2319.000000	90.390738
2318.000000	90.299966
2317.000000	90.232496
2316.000000	90.162639
2315.000000	90.063288
2314.000000	89.922839
2313.000000	89.748937
2312.000000	89.555834
2311.000000	89.357375
2310.000000	89.163912
2309.000000	88.975079
2308.000000	88.785633
2307.000000	88.594242
2306.000000	88.408373
2305.000000	88.231774
2304.000000	88.061438
2303.000000	87.894963
2302.000000	87.736298
2301.000000	87.591244
2300.000000	87.462762
2299.000000	87.353334
2298.000000	87.266353
2297.000000	87.200983
2296.000000	87.151915
2295.000000	87.113866
2294.000000	87.087089
2293.000000	87.069393
2292.000000	87.054448
2291.000000	87.035772
2290.000000	87.011997
2289.000000	86.981330
2288.000000	86.939558
2287.000000	86.885595
2286.000000	86.825595
2285.000000	86.766796
2284.000000	86.712505
2283.000000	86.664592
2282.000000	86.626649
2281.000000	86.601721
2280.000000	86.590744
2279.000000	86.596907
2278.000000	86.625989
2277.000000	86.680893
2276.000000	86.757631
2275.000000	86.851932
2274.000000	86.963370
2273.000000	87.090802
2272.000000	87.228824
2271.000000	87.372430
2270.000000	87.521599
2269.000000	87.676256
2268.000000	87.832741
2267.000000	87.988667
2266.000000	88.145868
2265.000000	88.305203
2264.000000	88.462939
2263.000000	88.615634
2262.000000	88.764955
2261.000000	88.912877
2260.000000	89.058622
2259.000000	89.203173
2258.000000	89.351410
2257.000000	89.506616
2256.000000	89.666502
2255.000000	89.829159
2254.000000	89.996664
2253.000000	90.170344
2252.000000	90.347246
2251.000000	90.525285
2250.000000	90.707260
2249.000000	90.894824
2248.000000	91.085631
2247.000000	91.276940
2246.000000	91.469251
2245.000000	91.661553
2244.000000	91.848194
2243.000000	92.024025
2242.000000	92.188242
2241.000000	92.340630
2240.000000	92.478665
2239.000000	92.601707
2238.000000	92.713404
2237.000000	92.816587
2236.000000	92.910357
2235.000000	92.994137
2234.000000	93.070219
2233.000000	93.139718
2232.000000	93.200832
2231.000000	93.253990
2230.000000	93.303531
2229.000000	93.351805
2228.000000	93.396316
2227.000000	93.434810
2226.000000	93.468284
2225.000000	93.496244
2224.000000	93.514525
2223.000000	93.520974
2222.000000	93.518514
2221.000000	93.510457
2220.000000	93.497755
2219.000000	93.483783
2218.000000	93.476156
2217.000000	93.480335
2216.000000	93.495738
2215.000000	93.520641
2214.000000	93.555813
2213.000000	93.600219
2212.000000	93.648479
2211.000000	93.695933
2210.000000	93.742119
2209.000000	93.786819
2208.000000	93.827772
2207.000000	93.864940
2206.000000	93.901704
2205.000000	93.938900
2204.000000	93.972653
2203.000000	94.001052
2202.000000	94.028181
2201.000000	94.059118
2200.000000	94.096099
2199.000000	94.142182
2198.000000	94.202508
2197.000000	94.278182
2196.000000	94.363322
2195.000000	94.451148
2194.000000	94.538161
2193.000000	94.620410
2192.000000	94.692010
2191.000000	94.750993
2190.000000	94.801695
2189.000000	94.848276
2188.000000	94.890670
2187.000000	94.929358
2186.000000	94.968062
2185.000000	95.008386
2184.000000	95.046870
2183.000000	95.080650
2182.000000	95.111084
2181.000000	95.138689
2180.000000	95.159859
2179.000000	95.171645
2178.000000	95.175274
2177.000000	95.172157
2176.000000	95.161430
2175.000000	95.144165
2174.000000	95.125032
2173.000000	95.107236
2172.000000	95.090585
2171.000000	95.076836
2170.000000	95.071232
2169.000000	95.075993
2168.000000	95.087380
2167.000000	95.101726
2166.000000	95.118865
2165.000000	95.137090
2164.000000	95.150934
2163.000000	95.157513
2162.000000	95.159899
2161.000000	95.161431
2160.000000	95.162200
2159.000000	95.163717
2158.000000	95.170921
2157.000000	95.186083
2156.000000	95.206276
2155.000000	95.229772
2154.000000	95.259406
2153.000000	95.296697
2152.000000	95.338600
2151.000000	95.383217
2150.000000	95.432779
2149.000000	95.487515
2148.000000	95.542269
2147.000000	95.592978
2146.000000	95.640774
2145.000000	95.686583
2144.000000	95.727784
2143.000000	95.763758
2142.000000	95.798893
2141.000000	95.837104
2140.000000	95.878257
2139.000000	95.922266
2138.000000	95.970694
2137.000000	96.021540
2136.000000	96.068300
2135.000000	96.107044
2134.000000	96.139050
2133.000000	96.164049
2132.000000	96.177464
2131.000000	96.177228
2130.000000	96.167275
2129.000000	96.151161
2128.000000	96.127912
2127.000000	96.097061
2126.000000	96.061956
2125.000000	96.024729
2124.000000	95.983632
2123.000000	95.938464
2122.000000	95.892949
2121.000000	95.849028
2120.000000	95.804664
2119.000000	95.759658
2118.000000	95.717650
2117.000000	95.679625
2116.000000	95.641187
2115.000000	95.599139
2114.000000	95.555008
2113.000000	95.509908
2112.000000	95.462417
2111.000000	95.414518
2110.000000	95.373577
2109.000000	95.345332
2108.000000	95.330058
2107.000000	95.327540
2106.000000	95.339182
2105.000000	95.362319
2104.000000	95.388855
2103.000000	95.412433
2102.000000	95.431705
2101.000000	95.444705
2100.000000	95.447376
2099.000000	95.440353
2098.000000	95.430997
2097.000000	95.426187
2096.000000	95.428832
2095.000000	95.444161
2094.000000	95.481024
2093.000000	95.542589
2092.000000	95.623291
2091.000000	95.717867
2090.000000	95.826011
2089.000000	95.945677
2088.000000	96.069540
2087.000000	96.191966
2086.000000	96.311748
2085.000000	96.425226
2084.000000	96.524898
2083.000000	96.608324
2082.000000	96.681044
2081.000000	96.748122
2080.000000	96.810324
2079.000000	96.870705
2078.000000	96.936472
2077.000000	97.010598
2076.000000	97.089169
2075.000000	97.170187
2074.000000	97.255825
2073.000000	97.343646
2072.000000	97.425316
2071.000000	97.495713
2070.000000	97.557069
2069.000000	97.611184
2068.000000	97.655123
2067.000000	97.688070
2066.000000	97.715178
2065.000000	97.742332
2064.000000	97.772773
2063.000000	97.811035
2062.000000	97.861943
2061.000000	97.923174
2060.000000	97.986544
2059.000000	98.048832
2058.000000	98.113496
2057.000000	98.179646
2056.000000	98.239336
2055.000000	98.288142
2054.000000	98.329054
2053.000000	98.364063
2052.000000	98.391494
2051.000000	98.412799
2050.000000	98.434995
2049.000000	98.463585
2048.000000	98.498403
2047.000000	98.538817
2046.000000	98.587405
2045.000000	98.643914
2044.000000	98.701924
2043.000000	98.756380
2042.000000	98.808734
2041.000000	98.860585
2040.000000	98.908623
2039.000000	98.950277
2038.000000	98.987265
2037.000000	99.019970
2036.000000	99.045324
2035.000000	99.064595
2034.000000	99.086042
2033.000000	99.115295
2032.000000	99.151248
2031.000000	99.194903
2030.000000	99.252414
2029.000000	99.324650
2028.000000	99.402254
2027.000000	99.475486
2026.000000	99.542181
2025.000000	99.601086
2024.000000	99.646917
2023.000000	99.675403
2022.000000	99.689890
2021.000000	99.696272
2020.000000	99.695157
2019.000000	99.685947
2018.000000	99.674269
2017.000000	99.668946
2016.000000	99.675153
2015.000000	99.695404
2014.000000	99.730424
2013.000000	99.773814
2012.000000	99.812180
2011.000000	99.837354
2010.000000	99.853305
2009.000000	99.864786
2008.000000	99.867658
2007.000000	99.858032
2006.000000	99.841651
2005.000000	99.825744
2004.000000	99.810825
2003.000000	99.796418
2002.000000	99.788804
2001.000000	99.793167
2000.000000	99.807798
1999.000000	99.833823
1998.000000	99.874819
1997.000000	99.930093
1996.000000	99.993598
1995.000000	100.056899
1994.000000	100.110135
1993.000000	100.144284
1992.000000	100.158434
1991.000000	100.164443
1990.000000	100.176781
1989.000000	100.197950
1988.000000	100.220629
1987.000000	100.241002
1986.000000	100.264356
1985.000000	100.297043
1984.000000	100.339033
1983.000000	100.387362
1982.000000	100.440694
1981.000000	100.497188
1980.000000	100.554093
1979.000000	100.610557
1978.000000	100.662291
1977.000000	100.703906
1976.000000	100.736458
1975.000000	100.765793
1974.000000	100.793620
1973.000000	100.818241
1972.000000	100.843411
1971.000000	100.875818
1970.000000	100.913964
1969.000000	100.949776
1968.000000	100.981321
1967.000000	101.015758
1966.000000	101.060331
1965.000000	101.116490
1964.000000	101.180492
1963.000000	101.242929
1962.000000	101.290783
1961.000000	101.319134
1960.000000	101.338464
1959.000000	101.360190
1958.000000	101.379534
1957.000000	101.384030
1956.000000	101.374501
1955.000000	101.363812
1954.000000	101.358587
1953.000000	101.356019
1952.000000	101.353730
1951.000000	101.351937
1950.000000	101.349954
1949.000000	101.340084
1948.000000	101.314553
1947.000000	101.276335
1946.000000	101.231185
1945.000000	101.175451
1944.000000	101.102331
1943.000000	101.018347
1942.000000	100.946559
1941.000000	100.911094
1940.000000	100.923320
1939.000000	100.978330
1938.000000	101.057487
1937.000000	101.142030
1936.000000	101.229059
1935.000000	101.326170
1934.000000	101.431129
1933.000000	101.530254
1932.000000	101.612637
1931.000000	101.679868
1930.000000	101.740174
1929.000000	101.788462
1928.000000	101.816636
1927.000000	101.833255
1926.000000	101.853535
1925.000000	101.877892
1924.000000	101.886611
1923.000000	101.880982
1922.000000	101.893696
1921.000000	101.941560
1920.000000	102.002829
1919.000000	102.049663
1918.000000	102.078138
1917.000000	102.101985
1916.000000	102.128277
1915.000000	102.157397
1914.000000	102.184660
1913.000000	102.193859
1912.000000	102.167940
1911.000000	102.114370
1910.000000	102.059456
1909.000000	102.011107
1908.000000	101.962273
1907.000000	101.919029
1906.000000	101.897589
1905.000000	101.893848
1904.000000	101.873592
1903.000000	101.827508
1902.000000	101.781703
1901.000000	101.740252
1900.000000	101.680114
1899.000000	101.600193
1898.000000	101.527249
1897.000000	101.471617
1896.000000	101.409121
1895.000000	101.335406
1894.000000	101.289220
1893.000000	101.292814
1892.000000	101.319174
1891.000000	101.339932
1890.000000	101.360030
1889.000000	101.393777
1888.000000	101.440906
1887.000000	101.503815
1886.000000	101.589137
1885.000000	101.675531
1884.000000	101.723669
1883.000000	101.732551
1882.000000	101.739170
1881.000000	101.751909
1880.000000	101.747073
1879.000000	101.723852
1878.000000	101.711486
1877.000000	101.726677
1876.000000	101.750889
1875.000000	101.769567
1874.000000	101.803542
1873.000000	101.868631
1872.000000	101.939949
1871.000000	101.990580
1870.000000	102.022840
1869.000000	102.045047
1868.000000	102.054595
1867.000000	102.071091
1866.000000	102.134526
1865.000000	102.242770
1864.000000	102.346859
1863.000000	102.421803
1862.000000	102.498388
1861.000000	102.601312
1860.000000	102.709050
1859.000000	102.806134
1858.000000	102.917827
1857.000000	103.056512
1856.000000	103.187700
1855.000000	103.287511
1854.000000	103.374555
1853.000000	103.452372
1852.000000	103.498565
1851.000000	103.516117
1850.000000	103.525885
1849.000000	103.538644
1848.000000	103.552304
1847.000000	103.575135
1846.000000	103.616737
1845.000000	103.655035
1844.000000	103.669029
1843.000000	103.696642
1842.000000	103.788767
1841.000000	103.925842
1840.000000	104.052123
1839.000000	104.135000
1838.000000	104.182601
1837.000000	104.217808
1836.000000	104.241615
1835.000000	104.261140
1834.000000	104.298520
1833.000000	104.358417
1832.000000	104.427712
1831.000000	104.481333
1830.000000	104.498476
1829.000000	104.506013
1828.000000	104.552996
1827.000000	104.647310
1826.000000	104.761152
1825.000000	104.871978
1824.000000	104.972573
1823.000000	105.067483
1822.000000	105.162281
1821.000000	105.253497
1820.000000	105.321844
1819.000000	105.349528
1818.000000	105.362244
1817.000000	105.404254
1816.000000	105.467846
1815.000000	105.519771
1814.000000	105.564256
1813.000000	105.627243
1812.000000	105.697790
1811.000000	105.735458
1810.000000	105.760459
1809.000000	105.823228
1808.000000	105.906079
1807.000000	105.965691
1806.000000	106.011175
1805.000000	106.061414
1804.000000	106.088169
1803.000000	106.072621
1802.000000	106.054966
1801.000000	106.082122
1800.000000	106.141348
1799.000000	106.192397
1798.000000	106.251387
1797.000000	106.344217
1796.000000	106.441010
1795.000000	106.509262
1794.000000	106.555683
1793.000000	106.591119
1792.000000	106.598402
1791.000000	106.576804
1790.000000	106.584387
1789.000000	106.644798
1788.000000	106.703243
1787.000000	106.711604
1786.000000	106.699855
1785.000000	106.721019
1784.000000	106.772952
1783.000000	106.835697
1782.000000	106.902760
1781.000000	106.969315
1780.000000	107.038935
1779.000000	107.113584
1778.000000	107.204264
1777.000000	107.307607
1776.000000	107.410007
1775.000000	107.509106
1774.000000	107.590014
1773.000000	107.629464
1772.000000	107.632318
1771.000000	107.611829
1770.000000	107.590934
1769.000000	107.620317
1768.000000	107.733332
1767.000000	107.893751
1766.000000	108.053897
1765.000000	108.212006
1764.000000	108.378696
1763.000000	108.522071
1762.000000	108.595410
1761.000000	108.631060
1760.000000	108.690601
1759.000000	108.761956
1758.000000	108.807399
1757.000000	108.817074
1756.000000	108.834543
1755.000000	108.871537
1754.000000	108.873202
1753.000000	108.830945
1752.000000	108.810751
1751.000000	108.851126
1750.000000	108.914434
1749.000000	108.966421
1748.000000	109.018646
1747.000000	109.084940
1746.000000	109.129590
1745.000000	109.136334
1744.000000	109.146451
1743.000000	109.168788
1742.000000	109.174348
1741.000000	109.156593
1740.000000	109.130163
1739.000000	109.096235
1738.000000	109.055106
1737.000000	109.012650
1736.000000	108.974750
1735.000000	108.923881
1734.000000	108.860102
1733.000000	108.833491
1732.000000	108.873636
1731.000000	108.930781
1730.000000	108.968903
1729.000000	108.969356
1728.000000	108.941987
1727.000000	108.909592
1726.000000	108.861070
1725.000000	108.791098
1724.000000	108.702748
1723.000000	108.606075
1722.000000	108.547972
1721.000000	108.549098
1720.000000	108.556971
1719.000000	108.491930
1718.000000	108.371538
1717.000000	108.318362
1716.000000	108.327986
1715.000000	108.327731
1714.000000	108.366065
1713.000000	108.483280
1712.000000	108.599224
1711.000000	108.664114
1710.000000	108.742873
1709.000000	108.884523
1708.000000	109.046171
1707.000000	109.176158
1706.000000	109.303937
1705.000000	109.473451
1704.000000	109.639069
1703.000000	109.769385
1702.000000	109.934307
1701.000000	110.167614
1700.000000	110.363200
1699.000000	110.434234
1698.000000	110.497156
1697.000000	110.632659
1696.000000	110.784712
1695.000000	110.867970
1694.000000	110.930955
1693.000000	111.010811
1692.000000	111.061579
1691.000000	111.051209
1690.000000	110.991923
1689.000000	110.933064
1688.000000	110.942851
1687.000000	111.051257
1686.000000	111.229526
1685.000000	111.381806
1684.000000	111.459955
1683.000000	111.541563
1682.000000	111.666395
1681.000000	111.752088
1680.000000	111.812597
1679.000000	111.896559
1678.000000	111.973140
1677.000000	111.990086
1676.000000	111.969350
1675.000000	111.979639
1674.000000	111.998963
1673.000000	111.983420
1672.000000	111.968173
1671.000000	111.983533
1670.000000	111.982823
1669.000000	111.903100
1668.000000	111.800970
1667.000000	111.759870
1666.000000	111.738334
1665.000000	111.657643
1664.000000	111.492221
1663.000000	111.279634
1662.000000	111.049721
1661.000000	110.780127
1660.000000	110.501834
1659.000000	110.268523
1658.000000	110.041334
1657.000000	109.768748
1656.000000	109.465396
1655.000000	109.124920
1654.000000	108.502040
1653.000000	107.471382
1652.000000	106.389024
1651.000000	105.540328
1650.000000	104.708391
1649.000000	103.631891
1648.000000	102.062877
1647.000000	99.881546
1646.000000	97.323575
1645.000000	94.767499
1644.000000	92.332092
1643.000000	89.927886
1642.000000	87.509036
1641.000000	85.170503
1640.000000	83.148866
1639.000000	81.628025
1638.000000	80.646536
1637.000000	80.189856
1636.000000	80.317286
1635.000000	81.045595
1634.000000	82.173188
1633.000000	83.489450
1632.000000	84.905679
1631.000000	86.406793
1630.000000	87.958853
1629.000000	89.492427
1628.000000	90.947453
1627.000000	92.290034
1626.000000	93.495142
1625.000000	94.573612
1624.000000	95.584626
1623.000000	96.559609
1622.000000	97.444605
1621.000000	98.185785
1620.000000	98.838610
1619.000000	99.492774
1618.000000	100.152581
1617.000000	100.743622
1616.000000	101.237977
1615.000000	101.673846
1614.000000	102.035898
1613.000000	102.276925
1612.000000	102.410136
1611.000000	102.458932
1610.000000	102.348704
1609.000000	101.948638
1608.000000	101.200524
1607.000000	100.079470
1606.000000	98.451422
1605.000000	96.124647
1604.000000	93.073228
1603.000000	89.456285
1602.000000	85.510427
1601.000000	81.472107
1600.000000	77.440624
1599.000000	73.222166
1598.000000	68.316953
1597.000000	62.267261
1596.000000	55.130547
1595.000000	47.595693
1594.000000	40.620739
1593.000000	34.939107
1592.000000	30.901887
1591.000000	28.544518
1590.000000	27.595954
1589.000000	27.507868
1588.000000	27.708210
1587.000000	27.825536
1586.000000	27.638934
1585.000000	27.056593
1584.000000	26.221774
1583.000000	25.477523
1582.000000	25.087402
1581.000000	25.071817
1580.000000	25.354216
1579.000000	25.897051
1578.000000	26.615906
1577.000000	27.283695
1576.000000	27.696681
1575.000000	27.915476
1574.000000	28.089735
1573.000000	28.242098
1572.000000	28.432992
1571.000000	28.895699
1570.000000	29.886067
1569.000000	31.406195
1568.000000	33.301851
1567.000000	35.531639
1566.000000	38.054876
1565.000000	40.647511
1564.000000	43.033371
1563.000000	45.137197
1562.000000	47.081205
1561.000000	49.072965
1560.000000	51.408461
1559.000000	54.278740
1558.000000	57.198642
1557.000000	59.644522
1556.000000	61.724417
1555.000000	63.747875
1554.000000	65.760837
1553.000000	67.593132
1552.000000	69.174403
1551.000000	70.599322
1550.000000	71.957232
1549.000000	73.222920
1548.000000	74.361205
1547.000000	75.431640
1546.000000	76.497999
1545.000000	77.541095
1544.000000	78.518359
1543.000000	79.441913
1542.000000	80.356572
1541.000000	81.242485
1540.000000	82.019378
1539.000000	82.699140
1538.000000	83.359469
1537.000000	83.991560
1536.000000	84.571825
1535.000000	85.124371
1534.000000	85.643201
1533.000000	86.103347
1532.000000	86.534404
1531.000000	86.986222
1530.000000	87.475675
1529.000000	87.966139
1528.000000	88.394953
1527.000000	88.769393
1526.000000	89.145350
1525.000000	89.535869
1524.000000	89.909882
1523.000000	90.234832
1522.000000	90.493441
1521.000000	90.696573
1520.000000	90.891490
1519.000000	91.118775
1518.000000	91.355710
1517.000000	91.560085
1516.000000	91.727144
1515.000000	91.904704
1514.000000	92.126999
1513.000000	92.384155
1512.000000	92.632624
1511.000000	92.836167
1510.000000	93.009324
1509.000000	93.187506
1508.000000	93.338322
1507.000000	93.395547
1506.000000	93.438376
1505.000000	93.585977
1504.000000	93.796403
1503.000000	93.993985
1502.000000	94.178412
1501.000000	94.365025
1500.000000	94.551648
1499.000000	94.716368
1498.000000	94.863693
1497.000000	95.057884
1496.000000	95.332861
1495.000000	95.658287
1494.000000	96.010550
1493.000000	96.369189
1492.000000	96.695850
1491.000000	96.966442
1490.000000	97.218676
1489.000000	97.516632
1488.000000	97.848801
1487.000000	98.181851
1486.000000	98.544245
1485.000000	98.913377
1484.000000	99.238767
1483.000000	99.529868
1482.000000	99.808728
1481.000000	100.071244
1480.000000	100.295951
1479.000000	100.494585
1478.000000	100.691102
1477.000000	100.879735
1476.000000	101.032589
1475.000000	101.174643
1474.000000	101.354800
1473.000000	101.558379
1472.000000	101.753149
1471.000000	101.924806
1470.000000	102.052877
1469.000000	102.088097
1468.000000	101.979737
1467.000000	101.683765
1466.000000	101.099499
1465.000000	100.073044
1464.000000	98.545715
1463.000000	96.525862
1462.000000	93.953577
1461.000000	90.763183
1460.000000	86.961508
1459.000000	82.542764
1458.000000	77.441419
1457.000000	72.122380
1456.000000	67.731764
1455.000000	64.752838
1454.000000	62.590039
1453.000000	60.663837
1452.000000	58.943812
1451.000000	57.721558
1450.000000	57.279980
1449.000000	57.776975
1448.000000	59.198276
1447.000000	61.246785
1446.000000	63.496274
1445.000000	65.736822
1444.000000	68.006789
1443.000000	70.316030
1442.000000	72.550972
1441.000000	74.609400
1440.000000	76.470866
1439.000000	78.159771
1438.000000	79.755955
1437.000000	81.401520
1436.000000	83.127087
1435.000000	84.771375
1434.000000	86.223782
1433.000000	87.544538
1432.000000	88.788086
1431.000000	89.892917
1430.000000	90.791488
1429.000000	91.531419
1428.000000	92.182871
1427.000000	92.756561
1426.000000	93.244029
1425.000000	93.679603
1424.000000	94.135019
1423.000000	94.602847
1422.000000	95.027186
1421.000000	95.403693
1420.000000	95.760179
1419.000000	96.080568
1418.000000	96.355311
1417.000000	96.669552
1416.000000	97.061030
1415.000000	97.448774
1414.000000	97.745663
1413.000000	97.956001
1412.000000	98.136264
1411.000000	98.287218
1410.000000	98.383822
1409.000000	98.453064
1408.000000	98.506018
1407.000000	98.471637
1406.000000	98.233156
1405.000000	97.703575
1404.000000	96.885793
1403.000000	95.844601
1402.000000	94.679295
1401.000000	93.514288
1400.000000	92.469848
1399.000000	91.609402
1398.000000	90.932945
1397.000000	90.478125
1396.000000	90.403525
1395.000000	90.910335
1394.000000	92.004850
1393.000000	93.447710
1392.000000	94.958121
1391.000000	96.336222
1390.000000	97.480667
1389.000000	98.408072
1388.000000	99.229426
1387.000000	100.047469
1386.000000	100.861238
1385.000000	101.593540
1384.000000	102.175743
1383.000000	102.569211
1382.000000	102.785164
1381.000000	102.894018
1380.000000	102.975052
1379.000000	103.066781
1378.000000	103.157931
1377.000000	103.198977
1376.000000	103.104256
1375.000000	102.758010
1374.000000	102.037196
1373.000000	100.851237
1372.000000	99.123817
1371.000000	96.744486
1370.000000	93.632562
1369.000000	89.948106
1368.000000	86.242884
1367.000000	83.226964
1366.000000	81.317452
1365.000000	80.463063
1364.000000	80.363467
1363.000000	80.811067
1362.000000	81.842859
1361.000000	83.586513
1360.000000	85.998054
1359.000000	88.788435
1358.000000	91.560177
1357.000000	93.989709
1356.000000	95.937647
1355.000000	97.431752
1354.000000	98.583332
1353.000000	99.513811
1352.000000	100.300312
1351.000000	100.976144
1350.000000	101.557316
1349.000000	102.054621
1348.000000	102.480160
1347.000000	102.840396
1346.000000	103.148145
1345.000000	103.437850
1344.000000	103.749607
1343.000000	104.090792
1342.000000	104.430721
1341.000000	104.736019
1340.000000	105.000439
1339.000000	105.239856
1338.000000	105.465521
1337.000000	105.677176
1336.000000	105.868055
1335.000000	106.027816
1334.000000	106.150473
1333.000000	106.239740
1332.000000	106.302741
1331.000000	106.340580
1330.000000	106.347936
1329.000000	106.321530
1328.000000	106.252974
1327.000000	106.111640
1326.000000	105.824842
1325.000000	105.267224
1324.000000	104.283831
1323.000000	102.720587
1322.000000	100.489543
1321.000000	97.665050
1320.000000	94.537559
1319.000000	91.545844
1318.000000	89.067832
1317.000000	87.232618
1316.000000	85.948027
1315.000000	85.114750
1314.000000	84.769900
1313.000000	85.009471
1312.000000	85.788009
1311.000000	86.836334
1310.000000	87.841716
1309.000000	88.701150
1308.000000	89.580815
1307.000000	90.737434
1306.000000	92.283193
1305.000000	94.112215
1304.000000	95.999924
1303.000000	97.729854
1302.000000	99.168693
1301.000000	100.285281
1300.000000	101.110707
1299.000000	101.680543
1298.000000	102.007361
1297.000000	102.086222
1296.000000	101.909195
1295.000000	101.455728
1294.000000	100.698501
1293.000000	99.629266
1292.000000	98.268097
1291.000000	96.661618
1290.000000	94.849287
1289.000000	92.819213
1288.000000	90.470907
1287.000000	87.629228
1286.000000	84.180249
1285.000000	80.268801
1284.000000	76.385042
1283.000000	73.231586
1282.000000	71.434323
1281.000000	71.268112
1280.000000	72.600076
1279.000000	75.005644
1278.000000	77.932876
1277.000000	80.877574
1276.000000	83.463480
1275.000000	85.459365
1274.000000	86.819641
1273.000000	87.735964
1272.000000	88.590060
1271.000000	89.739801
1270.000000	91.298294
1269.000000	93.111435
1268.000000	94.930851
1267.000000	96.585780
1266.000000	98.028590
1265.000000	99.284439
1264.000000	100.387383
1263.000000	101.352527
1262.000000	102.180432
1261.000000	102.878381
1260.000000	103.466207
1259.000000	103.963127
1258.000000	104.386038
1257.000000	104.756122
1256.000000	105.099006
1255.000000	105.434646
1254.000000	105.773005
1253.000000	106.122700
1252.000000	106.490521
1251.000000	106.872283
1250.000000	107.254477
1249.000000	107.627102
1248.000000	107.987763
1247.000000	108.330938
1246.000000	108.645584
1245.000000	108.927441
1244.000000	109.181244
1243.000000	109.409894
1242.000000	109.612290
1241.000000	109.793507
1240.000000	109.965917
1239.000000	110.136906
1238.000000	110.306641
1237.000000	110.476536
1236.000000	110.647556
1235.000000	110.810013
1234.000000	110.944110
1233.000000	111.034430
1232.000000	111.071799
1231.000000	111.039911
1230.000000	110.916500
1229.000000	110.677401
1228.000000	110.293683
1227.000000	109.711976
1226.000000	108.839111
1225.000000	107.557508
1224.000000	105.724941
1223.000000	103.202781
1222.000000	99.916624
1221.000000	95.914300
1220.000000	91.403777
1219.000000	86.700590
1218.000000	82.122596
1217.000000	77.895222
1216.000000	74.113798
1215.000000	70.763273
1214.000000	67.776104
1213.000000	65.100743
1212.000000	62.740154
1211.000000	60.738649
1210.000000	59.110538
1209.000000	57.834072
1208.000000	56.900236
1207.000000	56.325650
1206.000000	56.136020
1205.000000	56.324558
1204.000000	56.848937
1203.000000	57.635073
1202.000000	58.586228
1201.000000	59.658398
1200.000000	60.907267
1199.000000	62.453496
1198.000000	64.391981
1197.000000	66.730102
1196.000000	69.405729
1195.000000	72.306537
1194.000000	75.288920
1193.000000	78.217870
1192.000000	80.998520
1191.000000	83.570380
1190.000000	85.890611
1189.000000	87.939917
1188.000000	89.726254
1187.000000	91.272731
1186.000000	92.591403
1185.000000	93.691359
1184.000000	94.593076
1183.000000	95.311681
1182.000000	95.852414
1181.000000	96.213695
1180.000000	96.403551
1179.000000	96.445065
1178.000000	96.365406
1177.000000	96.200572
1176.000000	95.992134
1175.000000	95.776589
1174.000000	95.580247
1173.000000	95.423606
1172.000000	95.324869
1171.000000	95.288736
1170.000000	95.301174
1169.000000	95.347349
1168.000000	95.432544
1167.000000	95.572665
1166.000000	95.766207
1165.000000	95.980301
1164.000000	96.160294
1163.000000	96.258260
1162.000000	96.267572
1161.000000	96.244295
1160.000000	96.288939
1159.000000	96.494203
1158.000000	96.908059
1157.000000	97.530554
1156.000000	98.326436
1155.000000	99.231130
1154.000000	100.160891
1153.000000	101.039379
1152.000000	101.810940
1151.000000	102.430663
1150.000000	102.861450
1149.000000	103.095627
1148.000000	103.161979
1147.000000	103.109317
1146.000000	102.989698
1145.000000	102.849050
1144.000000	102.720852
1143.000000	102.599442
1142.000000	102.430354
1141.000000	102.136010
1140.000000	101.632756
1139.000000	100.842161
1138.000000	99.675653
1137.000000	98.036765
1136.000000	95.837121
1135.000000	92.973527
1134.000000	89.338330
1133.000000	84.829161
1132.000000	79.396025
1131.000000	73.127817
1130.000000	66.311461
1129.000000	59.449312
1128.000000	53.188234
1127.000000	48.143725
1126.000000	44.681840
1125.000000	42.850053
1124.000000	42.425929
1123.000000	43.003809
1122.000000	44.070461
1121.000000	45.089648
1120.000000	45.656009
1119.000000	45.551962
1118.000000	44.735076
1117.000000	43.370403
1116.000000	41.876925
1115.000000	40.884772
1114.000000	41.004070
1113.000000	42.570203
1112.000000	45.536659
1111.000000	49.490066
1110.000000	53.771442
1109.000000	57.681348
1108.000000	60.701172
1107.000000	62.607894
1106.000000	63.447914
1105.000000	63.453277
1104.000000	62.990648
1103.000000	62.527538
1102.000000	62.531411
1101.000000	63.325788
1100.000000	64.985958
1099.000000	67.340551
1098.000000	70.074292
1097.000000	72.866660
1096.000000	75.478508
1095.000000	77.776980
1094.000000	79.735280
1093.000000	81.415930
1092.000000	82.926033
1091.000000	84.360876
1090.000000	85.780318
1089.000000	87.224001
1088.000000	88.725172
1087.000000	90.289282
1086.000000	91.882161
1085.000000	93.444958
1084.000000	94.912621
1083.000000	96.228784
1082.000000	97.357089
1081.000000	98.297565
1080.000000	99.077897
1079.000000	99.722532
1078.000000	100.247936
1077.000000	100.662485
1076.000000	100.962522
1075.000000	101.122036
1074.000000	101.086083
1073.000000	100.799189
1072.000000	100.192883
1071.000000	99.171585
1070.000000	97.616748
1069.000000	95.374550
1068.000000	92.283164
1067.000000	88.169558
1066.000000	82.903064
1065.000000	76.510667
1064.000000	69.250417
1063.000000	61.630522
1062.000000	54.275520
1061.000000	47.709007
1060.000000	42.163748
1059.000000	37.528694
1058.000000	33.458096
1057.000000	29.676137
1056.000000	26.290082
1055.000000	23.801376
1054.000000	22.866665
1053.000000	23.899966
1052.000000	26.859316
1051.000000	31.282180
1050.000000	36.456482
1049.000000	41.728864
1048.000000	46.680470
1047.000000	51.137020
1046.000000	55.088697
1045.000000	58.603128
1044.000000	61.765992
1043.000000	64.629032
1042.000000	67.196614
1041.000000	69.455244
1040.000000	71.423084
1039.000000	73.137340
1038.000000	74.635047
1037.000000	75.957111
1036.000000	77.144564
1035.000000	78.234331
1034.000000	79.244774
1033.000000	80.186657
1032.000000	81.075134
1031.000000	81.917257
1030.000000	82.710810
1029.000000	83.456050
1028.000000	84.164208
1027.000000	84.847710
1026.000000	85.508608
1025.000000	86.146620
1024.000000	86.763480
1023.000000	87.356357
1022.000000	87.921343
1021.000000	88.459742
1020.000000	88.972713
1019.000000	89.436021
1018.000000	89.789490
1017.000000	89.959233
1016.000000	89.851098
1015.000000	89.346434
1014.000000	88.304662
1013.000000	86.591117
1012.000000	84.135820
1011.000000	80.969858
1010.000000	77.274886
1009.000000	73.394208
1008.000000	69.764411
1007.000000	66.795900
1006.000000	64.788985
1005.000000	63.898236
1004.000000	64.104625
1003.000000	65.178705
1002.000000	66.684100
1001.000000	68.114901
1000.000000	69.047560
999.000000	69.193791
998.000000	68.405529
997.000000	66.736735
996.000000	64.522832
995.000000	62.321639
994.000000	60.670276
993.000000	59.843836
992.000000	59.814767
991.000000	60.411735
990.000000	61.501716
989.000000	63.054955
988.000000	65.092466
987.000000	67.555117
986.000000	70.256451
985.000000	72.955271
984.000000	75.461267
983.000000	77.685845
982.000000	79.617072
981.000000	81.283496
980.000000	82.727264
979.000000	83.989572
978.000000	85.095171
977.000000	86.062535
976.000000	86.913031
975.000000	87.663668
974.000000	88.328184
973.000000	88.918501
972.000000	89.452176
971.000000	89.946743
970.000000	90.411497
969.000000	90.855131
968.000000	91.288167
967.000000	91.716824
966.000000	92.137935
965.000000	92.544492
964.000000	92.933071
963.000000	93.299417
962.000000	93.636942
961.000000	93.945148
960.000000	94.232755
959.000000	94.509392
958.000000	94.778083
957.000000	95.040053
956.000000	95.299329
955.000000	95.556391
954.000000	95.805254
953.000000	96.040270
952.000000	96.261218
951.000000	96.468715
950.000000	96.660077
949.000000	96.834799
948.000000	96.996916
947.000000	97.149248
946.000000	97.291556
945.000000	97.426154
944.000000	97.559734
943.000000	97.696505
942.000000	97.835876
941.000000	97.979219
940.000000	98.131324
939.000000	98.292776
938.000000	98.457370
937.000000	98.619595
936.000000	98.778215
935.000000	98.930135
934.000000	99.068422
933.000000	99.189084
932.000000	99.294165
931.000000	99.387479
930.000000	99.473506
929.000000	99.561409
928.000000	99.662128
927.000000	99.778986
926.000000	99.907219
925.000000	100.042666
924.000000	100.184025
923.000000	100.326612
922.000000	100.462167
921.000000	100.586348
920.000000	100.699197
919.000000	100.798500
918.000000	100.880480
917.000000	100.946990
916.000000	101.004994
915.000000	101.058656
914.000000	101.109678
913.000000	101.164777
912.000000	101.233703
911.000000	101.319221
910.000000	101.415642
909.000000	101.516223
908.000000	101.615348
907.000000	101.706403
906.000000	101.787678
905.000000	101.868139
904.000000	101.955312
903.000000	102.037791
902.000000	102.087851
901.000000	102.083173
900.000000	102.014976
899.000000	101.874931
898.000000	101.649413
897.000000	101.330703
896.000000	100.939413
895.000000	100.531766
894.000000	100.169619
893.000000	99.860138
892.000000	99.513003
891.000000	98.987563
890.000000	98.217951
889.000000	97.293538
888.000000	96.397294
887.000000	95.677753
886.000000	95.194501
885.000000	94.959790
884.000000	94.973897
883.000000	95.184732
882.000000	95.469264
881.000000	95.711788
880.000000	95.911602
879.000000	96.194353
878.000000	96.699031
877.000000	97.465113
876.000000	98.405508
875.000000	99.367493
874.000000	100.221891
873.000000	100.912542
872.000000	101.446128
871.000000	101.849642
870.000000	102.145153
869.000000	102.346481
868.000000	102.460984
867.000000	102.482136
866.000000	102.393452
865.000000	102.192966
864.000000	101.909332
863.000000	101.602443
862.000000	101.351329
861.000000	101.232255
860.000000	101.286644
859.000000	101.498658
858.000000	101.806190
857.000000	102.140504
856.000000	102.458282
855.000000	102.742272
854.000000	102.992532
853.000000	103.220210
852.000000	103.438898
851.000000	103.654702
850.000000	103.867168
849.000000	104.077708
848.000000	104.288548
847.000000	104.494508
846.000000	104.684271
845.000000	104.851250
844.000000	104.994301
843.000000	105.110531
842.000000	105.197147
841.000000	105.258916
840.000000	105.305887
839.000000	105.343761
838.000000	105.375659
837.000000	105.411340
836.000000	105.463568
835.000000	105.535887
834.000000	105.622460
833.000000	105.718953
832.000000	105.823973
831.000000	105.930581
830.000000	106.027098
829.000000	106.107570
828.000000	106.173814
827.000000	106.228129
826.000000	106.271767
825.000000	106.308473
824.000000	106.339697
823.000000	106.359291
822.000000	106.363811
821.000000	106.364032
820.000000	106.375715
819.000000	106.402118
818.000000	106.434951
817.000000	106.468315
816.000000	106.499884
815.000000	106.522393
814.000000	106.524571
813.000000	106.496328
812.000000	106.422527
811.000000	106.276343
810.000000	106.038818
809.000000	105.731448
808.000000	105.419742
807.000000	105.178367
806.000000	105.050930
805.000000	105.032704
804.000000	105.079088
803.000000	105.129510
802.000000	105.134464
801.000000	105.066398
800.000000	104.907243
799.000000	104.634649
798.000000	104.221857
797.000000	103.646316
796.000000	102.884918
795.000000	101.910205
794.000000	100.707219
793.000000	99.293822
792.000000	97.731884
791.000000	96.122980
790.000000	94.596531
789.000000	93.283652
788.000000	92.281522
787.000000	91.628781
786.000000	91.310431
785.000000	91.278941
784.000000	91.460961
783.000000	91.761988
782.000000	92.081278
781.000000	92.339385
780.000000	92.499486
779.000000	92.575489
778.000000	92.637441
777.000000	92.793723
776.000000	93.144424
775.000000	93.736697
774.000000	94.554745
773.000000	95.541623
772.000000	96.620330
771.000000	97.711377
770.000000	98.754224
769.000000	99.716698
768.000000	100.581552
767.000000	101.331684
766.000000	101.957830
765.000000	102.467704
764.000000	102.877663
763.000000	103.202016
762.000000	103.459801
761.000000	103.679718
760.000000	103.884427
759.000000	104.080110
758.000000	104.267777
757.000000	104.453488
756.000000	104.637033
755.000000	104.803299
754.000000	104.937851
753.000000	105.039127
752.000000	105.106230
751.000000	105.129075
750.000000	105.102110
749.000000	105.035478
748.000000	104.939713
747.000000	104.812656
746.000000	104.653712
745.000000	104.475201
744.000000	104.286482
743.000000	104.081742
742.000000	103.857017
741.000000	103.624193
740.000000	103.395538
739.000000	103.171261
738.000000	102.953709
737.000000	102.751834
736.000000	102.553910
735.000000	102.314650
734.000000	101.988385
733.000000	101.560520
732.000000	101.038392
731.000000	100.442535
730.000000	99.828564
729.000000	99.291474
728.000000	98.925922
727.000000	98.784479
726.000000	98.875297
725.000000	99.178992
724.000000	99.642477
723.000000	100.179206
722.000000	100.711236
721.000000	101.208527
720.000000	101.673971
719.000000	102.106520
718.000000	102.498314
717.000000	102.847079
716.000000	103.146742
715.000000	103.381639
714.000000	103.549155
713.000000	103.670947
712.000000	103.766790
711.000000	103.836798
710.000000	103.886330
709.000000	103.938347
708.000000	104.005704
707.000000	104.078322
706.000000	104.147848
705.000000	104.227849
704.000000	104.327901
703.000000	104.426132
702.000000	104.505468
701.000000	104.582778
700.000000	104.670396
699.000000	104.754521
698.000000	104.825933
697.000000	104.906687
696.000000	105.010627
695.000000	105.103074
694.000000	105.157568
693.000000	105.195255
692.000000	105.228260
691.000000	105.227833
690.000000	105.176878
689.000000	105.119190
688.000000	105.094084
687.000000	105.065130
686.000000	104.997779
685.000000	104.930733
684.000000	104.902563
683.000000	104.886612
682.000000	104.864839
681.000000	104.886893
680.000000	104.982601
679.000000	105.093945
678.000000	105.192988
677.000000	105.311296
676.000000	105.440618
675.000000	105.567301
674.000000	105.694108
673.000000	105.852155
672.000000	106.122793
671.000000	106.622620
670.000000	107.425160
669.000000	108.202496
668.000000	108.174435
667.000000	107.417425
666.000000	106.775193
665.000000	106.458936
664.000000	106.357011
663.000000	106.382871
662.000000	106.468837
661.000000	106.558676
660.000000	106.615043
659.000000	106.632530
658.000000	106.625631
657.000000	106.574361
656.000000	106.453386
655.000000	106.343410
654.000000	106.301280
653.000000	106.275434
652.000000	106.242284
651.000000	106.262067
650.000000	106.347214
649.000000	106.406264
648.000000	106.394222
647.000000	106.373959
646.000000	106.375515
645.000000	106.343130
644.000000	106.253055
643.000000	106.165431
642.000000	106.121667
641.000000	106.080377
640.000000	106.012808
639.000000	105.963164
638.000000	105.955452
637.000000	105.946391
636.000000	105.919180
635.000000	105.919513
634.000000	105.964952
633.000000	106.007040
632.000000	106.015727
631.000000	106.022067
630.000000	106.039216
629.000000	106.020256
628.000000	105.939827
627.000000	105.838709
626.000000	105.748389
625.000000	105.655004
624.000000	105.559235
623.000000	105.504768
622.000000	105.513232
621.000000	105.549609
620.000000	105.580707
619.000000	105.606179
618.000000	105.616638
617.000000	105.582079
616.000000	105.503987
615.000000	105.419800
614.000000	105.335722
613.000000	105.219019
612.000000	105.070277
611.000000	104.937505
610.000000	104.845291
609.000000	104.766104
608.000000	104.682643
607.000000	104.614324
606.000000	104.557406
605.000000	104.473802
604.000000	104.346379
603.000000	104.189399
602.000000	103.992195
601.000000	103.708587
600.000000	103.317296
599.000000	102.841172
598.000000	102.288697
597.000000	101.635056
596.000000	100.885689
595.000000	100.098400
594.000000	99.312224
593.000000	98.498274
592.000000	97.598884
591.000000	96.577828
590.000000	95.438110
589.000000	94.256947
588.000000	93.204774
587.000000	92.443439
586.000000	91.982769
585.000000	91.717545
584.000000	91.631371
583.000000	91.846654
582.000000	92.440870
581.000000	93.321694
580.000000	94.316153
579.000000	95.294926
578.000000	96.161975
577.000000	96.837708
576.000000	97.317042
575.000000	97.672495
574.000000	97.948886
573.000000	98.120253
572.000000	98.173438
571.000000	98.147247
570.000000	98.058019
569.000000	97.852938
568.000000	97.490195
567.000000	96.978237
566.000000	96.291654
565.000000	95.331500
564.000000	94.025977
563.000000	92.436866
562.000000	90.726093
561.000000	89.073036
560.000000	87.638501
559.000000	86.507997
558.000000	85.610382
557.000000	84.796242
556.000000	84.082661
555.000000	83.728992
554.000000	84.005331
553.000000	84.945511
552.000000	86.361436
551.000000	87.980313
550.000000	89.509788
549.000000	90.722233
548.000000	91.569144
547.000000	92.161911
546.000000	92.610871
545.000000	92.941531
544.000000	93.167902
543.000000	93.337453
542.000000	93.462692
541.000000	93.487080
540.000000	93.378042
539.000000	93.176642
538.000000	92.922813
537.000000	92.608761
536.000000	92.244052
535.000000	91.891931
534.000000	91.595854
533.000000	91.345358
532.000000	91.138551
531.000000	91.015066
530.000000	90.978717
529.000000	90.953146
528.000000	90.855355
527.000000	90.658445
526.000000	90.336294
525.000000	89.826654
524.000000	89.100937
523.000000	88.196301
522.000000	87.163084
521.000000	86.044451
520.000000	84.928937
519.000000	83.939466
518.000000	83.118377
517.000000	82.389619
516.000000	81.682147
515.000000	81.007794
514.000000	80.394024
513.000000	79.847985
512.000000	79.424014
511.000000	79.245217
510.000000	79.388646
509.000000	79.813098
508.000000	80.447874
507.000000	81.268071
506.000000	82.236590
505.000000	83.275940
504.000000	84.354574
503.000000	85.513258
502.000000	86.744142
501.000000	87.932938
500.000000	88.977914
499.000000	89.879383
498.000000	90.660354
497.000000	91.303812
496.000000	91.806894
495.000000	92.212675
494.000000	92.551525
493.000000	92.798410
492.000000	92.948766
491.000000	93.063071
490.000000	93.177655
489.000000	93.258019
488.000000	93.274527
487.000000	93.259778
486.000000	93.224427
485.000000	93.071337
484.000000	92.665567
483.000000	91.938335
482.000000	90.886697
481.000000	89.559333
480.000000	88.127426
479.000000	86.869723
478.000000	85.968822
477.000000	85.374572
476.000000	84.918573
475.000000	84.488488
474.000000	84.037456
473.000000	83.576105
472.000000	83.265276
471.000000	83.375399
470.000000	84.028763
469.000000	85.102060
468.000000	86.423895
467.000000	87.887403
466.000000	89.356878
465.000000	90.650959
464.000000	91.668186
463.000000	92.451723
462.000000	93.078309
461.000000	93.555363
460.000000	93.884006
459.000000	94.132721
458.000000	94.379655
457.000000	94.651215
456.000000	94.964619
455.000000	95.345991
454.000000	95.764714
453.000000	96.128123
452.000000	96.393077
451.000000	96.609207
450.000000	96.787864
449.000000	96.853285
448.000000	96.773963
447.000000	96.627854
446.000000	96.479240
445.000000	96.310005
444.000000	96.127959
443.000000	96.035810
442.000000	96.101202
441.000000	96.261979
440.000000	96.454840
439.000000	96.694864
438.000000	96.964667
437.000000	97.153032
436.000000	97.190111
435.000000	97.125459
434.000000	96.978020
433.000000	96.651536
432.000000	96.097788
431.000000	95.439075
430.000000	94.828305
429.000000	94.294659
428.000000	93.860229
427.000000	93.655557
426.000000	93.738405
425.000000	93.958400
424.000000	94.178468
423.000000	94.461052
422.000000	94.841618
421.000000	95.125125
420.000000	95.115487
419.000000	94.982523
418.000000	95.074216
417.000000	95.361852
416.000000	95.642906
415.000000	95.921508
414.000000	96.256485
413.000000	96.571048
412.000000	96.799775
411.000000	97.045444
410.000000	97.388765
409.000000	97.676592
408.000000	97.760411
407.000000	97.747486
406.000000	97.762959
405.000000	97.690507
404.000000	97.431231
403.000000	97.151046
402.000000	97.027491
401.000000	96.940252
400.000000	96.759117
