PE IR       SUBTECH     SPECTRUM    ASCII       PEDS        4.00        
   -1
23ms003-trans.asc
24/10/14
15:04:12.00
24/10/14
15:04:12.00
Administrator
Sample 1259 By Administrator Date Monday, October 14 2024
400.000000
#HDR
-1
-1
#GR
cm-1
%T
1.0
0.0
4000.000000
-1.000000
3601
8
122.580826
34.732692
#DATA
4000.000000	102.598129
3999.000000	102.530506
3998.000000	102.462653
3997.000000	102.405983
3996.000000	102.362432
3995.000000	102.317320
3994.000000	102.256724
3993.000000	102.189237
3992.000000	102.137595
3991.000000	102.106978
3990.000000	102.073886
3989.000000	102.013498
3988.000000	101.927669
3987.000000	101.837048
3986.000000	101.754254
3985.000000	101.676517
3984.000000	101.599887
3983.000000	101.526533
3982.000000	101.457382
3981.000000	101.387625
3980.000000	101.315424
3979.000000	101.251534
3978.000000	101.213972
3977.000000	101.211411
3976.000000	101.236844
3975.000000	101.276051
3974.000000	101.318622
3973.000000	101.364444
3972.000000	101.423241
3971.000000	101.509028
3970.000000	101.624875
3969.000000	101.754501
3968.000000	101.870746
3967.000000	101.954291
3966.000000	102.007796
3965.000000	102.054053
3964.000000	102.118483
3963.000000	102.202571
3962.000000	102.277405
3961.000000	102.311198
3960.000000	102.306972
3959.000000	102.304897
3958.000000	102.333647
3957.000000	102.380093
3956.000000	102.411140
3955.000000	102.409034
3954.000000	102.379701
3953.000000	102.338646
3952.000000	102.311388
3951.000000	102.329844
3950.000000	102.410179
3949.000000	102.520575
3948.000000	102.583618
3947.000000	102.551697
3946.000000	102.488032
3945.000000	102.535238
3944.000000	102.764289
3943.000000	103.065207
3942.000000	103.243082
3941.000000	103.239338
3940.000000	103.196697
3939.000000	103.267498
3938.000000	103.411172
3937.000000	103.464868
3936.000000	103.371146
3935.000000	103.251369
3934.000000	103.257574
3933.000000	103.394596
3932.000000	103.534291
3931.000000	103.558675
3930.000000	103.455955
3929.000000	103.305851
3928.000000	103.211437
3927.000000	103.260823
3926.000000	103.458357
3925.000000	103.656784
3924.000000	103.656187
3923.000000	103.433522
3922.000000	103.186754
3921.000000	103.098871
3920.000000	103.170471
3919.000000	103.326624
3918.000000	103.532104
3917.000000	103.740555
3916.000000	103.858901
3915.000000	103.865636
3914.000000	103.889509
3913.000000	104.061943
3912.000000	104.327403
3911.000000	104.502657
3910.000000	104.435918
3909.000000	104.112121
3908.000000	103.639703
3907.000000	103.176657
3906.000000	102.855594
3905.000000	102.672765
3904.000000	102.477740
3903.000000	102.159404
3902.000000	101.883611
3901.000000	101.979328
3900.000000	102.505233
3899.000000	103.108201
3898.000000	103.422664
3897.000000	103.446405
3896.000000	103.403388
3895.000000	103.439932
3894.000000	103.593584
3893.000000	103.918482
3892.000000	104.316284
3891.000000	104.373258
3890.000000	103.752205
3889.000000	102.820939
3888.000000	102.424060
3887.000000	102.923856
3886.000000	103.758485
3885.000000	103.966241
3884.000000	103.272004
3883.000000	102.519060
3882.000000	102.632417
3881.000000	103.532986
3880.000000	104.330954
3879.000000	104.319840
3878.000000	103.725193
3877.000000	103.353998
3876.000000	103.577580
3875.000000	103.972684
3874.000000	103.861790
3873.000000	103.124252
3872.000000	102.454526
3871.000000	102.533132
3870.000000	103.043348
3869.000000	103.004366
3868.000000	102.201562
3867.000000	101.613786
3866.000000	102.005926
3865.000000	102.972892
3864.000000	103.657497
3863.000000	103.775823
3862.000000	103.687035
3861.000000	103.734883
3860.000000	103.786852
3859.000000	103.512193
3858.000000	102.756221
3857.000000	101.658890
3856.000000	100.656796
3855.000000	100.310077
3854.000000	100.736413
3853.000000	101.012074
3852.000000	100.201181
3851.000000	99.190479
3850.000000	99.531267
3849.000000	101.154489
3848.000000	102.896711
3847.000000	104.040649
3846.000000	104.572223
3845.000000	104.722914
3844.000000	104.590431
3843.000000	104.129365
3842.000000	103.379614
3841.000000	102.644708
3840.000000	102.268164
3839.000000	102.289838
3838.000000	102.378281
3837.000000	102.173106
3836.000000	101.738878
3835.000000	101.547243
3834.000000	101.977389
3833.000000	102.929561
3832.000000	103.913593
3831.000000	104.460399
3830.000000	104.530608
3829.000000	104.517504
3828.000000	104.751738
3827.000000	105.072287
3826.000000	104.955653
3825.000000	104.196337
3824.000000	103.313840
3823.000000	103.081553
3822.000000	103.613361
3821.000000	104.010038
3820.000000	103.307935
3819.000000	101.981735
3818.000000	101.547661
3817.000000	102.534872
3816.000000	103.926383
3815.000000	104.428980
3814.000000	103.987963
3813.000000	103.693068
3812.000000	104.106809
3811.000000	104.694996
3810.000000	104.927274
3809.000000	104.984460
3808.000000	105.217808
3807.000000	105.333331
3806.000000	104.628924
3805.000000	103.236479
3804.000000	102.310570
3803.000000	102.675713
3802.000000	103.831670
3801.000000	104.419155
3800.000000	103.740652
3799.000000	102.799766
3798.000000	102.981160
3797.000000	104.252198
3796.000000	105.552611
3795.000000	106.145759
3794.000000	106.212317
3793.000000	106.320159
3792.000000	106.663343
3791.000000	107.021532
3790.000000	107.185381
3789.000000	107.154775
3788.000000	107.051415
3787.000000	106.998529
3786.000000	107.040690
3785.000000	107.071616
3784.000000	106.903221
3783.000000	106.533016
3782.000000	106.249010
3781.000000	106.340663
3780.000000	106.732897
3779.000000	107.036932
3778.000000	106.986620
3777.000000	106.770381
3776.000000	106.727254
3775.000000	106.847575
3774.000000	106.838680
3773.000000	106.613733
3772.000000	106.435812
3771.000000	106.507253
3770.000000	106.597161
3769.000000	106.336947
3768.000000	105.850959
3767.000000	105.694400
3766.000000	106.066300
3765.000000	106.488446
3764.000000	106.440332
3763.000000	106.042547
3762.000000	105.829573
3761.000000	106.022489
3760.000000	106.325102
3759.000000	106.377658
3758.000000	106.078837
3757.000000	105.514747
3756.000000	104.792837
3755.000000	104.040838
3754.000000	103.410279
3753.000000	102.970595
3752.000000	102.703722
3751.000000	102.493887
3750.000000	102.042022
3749.000000	101.095526
3748.000000	99.969854
3747.000000	99.528693
3746.000000	100.430435
3745.000000	102.343901
3744.000000	103.748865
3743.000000	103.393063
3742.000000	102.277450
3741.000000	102.203148
3740.000000	103.139642
3739.000000	103.986891
3738.000000	104.306599
3737.000000	104.370278
3736.000000	104.379894
3735.000000	104.230500
3734.000000	104.055307
3733.000000	104.272856
3732.000000	104.873004
3731.000000	105.327683
3730.000000	105.424294
3729.000000	105.572821
3728.000000	106.124366
3727.000000	106.845720
3726.000000	107.232405
3725.000000	107.140416
3724.000000	106.944577
3723.000000	107.001538
3722.000000	107.248906
3721.000000	107.471647
3720.000000	107.628927
3719.000000	107.801249
3718.000000	107.920070
3717.000000	107.769452
3716.000000	107.286369
3715.000000	106.708595
3714.000000	106.357410
3713.000000	106.326911
3712.000000	106.420540
3711.000000	106.370617
3710.000000	106.167694
3709.000000	106.128050
3708.000000	106.462903
3707.000000	107.007516
3706.000000	107.468520
3705.000000	107.762753
3704.000000	108.027897
3703.000000	108.373739
3702.000000	108.699161
3701.000000	108.773126
3700.000000	108.551538
3699.000000	108.332222
3698.000000	108.421621
3697.000000	108.715552
3696.000000	108.820827
3695.000000	108.515686
3694.000000	107.935257
3693.000000	107.306948
3692.000000	106.732018
3691.000000	106.322206
3690.000000	106.242254
3689.000000	106.427878
3688.000000	106.464167
3687.000000	106.176068
3686.000000	106.052080
3685.000000	106.584716
3684.000000	107.563672
3683.000000	108.383432
3682.000000	108.699009
3681.000000	108.516363
3680.000000	107.882852
3679.000000	106.834513
3678.000000	105.789765
3677.000000	105.435047
3676.000000	105.812809
3675.000000	105.826111
3674.000000	104.648550
3673.000000	103.331829
3672.000000	103.380352
3671.000000	104.754889
3670.000000	106.239627
3669.000000	106.785086
3668.000000	106.551385
3667.000000	106.576199
3666.000000	107.310160
3665.000000	108.309082
3664.000000	109.061150
3663.000000	109.432047
3662.000000	109.481216
3661.000000	109.228932
3660.000000	108.735156
3659.000000	108.242484
3658.000000	108.079698
3657.000000	108.244595
3656.000000	108.213480
3655.000000	107.450855
3654.000000	106.176582
3653.000000	105.140106
3652.000000	104.734384
3651.000000	104.800181
3650.000000	104.983922
3649.000000	105.001723
3648.000000	104.836465
3647.000000	104.755098
3646.000000	105.001927
3645.000000	105.623065
3644.000000	106.495062
3643.000000	107.379272
3642.000000	107.999233
3641.000000	108.231367
3640.000000	108.196964
3639.000000	108.083707
3638.000000	107.931652
3637.000000	107.702773
3636.000000	107.474985
3635.000000	107.287386
3634.000000	106.898562
3633.000000	106.027424
3632.000000	104.881210
3631.000000	104.146775
3630.000000	104.294341
3629.000000	104.906206
3628.000000	104.941066
3627.000000	104.214695
3626.000000	103.777264
3625.000000	104.195597
3624.000000	104.872452
3623.000000	105.139604
3622.000000	104.979848
3621.000000	104.775237
3620.000000	104.731547
3619.000000	104.640177
3618.000000	104.219771
3617.000000	103.594798
3616.000000	103.208297
3615.000000	103.270930
3614.000000	103.542333
3613.000000	103.611145
3612.000000	103.319945
3611.000000	102.936979
3610.000000	102.843540
3609.000000	103.093676
3608.000000	103.375607
3607.000000	103.414256
3606.000000	103.283372
3605.000000	103.229123
3604.000000	103.328171
3603.000000	103.460010
3602.000000	103.509447
3601.000000	103.424951
3600.000000	103.186334
3599.000000	102.825718
3598.000000	102.474097
3597.000000	102.256803
3596.000000	102.199221
3595.000000	102.198394
3594.000000	102.086125
3593.000000	101.747594
3592.000000	101.227675
3591.000000	100.708046
3590.000000	100.386160
3589.000000	100.356821
3588.000000	100.495673
3587.000000	100.507764
3586.000000	100.255736
3585.000000	99.972162
3584.000000	99.940921
3583.000000	100.140767
3582.000000	100.363480
3581.000000	100.463566
3580.000000	100.426844
3579.000000	100.298978
3578.000000	100.137503
3577.000000	99.987887
3576.000000	99.869555
3575.000000	99.767654
3574.000000	99.629144
3573.000000	99.385469
3572.000000	98.992425
3571.000000	98.491110
3570.000000	98.033497
3569.000000	97.805742
3568.000000	97.846123
3567.000000	97.948195
3566.000000	97.872109
3565.000000	97.666869
3564.000000	97.600846
3563.000000	97.792973
3562.000000	98.120661
3561.000000	98.416719
3560.000000	98.603897
3559.000000	98.685674
3558.000000	98.690765
3557.000000	98.647589
3556.000000	98.582425
3555.000000	98.533142
3554.000000	98.534488
3553.000000	98.568274
3552.000000	98.546808
3551.000000	98.399512
3550.000000	98.179082
3549.000000	98.025756
3548.000000	98.019830
3547.000000	98.115164
3546.000000	98.208612
3545.000000	98.245580
3544.000000	98.251808
3543.000000	98.280533
3542.000000	98.347665
3541.000000	98.425672
3540.000000	98.479833
3539.000000	98.503411
3538.000000	98.518662
3537.000000	98.538717
3536.000000	98.541045
3535.000000	98.489532
3534.000000	98.390109
3533.000000	98.285420
3532.000000	98.201125
3531.000000	98.121947
3530.000000	98.027858
3529.000000	97.918123
3528.000000	97.791196
3527.000000	97.642341
3526.000000	97.502597
3525.000000	97.437358
3524.000000	97.464996
3523.000000	97.512980
3522.000000	97.494676
3521.000000	97.411483
3520.000000	97.333902
3519.000000	97.294168
3518.000000	97.249405
3517.000000	97.150023
3516.000000	97.001211
3515.000000	96.831398
3514.000000	96.643271
3513.000000	96.429431
3512.000000	96.213210
3511.000000	96.027343
3510.000000	95.861355
3509.000000	95.660901
3508.000000	95.389449
3507.000000	95.076964
3506.000000	94.794579
3505.000000	94.585140
3504.000000	94.425803
3503.000000	94.255525
3502.000000	94.037470
3501.000000	93.794653
3500.000000	93.578074
3499.000000	93.411326
3498.000000	93.278093
3497.000000	93.147329
3496.000000	92.997416
3495.000000	92.825451
3494.000000	92.645500
3493.000000	92.476734
3492.000000	92.327422
3491.000000	92.191978
3490.000000	92.066373
3489.000000	91.956339
3488.000000	91.861194
3487.000000	91.763520
3486.000000	91.654766
3485.000000	91.559729
3484.000000	91.513722
3483.000000	91.519001
3482.000000	91.542995
3481.000000	91.558658
3480.000000	91.572080
3479.000000	91.607014
3478.000000	91.675943
3477.000000	91.772741
3476.000000	91.879690
3475.000000	91.976094
3474.000000	92.050362
3473.000000	92.109599
3472.000000	92.171013
3471.000000	92.243663
3470.000000	92.326918
3469.000000	92.423670
3468.000000	92.537399
3467.000000	92.656565
3466.000000	92.761695
3465.000000	92.852344
3464.000000	92.948263
3463.000000	93.058673
3462.000000	93.170343
3461.000000	93.272038
3460.000000	93.373990
3459.000000	93.492645
3458.000000	93.627753
3457.000000	93.764659
3456.000000	93.892008
3455.000000	94.007858
3454.000000	94.117036
3453.000000	94.220140
3452.000000	94.304770
3451.000000	94.358835
3450.000000	94.400787
3449.000000	94.474370
3448.000000	94.593999
3447.000000	94.715347
3446.000000	94.791297
3445.000000	94.845582
3444.000000	94.946182
3443.000000	95.110962
3442.000000	95.284198
3441.000000	95.411653
3440.000000	95.500618
3439.000000	95.591578
3438.000000	95.701107
3437.000000	95.816239
3436.000000	95.926554
3435.000000	96.033573
3434.000000	96.138951
3433.000000	96.238899
3432.000000	96.331095
3431.000000	96.419025
3430.000000	96.509716
3429.000000	96.608819
3428.000000	96.715053
3427.000000	96.819368
3426.000000	96.910051
3425.000000	96.983393
3424.000000	97.049768
3423.000000	97.127189
3422.000000	97.225648
3421.000000	97.337668
3420.000000	97.447473
3419.000000	97.549515
3418.000000	97.654529
3417.000000	97.774476
3416.000000	97.906686
3415.000000	98.037703
3414.000000	98.158860
3413.000000	98.272376
3412.000000	98.383469
3411.000000	98.493909
3410.000000	98.604548
3409.000000	98.717666
3408.000000	98.832839
3407.000000	98.944997
3406.000000	99.049077
3405.000000	99.144906
3404.000000	99.237058
3403.000000	99.330567
3402.000000	99.429379
3401.000000	99.538607
3400.000000	99.664961
3399.000000	99.807449
3398.000000	99.948186
3397.000000	100.062672
3396.000000	100.146190
3395.000000	100.224098
3394.000000	100.327618
3393.000000	100.463127
3392.000000	100.611144
3391.000000	100.752820
3390.000000	100.887520
3389.000000	101.022656
3388.000000	101.157984
3387.000000	101.287952
3386.000000	101.412035
3385.000000	101.533729
3384.000000	101.653977
3383.000000	101.772625
3382.000000	101.894836
3381.000000	102.027865
3380.000000	102.171340
3379.000000	102.316114
3378.000000	102.454729
3377.000000	102.589151
3376.000000	102.724746
3375.000000	102.859994
3374.000000	102.986715
3373.000000	103.100861
3372.000000	103.208261
3371.000000	103.319250
3370.000000	103.441221
3369.000000	103.577667
3368.000000	103.728709
3367.000000	103.888847
3366.000000	104.048210
3365.000000	104.200155
3364.000000	104.347368
3363.000000	104.498562
3362.000000	104.659735
3361.000000	104.829423
3360.000000	105.001872
3359.000000	105.173848
3358.000000	105.347629
3357.000000	105.526000
3356.000000	105.705109
3355.000000	105.876288
3354.000000	106.036734
3353.000000	106.195601
3352.000000	106.366069
3351.000000	106.552632
3350.000000	106.748065
3349.000000	106.941633
3348.000000	107.126454
3347.000000	107.300037
3346.000000	107.463998
3345.000000	107.624184
3344.000000	107.786951
3343.000000	107.951581
3342.000000	108.109029
3341.000000	108.251536
3340.000000	108.382961
3339.000000	108.515967
3338.000000	108.657937
3337.000000	108.802463
3336.000000	108.934801
3335.000000	109.044816
3334.000000	109.133486
3333.000000	109.206320
3332.000000	109.263038
3331.000000	109.294723
3330.000000	109.291069
3329.000000	109.248746
3328.000000	109.170567
3327.000000	109.060368
3326.000000	108.918923
3325.000000	108.742054
3324.000000	108.522107
3323.000000	108.248499
3322.000000	107.911890
3321.000000	107.506710
3320.000000	107.027616
3319.000000	106.465246
3318.000000	105.802509
3317.000000	105.021347
3316.000000	104.107219
3315.000000	103.043586
3314.000000	101.810615
3313.000000	100.388209
3312.000000	98.768998
3311.000000	96.965455
3310.000000	94.999767
3309.000000	92.898355
3308.000000	90.689562
3307.000000	88.409051
3306.000000	86.102282
3305.000000	83.812044
3304.000000	81.569445
3303.000000	79.397334
3302.000000	77.324041
3301.000000	75.389232
3300.000000	73.635060
3299.000000	72.092500
3298.000000	70.782281
3297.000000	69.718062
3296.000000	68.895123
3295.000000	68.284916
3294.000000	67.834578
3293.000000	67.476942
3292.000000	67.142865
3291.000000	66.770511
3290.000000	66.324515
3289.000000	65.801990
3288.000000	65.221500
3287.000000	64.609089
3286.000000	63.990287
3285.000000	63.384169
3284.000000	62.792896
3283.000000	62.198308
3282.000000	61.573551
3281.000000	60.898993
3280.000000	60.166215
3279.000000	59.376976
3278.000000	58.548012
3277.000000	57.714371
3276.000000	56.919086
3275.000000	56.198411
3274.000000	55.578495
3273.000000	55.080910
3272.000000	54.725392
3271.000000	54.523274
3270.000000	54.479217
3269.000000	54.595496
3268.000000	54.870204
3267.000000	55.299112
3266.000000	55.871591
3265.000000	56.566702
3264.000000	57.345724
3263.000000	58.149101
3262.000000	58.906331
3261.000000	59.545549
3260.000000	59.995560
3259.000000	60.189395
3258.000000	60.078698
3257.000000	59.635708
3256.000000	58.850836
3255.000000	57.718454
3254.000000	56.234445
3253.000000	54.415588
3252.000000	52.297711
3251.000000	49.939838
3250.000000	47.426238
3249.000000	44.865523
3248.000000	42.383418
3247.000000	40.101102
3246.000000	38.122682
3245.000000	36.535832
3244.000000	35.415590
3243.000000	34.810348
3242.000000	34.732692
3241.000000	35.135239
3240.000000	35.896569
3239.000000	36.852610
3238.000000	37.839962
3237.000000	38.740941
3236.000000	39.492963
3235.000000	40.078047
3234.000000	40.513378
3233.000000	40.830453
3232.000000	41.053809
3231.000000	41.197171
3230.000000	41.280598
3229.000000	41.339507
3228.000000	41.414849
3227.000000	41.541275
3226.000000	41.748840
3225.000000	42.065796
3224.000000	42.509059
3223.000000	43.075069
3222.000000	43.745868
3221.000000	44.496484
3220.000000	45.289883
3219.000000	46.075436
3218.000000	46.802811
3217.000000	47.438113
3216.000000	47.962879
3215.000000	48.365928
3214.000000	48.645986
3213.000000	48.822541
3212.000000	48.932001
3211.000000	49.011685
3210.000000	49.092334
3209.000000	49.198485
3208.000000	49.350132
3207.000000	49.561133
3206.000000	49.839373
3205.000000	50.186942
3204.000000	50.598853
3203.000000	51.064245
3202.000000	51.572124
3201.000000	52.115191
3200.000000	52.684704
3199.000000	53.267861
3198.000000	53.851552
3197.000000	54.426414
3196.000000	54.985496
3195.000000	55.521960
3194.000000	56.030429
3193.000000	56.506340
3192.000000	56.942350
3191.000000	57.328047
3190.000000	57.658267
3189.000000	57.936903
3188.000000	58.171909
3187.000000	58.370816
3186.000000	58.540335
3185.000000	58.687852
3184.000000	58.817246
3183.000000	58.927669
3182.000000	59.020184
3181.000000	59.100224
3180.000000	59.171948
3179.000000	59.233945
3178.000000	59.285906
3177.000000	59.336481
3176.000000	59.400812
3175.000000	59.493027
3174.000000	59.623421
3173.000000	59.799242
3172.000000	60.024204
3171.000000	60.302924
3170.000000	60.645649
3169.000000	61.066070
3168.000000	61.573108
3167.000000	62.164222
3166.000000	62.831464
3165.000000	63.566019
3164.000000	64.356890
3163.000000	65.192314
3162.000000	66.062773
3161.000000	66.960488
3160.000000	67.869922
3159.000000	68.764710
3158.000000	69.614678
3157.000000	70.390781
3156.000000	71.061547
3155.000000	71.592981
3154.000000	71.957252
3153.000000	72.136414
3152.000000	72.126053
3151.000000	71.938866
3150.000000	71.611847
3149.000000	71.203477
3148.000000	70.768500
3147.000000	70.338514
3146.000000	69.915947
3145.000000	69.477938
3144.000000	68.984235
3143.000000	68.386716
3142.000000	67.650405
3141.000000	66.765473
3140.000000	65.742143
3139.000000	64.603075
3138.000000	63.379509
3137.000000	62.114002
3136.000000	60.855304
3135.000000	59.649937
3134.000000	58.540066
3133.000000	57.563044
3132.000000	56.746891
3131.000000	56.108744
3130.000000	55.661189
3129.000000	55.408283
3128.000000	55.339368
3127.000000	55.429128
3126.000000	55.652305
3125.000000	55.995167
3124.000000	56.441257
3123.000000	56.965779
3122.000000	57.544914
3121.000000	58.164735
3120.000000	58.817333
3119.000000	59.490039
3118.000000	60.168462
3117.000000	60.841459
3116.000000	61.497797
3115.000000	62.120956
3114.000000	62.693092
3113.000000	63.200454
3112.000000	63.631131
3111.000000	63.974377
3110.000000	64.223327
3109.000000	64.377570
3108.000000	64.434795
3107.000000	64.386880
3106.000000	64.231530
3105.000000	63.978469
3104.000000	63.646076
3103.000000	63.255659
3102.000000	62.834579
3101.000000	62.417917
3100.000000	62.041265
3099.000000	61.736231
3098.000000	61.530695
3097.000000	61.445865
3096.000000	61.485854
3095.000000	61.639147
3094.000000	61.890699
3093.000000	62.228762
3092.000000	62.639119
3091.000000	63.098147
3090.000000	63.580993
3089.000000	64.068160
3088.000000	64.543687
3087.000000	64.995013
3086.000000	65.417778
3085.000000	65.816223
3084.000000	66.193755
3083.000000	66.549126
3082.000000	66.884130
3081.000000	67.208953
3080.000000	67.535694
3079.000000	67.871164
3078.000000	68.218335
3077.000000	68.579170
3076.000000	68.952671
3075.000000	69.334408
3074.000000	69.722025
3073.000000	70.116513
3072.000000	70.516124
3071.000000	70.915029
3070.000000	71.310933
3069.000000	71.708244
3068.000000	72.110812
3067.000000	72.516103
3066.000000	72.918478
3065.000000	73.313987
3064.000000	73.699940
3063.000000	74.074366
3062.000000	74.436535
3061.000000	74.785399
3060.000000	75.118139
3059.000000	75.434225
3058.000000	75.740009
3057.000000	76.043204
3056.000000	76.343900
3055.000000	76.635779
3054.000000	76.916436
3053.000000	77.190886
3052.000000	77.463485
3051.000000	77.732698
3050.000000	77.993877
3049.000000	78.242111
3048.000000	78.473186
3047.000000	78.686470
3046.000000	78.887876
3045.000000	79.085396
3044.000000	79.281571
3043.000000	79.474812
3042.000000	79.666300
3041.000000	79.860049
3040.000000	80.055522
3039.000000	80.246819
3038.000000	80.431434
3037.000000	80.613727
3036.000000	80.798496
3035.000000	80.986895
3034.000000	81.180122
3033.000000	81.380909
3032.000000	81.587885
3031.000000	81.793636
3030.000000	81.993321
3029.000000	82.191219
3028.000000	82.394092
3027.000000	82.601881
3026.000000	82.810252
3025.000000	83.018758
3024.000000	83.230686
3023.000000	83.446803
3022.000000	83.663969
3021.000000	83.879257
3020.000000	84.092051
3019.000000	84.302615
3018.000000	84.510505
3017.000000	84.714099
3016.000000	84.911386
3015.000000	85.102316
3014.000000	85.290109
3013.000000	85.478625
3012.000000	85.668301
3011.000000	85.855329
3010.000000	86.034827
3009.000000	86.202620
3008.000000	86.353957
3007.000000	86.482348
3006.000000	86.577534
3005.000000	86.622397
3004.000000	86.587792
3003.000000	86.434445
3002.000000	86.128069
3001.000000	85.660042
3000.000000	85.062204
2999.000000	84.398195
2998.000000	83.736767
2997.000000	83.130608
2996.000000	82.622620
2995.000000	82.265896
2994.000000	82.119022
2993.000000	82.209600
2992.000000	82.500657
2991.000000	82.904320
2990.000000	83.327843
2989.000000	83.708476
2988.000000	84.016979
2987.000000	84.245078
2986.000000	84.395225
2985.000000	84.470843
2984.000000	84.470444
2983.000000	84.393748
2982.000000	84.258815
2981.000000	84.108592
2980.000000	83.994293
2979.000000	83.948703
2978.000000	83.975521
2977.000000	84.061793
2976.000000	84.199933
2975.000000	84.400083
2974.000000	84.681151
2973.000000	85.048567
2972.000000	85.478879
2971.000000	85.927319
2970.000000	86.347002
2969.000000	86.702922
2968.000000	86.972328
2967.000000	87.141109
2966.000000	87.200208
2965.000000	87.137736
2964.000000	86.930120
2963.000000	86.534695
2962.000000	85.901248
2961.000000	85.001400
2960.000000	83.863137
2959.000000	82.579061
2958.000000	81.271091
2957.000000	80.042861
2956.000000	78.962529
2955.000000	78.091408
2954.000000	77.501308
2953.000000	77.241091
2952.000000	77.281645
2951.000000	77.512672
2950.000000	77.806851
2949.000000	78.085148
2948.000000	78.336530
2947.000000	78.592720
2946.000000	78.893754
2945.000000	79.257871
2944.000000	79.665676
2943.000000	80.072887
2942.000000	80.442807
2941.000000	80.772816
2940.000000	81.093733
2939.000000	81.450362
2938.000000	81.880985
2937.000000	82.402978
2936.000000	83.007370
2935.000000	83.665925
2934.000000	84.345533
2933.000000	85.017814
2932.000000	85.661050
2931.000000	86.262296
2930.000000	86.819095
2929.000000	87.334673
2928.000000	87.810766
2927.000000	88.247941
2926.000000	88.651615
2925.000000	89.030426
2924.000000	89.388076
2923.000000	89.721077
2922.000000	90.024908
2921.000000	90.297735
2920.000000	90.537871
2919.000000	90.743800
2918.000000	90.917242
2917.000000	91.062609
2916.000000	91.183220
2915.000000	91.281305
2914.000000	91.361405
2913.000000	91.428774
2912.000000	91.484807
2911.000000	91.528496
2910.000000	91.562015
2909.000000	91.590716
2908.000000	91.618263
2907.000000	91.645959
2906.000000	91.676414
2905.000000	91.712791
2904.000000	91.754770
2903.000000	91.797329
2902.000000	91.836139
2901.000000	91.870442
2900.000000	91.898007
2899.000000	91.915338
2898.000000	91.921142
2897.000000	91.916434
2896.000000	91.900096
2895.000000	91.868851
2894.000000	91.822425
2893.000000	91.764888
2892.000000	91.699710
2891.000000	91.627059
2890.000000	91.546393
2889.000000	91.458269
2888.000000	91.362879
2887.000000	91.260674
2886.000000	91.155471
2885.000000	91.053648
2884.000000	90.959808
2883.000000	90.875885
2882.000000	90.804416
2881.000000	90.748805
2880.000000	90.709474
2879.000000	90.683081
2878.000000	90.665859
2877.000000	90.655278
2876.000000	90.649721
2875.000000	90.650712
2874.000000	90.664894
2873.000000	90.698737
2872.000000	90.750440
2871.000000	90.811289
2870.000000	90.876150
2869.000000	90.949883
2868.000000	91.044120
2867.000000	91.171250
2866.000000	91.339902
2865.000000	91.549433
2864.000000	91.786648
2863.000000	92.032427
2862.000000	92.273023
2861.000000	92.502746
2860.000000	92.718047
2859.000000	92.915068
2858.000000	93.094337
2857.000000	93.262861
2856.000000	93.429343
2855.000000	93.600171
2854.000000	93.779304
2853.000000	93.966979
2852.000000	94.157170
2851.000000	94.340296
2850.000000	94.509967
2849.000000	94.664689
2848.000000	94.803816
2847.000000	94.926407
2846.000000	95.034812
2845.000000	95.135029
2844.000000	95.231769
2843.000000	95.325901
2842.000000	95.418010
2841.000000	95.511755
2840.000000	95.611835
2839.000000	95.720239
2838.000000	95.835110
2837.000000	95.952032
2836.000000	96.066674
2835.000000	96.177891
2834.000000	96.288245
2833.000000	96.400231
2832.000000	96.512942
2831.000000	96.623901
2830.000000	96.732492
2829.000000	96.839126
2828.000000	96.942428
2827.000000	97.040428
2826.000000	97.133743
2825.000000	97.224613
2824.000000	97.313415
2823.000000	97.398715
2822.000000	97.480154
2821.000000	97.558426
2820.000000	97.632916
2819.000000	97.702260
2818.000000	97.766865
2817.000000	97.828277
2816.000000	97.886443
2815.000000	97.940094
2814.000000	97.989506
2813.000000	98.036601
2812.000000	98.082815
2811.000000	98.129180
2810.000000	98.177648
2809.000000	98.229696
2808.000000	98.284137
2807.000000	98.338690
2806.000000	98.393071
2805.000000	98.448218
2804.000000	98.503313
2803.000000	98.556351
2802.000000	98.607226
2801.000000	98.657891
2800.000000	98.710064
2799.000000	98.764763
2798.000000	98.823031
2797.000000	98.884616
2796.000000	98.946767
2795.000000	99.006709
2794.000000	99.064413
2793.000000	99.120913
2792.000000	99.175540
2791.000000	99.227517
2790.000000	99.278695
2789.000000	99.331386
2788.000000	99.384600
2787.000000	99.435739
2786.000000	99.485221
2785.000000	99.536136
2784.000000	99.589790
2783.000000	99.644667
2782.000000	99.699332
2781.000000	99.753167
2780.000000	99.804373
2779.000000	99.850440
2778.000000	99.891150
2777.000000	99.928993
2776.000000	99.966523
2775.000000	100.004868
2774.000000	100.044224
2773.000000	100.083763
2772.000000	100.121514
2771.000000	100.156265
2770.000000	100.188857
2769.000000	100.219873
2768.000000	100.247295
2767.000000	100.268541
2766.000000	100.283837
2765.000000	100.295477
2764.000000	100.304969
2763.000000	100.313298
2762.000000	100.322610
2761.000000	100.334916
2760.000000	100.350003
2759.000000	100.366948
2758.000000	100.386638
2757.000000	100.410213
2756.000000	100.436008
2755.000000	100.460662
2754.000000	100.482497
2753.000000	100.501453
2752.000000	100.516793
2751.000000	100.527729
2750.000000	100.535659
2749.000000	100.543214
2748.000000	100.551549
2747.000000	100.560683
2746.000000	100.571625
2745.000000	100.585873
2744.000000	100.603511
2743.000000	100.623821
2742.000000	100.646932
2741.000000	100.672957
2740.000000	100.700753
2739.000000	100.729859
2738.000000	100.762257
2737.000000	100.800040
2736.000000	100.842678
2735.000000	100.888809
2734.000000	100.939344
2733.000000	100.995815
2732.000000	101.056739
2731.000000	101.118317
2730.000000	101.177907
2729.000000	101.234720
2728.000000	101.288153
2727.000000	101.337623
2726.000000	101.383031
2725.000000	101.423481
2724.000000	101.456722
2723.000000	101.482011
2722.000000	101.501997
2721.000000	101.519678
2720.000000	101.535466
2719.000000	101.549476
2718.000000	101.564742
2717.000000	101.585244
2716.000000	101.611993
2715.000000	101.643765
2714.000000	101.680242
2713.000000	101.721461
2712.000000	101.765292
2711.000000	101.808299
2710.000000	101.848181
2709.000000	101.883145
2708.000000	101.910474
2707.000000	101.928500
2706.000000	101.938995
2705.000000	101.945402
2704.000000	101.949816
2703.000000	101.953785
2702.000000	101.960443
2701.000000	101.972927
2700.000000	101.991767
2699.000000	102.016071
2698.000000	102.045745
2697.000000	102.080091
2696.000000	102.116007
2695.000000	102.150354
2694.000000	102.182990
2693.000000	102.215206
2692.000000	102.246599
2691.000000	102.275935
2690.000000	102.303413
2689.000000	102.329344
2688.000000	102.352148
2687.000000	102.370377
2686.000000	102.385129
2685.000000	102.397924
2684.000000	102.407899
2683.000000	102.413907
2682.000000	102.417946
2681.000000	102.423444
2680.000000	102.431486
2679.000000	102.441541
2678.000000	102.454441
2677.000000	102.471543
2676.000000	102.492269
2675.000000	102.515345
2674.000000	102.541404
2673.000000	102.571772
2672.000000	102.605771
2671.000000	102.642134
2670.000000	102.681816
2669.000000	102.726362
2668.000000	102.774721
2667.000000	102.824236
2666.000000	102.873821
2665.000000	102.923660
2664.000000	102.972947
2663.000000	103.020721
2662.000000	103.067708
2661.000000	103.114817
2660.000000	103.161019
2659.000000	103.205136
2658.000000	103.248239
2657.000000	103.291700
2656.000000	103.334121
2655.000000	103.372816
2654.000000	103.407136
2653.000000	103.437451
2652.000000	103.462387
2651.000000	103.479915
2650.000000	103.490380
2649.000000	103.496319
2648.000000	103.500118
2647.000000	103.504062
2646.000000	103.511282
2645.000000	103.523930
2644.000000	103.541406
2643.000000	103.562470
2642.000000	103.587638
2641.000000	103.617347
2640.000000	103.649505
2639.000000	103.681419
2638.000000	103.712921
2637.000000	103.745097
2636.000000	103.777370
2635.000000	103.808417
2634.000000	103.838492
2633.000000	103.868304
2632.000000	103.896992
2631.000000	103.923815
2630.000000	103.950652
2629.000000	103.980302
2628.000000	104.013604
2627.000000	104.050373
2626.000000	104.091444
2625.000000	104.137025
2624.000000	104.184263
2623.000000	104.229203
2622.000000	104.270205
2621.000000	104.307289
2620.000000	104.339465
2619.000000	104.365363
2618.000000	104.385215
2617.000000	104.399819
2616.000000	104.408857
2615.000000	104.412183
2614.000000	104.411618
2613.000000	104.409105
2612.000000	104.404135
2611.000000	104.395602
2610.000000	104.384737
2609.000000	104.374067
2608.000000	104.364585
2607.000000	104.356055
2606.000000	104.348996
2605.000000	104.344259
2604.000000	104.341821
2603.000000	104.341971
2602.000000	104.346453
2601.000000	104.356263
2600.000000	104.369718
2599.000000	104.384477
2598.000000	104.399898
2597.000000	104.415712
2596.000000	104.430191
2595.000000	104.441932
2594.000000	104.451851
2593.000000	104.461270
2592.000000	104.469703
2591.000000	104.476522
2590.000000	104.482863
2589.000000	104.489655
2588.000000	104.495680
2587.000000	104.499907
2586.000000	104.503943
2585.000000	104.509786
2584.000000	104.516929
2583.000000	104.524148
2582.000000	104.532455
2581.000000	104.543757
2580.000000	104.558337
2579.000000	104.576135
2578.000000	104.598591
2577.000000	104.626623
2576.000000	104.658117
2575.000000	104.690025
2574.000000	104.721829
2573.000000	104.754538
2572.000000	104.787990
2571.000000	104.821281
2570.000000	104.854371
2569.000000	104.887104
2568.000000	104.918138
2567.000000	104.947088
2566.000000	104.976207
2565.000000	105.007863
2564.000000	105.042026
2563.000000	105.078130
2562.000000	105.117509
2561.000000	105.161614
2560.000000	105.209476
2559.000000	105.259321
2558.000000	105.310850
2557.000000	105.363875
2556.000000	105.416426
2555.000000	105.466407
2554.000000	105.513605
2553.000000	105.558136
2552.000000	105.598752
2551.000000	105.634693
2550.000000	105.667369
2549.000000	105.697875
2548.000000	105.724957
2547.000000	105.747417
2546.000000	105.766621
2545.000000	105.784612
2544.000000	105.801468
2543.000000	105.816906
2542.000000	105.832613
2541.000000	105.850542
2540.000000	105.870477
2539.000000	105.891239
2538.000000	105.912712
2537.000000	105.934842
2536.000000	105.956460
2535.000000	105.977137
2534.000000	105.998576
2533.000000	106.022360
2532.000000	106.048094
2531.000000	106.075436
2530.000000	106.105713
2529.000000	106.139490
2528.000000	106.174348
2527.000000	106.206909
2526.000000	106.235232
2525.000000	106.257958
2524.000000	106.273435
2523.000000	106.281599
2522.000000	106.284643
2521.000000	106.283693
2520.000000	106.277336
2519.000000	106.264535
2518.000000	106.246395
2517.000000	106.223599
2516.000000	106.194553
2515.000000	106.158802
2514.000000	106.119465
2513.000000	106.080090
2512.000000	106.041767
2511.000000	106.005248
2510.000000	105.973202
2509.000000	105.947687
2508.000000	105.927738
2507.000000	105.911831
2506.000000	105.900441
2505.000000	105.893517
2504.000000	105.888122
2503.000000	105.881657
2502.000000	105.874988
2501.000000	105.870123
2500.000000	105.867023
2499.000000	105.865508
2498.000000	105.868122
2497.000000	105.877634
2496.000000	105.893766
2495.000000	105.914849
2494.000000	105.940717
2493.000000	105.971521
2492.000000	106.005385
2491.000000	106.040420
2490.000000	106.077155
2489.000000	106.116484
2488.000000	106.157292
2487.000000	106.198332
2486.000000	106.240766
2485.000000	106.286332
2484.000000	106.334629
2483.000000	106.384463
2482.000000	106.435624
2481.000000	106.487327
2480.000000	106.537172
2479.000000	106.584023
2478.000000	106.629788
2477.000000	106.676036
2476.000000	106.720994
2475.000000	106.762005
2474.000000	106.798810
2473.000000	106.831971
2472.000000	106.860698
2471.000000	106.884605
2470.000000	106.905430
2469.000000	106.924802
2468.000000	106.941995
2467.000000	106.956169
2466.000000	106.968454
2465.000000	106.979532
2464.000000	106.987762
2463.000000	106.991829
2462.000000	106.993231
2461.000000	106.993871
2460.000000	106.993324
2459.000000	106.990958
2458.000000	106.988297
2457.000000	106.987053
2456.000000	106.986967
2455.000000	106.987869
2454.000000	106.991549
2453.000000	106.999344
2452.000000	107.010182
2451.000000	107.023253
2450.000000	107.040410
2449.000000	107.063187
2448.000000	107.089925
2447.000000	107.118150
2446.000000	107.147554
2445.000000	107.178445
2444.000000	107.209447
2443.000000	107.239360
2442.000000	107.269099
2441.000000	107.299465
2440.000000	107.329227
2439.000000	107.357453
2438.000000	107.385299
2437.000000	107.413287
2436.000000	107.439459
2435.000000	107.462596
2434.000000	107.484770
2433.000000	107.508070
2432.000000	107.531074
2431.000000	107.551212
2430.000000	107.568213
2429.000000	107.582856
2428.000000	107.594531
2427.000000	107.602527
2426.000000	107.607916
2425.000000	107.611706
2424.000000	107.613415
2423.000000	107.613473
2422.000000	107.614552
2421.000000	107.618270
2420.000000	107.622832
2419.000000	107.626313
2418.000000	107.629883
2417.000000	107.635573
2416.000000	107.643364
2415.000000	107.653010
2414.000000	107.666062
2413.000000	107.683191
2412.000000	107.701747
2411.000000	107.718565
2410.000000	107.733061
2409.000000	107.745131
2408.000000	107.752587
2407.000000	107.753436
2406.000000	107.748837
2405.000000	107.741017
2404.000000	107.730090
2403.000000	107.715482
2402.000000	107.697867
2401.000000	107.677528
2400.000000	107.652418
2399.000000	107.620095
2398.000000	107.579650
2397.000000	107.528293
2396.000000	107.460033
2395.000000	107.370085
2394.000000	107.258395
2393.000000	107.127835
2392.000000	106.979674
2391.000000	106.815152
2390.000000	106.638726
2389.000000	106.455839
2388.000000	106.269930
2387.000000	106.083836
2386.000000	105.903222
2385.000000	105.736173
2384.000000	105.590970
2383.000000	105.478063
2382.000000	105.412340
2381.000000	105.405239
2380.000000	105.455298
2379.000000	105.553550
2378.000000	105.685801
2377.000000	105.834069
2376.000000	105.971620
2375.000000	106.070443
2374.000000	106.125645
2373.000000	106.148108
2372.000000	106.139185
2371.000000	106.100803
2370.000000	106.061707
2369.000000	106.045133
2368.000000	106.026715
2367.000000	106.005147
2366.000000	106.016258
2365.000000	106.033757
2364.000000	106.048654
2363.000000	106.059275
2362.000000	106.063303
2361.000000	106.116037
2360.000000	106.172382
2359.000000	106.203690
2358.000000	106.194988
2357.000000	106.092617
2356.000000	105.914973
2355.000000	105.797383
2354.000000	106.091865
2353.000000	106.841094
2352.000000	107.641758
2351.000000	108.016859
2350.000000	107.737585
2349.000000	107.126104
2348.000000	106.586615
2347.000000	106.348079
2346.000000	106.329315
2345.000000	106.302288
2344.000000	106.296074
2343.000000	106.295239
2342.000000	106.326377
2341.000000	106.352233
2340.000000	106.363924
2339.000000	106.371465
2338.000000	106.395403
2337.000000	106.423313
2336.000000	106.417841
2335.000000	106.347245
2334.000000	106.273820
2333.000000	106.262798
2332.000000	106.292631
2331.000000	106.430182
2330.000000	106.560027
2329.000000	106.701744
2328.000000	106.729488
2327.000000	106.688200
2326.000000	106.625470
2325.000000	106.563674
2324.000000	106.531345
2323.000000	106.482620
2322.000000	106.454359
2321.000000	106.431143
2320.000000	106.405515
2319.000000	106.342526
2318.000000	106.208995
2317.000000	106.029557
2316.000000	105.806912
2315.000000	105.601003
2314.000000	105.396585
2313.000000	105.229106
2312.000000	105.057977
2311.000000	104.913997
2310.000000	104.772911
2309.000000	104.663790
2308.000000	104.561552
2307.000000	104.479780
2306.000000	104.402710
2305.000000	104.340541
2304.000000	104.278778
2303.000000	104.233560
2302.000000	104.195094
2301.000000	104.177674
2300.000000	104.160727
2299.000000	104.156424
2298.000000	104.147474
2297.000000	104.144907
2296.000000	104.128598
2295.000000	104.104178
2294.000000	104.064989
2293.000000	104.020734
2292.000000	103.971837
2291.000000	103.926641
2290.000000	103.892910
2289.000000	103.873409
2288.000000	103.865057
2287.000000	103.858361
2286.000000	103.847042
2285.000000	103.820826
2284.000000	103.779511
2283.000000	103.729528
2282.000000	103.688314
2281.000000	103.665510
2280.000000	103.667326
2279.000000	103.695149
2278.000000	103.750165
2277.000000	103.829873
2276.000000	103.925064
2275.000000	104.032680
2274.000000	104.152388
2273.000000	104.284474
2272.000000	104.422418
2271.000000	104.560514
2270.000000	104.697187
2269.000000	104.831154
2268.000000	104.958457
2267.000000	105.080057
2266.000000	105.199021
2265.000000	105.318969
2264.000000	105.437739
2263.000000	105.553685
2262.000000	105.669666
2261.000000	105.783445
2260.000000	105.892425
2259.000000	105.994163
2258.000000	106.094068
2257.000000	106.195767
2256.000000	106.300178
2255.000000	106.410479
2254.000000	106.531357
2253.000000	106.665939
2252.000000	106.809441
2251.000000	106.958908
2250.000000	107.112468
2249.000000	107.267144
2248.000000	107.415985
2247.000000	107.555740
2246.000000	107.687889
2245.000000	107.813679
2244.000000	107.931208
2243.000000	108.040860
2242.000000	108.146605
2241.000000	108.249831
2240.000000	108.347462
2239.000000	108.437369
2238.000000	108.521104
2237.000000	108.598037
2236.000000	108.664135
2235.000000	108.717231
2234.000000	108.759789
2233.000000	108.793840
2232.000000	108.819313
2231.000000	108.838577
2230.000000	108.856977
2229.000000	108.876893
2228.000000	108.896041
2227.000000	108.913101
2226.000000	108.929183
2225.000000	108.942945
2224.000000	108.949654
2223.000000	108.947800
2222.000000	108.940669
2221.000000	108.930911
2220.000000	108.918403
2219.000000	108.905154
2218.000000	108.895901
2217.000000	108.892189
2216.000000	108.891097
2215.000000	108.891079
2214.000000	108.893609
2213.000000	108.897985
2212.000000	108.900841
2211.000000	108.902301
2210.000000	108.906835
2209.000000	108.916642
2208.000000	108.929816
2207.000000	108.945936
2206.000000	108.966804
2205.000000	108.990125
2204.000000	109.008756
2203.000000	109.018145
2202.000000	109.019234
2201.000000	109.013982
2200.000000	109.005402
2199.000000	109.003470
2198.000000	109.022872
2197.000000	109.071279
2196.000000	109.144451
2195.000000	109.233724
2194.000000	109.331666
2193.000000	109.429466
2192.000000	109.517312
2191.000000	109.590797
2190.000000	109.651612
2189.000000	109.700185
2188.000000	109.733832
2187.000000	109.753655
2186.000000	109.766077
2185.000000	109.775790
2184.000000	109.783147
2183.000000	109.789845
2182.000000	109.799940
2181.000000	109.813317
2180.000000	109.824875
2179.000000	109.831994
2178.000000	109.836627
2177.000000	109.838693
2176.000000	109.834924
2175.000000	109.826095
2174.000000	109.818460
2173.000000	109.815951
2172.000000	109.817578
2171.000000	109.824043
2170.000000	109.839400
2169.000000	109.864044
2168.000000	109.893018
2167.000000	109.923527
2166.000000	109.957218
2165.000000	109.993166
2164.000000	110.026145
2163.000000	110.054474
2162.000000	110.082535
2161.000000	110.113218
2160.000000	110.144773
2159.000000	110.177128
2158.000000	110.213721
2157.000000	110.254394
2156.000000	110.293422
2155.000000	110.327120
2154.000000	110.356961
2153.000000	110.383239
2152.000000	110.402913
2151.000000	110.415954
2150.000000	110.427055
2149.000000	110.438617
2148.000000	110.448624
2147.000000	110.457262
2146.000000	110.468272
2145.000000	110.481529
2144.000000	110.491528
2143.000000	110.495188
2142.000000	110.494115
2141.000000	110.488168
2140.000000	110.474318
2139.000000	110.453917
2138.000000	110.434084
2137.000000	110.419985
2136.000000	110.412389
2135.000000	110.414135
2134.000000	110.431090
2133.000000	110.464240
2132.000000	110.507474
2131.000000	110.554847
2130.000000	110.603445
2129.000000	110.648121
2128.000000	110.681467
2127.000000	110.701524
2126.000000	110.712771
2125.000000	110.717757
2124.000000	110.714983
2123.000000	110.705501
2122.000000	110.693319
2121.000000	110.677741
2120.000000	110.653444
2119.000000	110.619712
2118.000000	110.582203
2117.000000	110.544413
2116.000000	110.505235
2115.000000	110.466402
2114.000000	110.433763
2113.000000	110.409050
2112.000000	110.387846
2111.000000	110.367485
2110.000000	110.349472
2109.000000	110.332873
2108.000000	110.313352
2107.000000	110.290855
2106.000000	110.270884
2105.000000	110.256783
2104.000000	110.247990
2103.000000	110.246636
2102.000000	110.257750
2101.000000	110.281194
2100.000000	110.311416
2099.000000	110.346189
2098.000000	110.387651
2097.000000	110.433576
2096.000000	110.476118
2095.000000	110.511601
2094.000000	110.542516
2093.000000	110.568029
2092.000000	110.582575
2091.000000	110.586241
2090.000000	110.587644
2089.000000	110.594593
2088.000000	110.610300
2087.000000	110.639913
2086.000000	110.690155
2085.000000	110.760943
2084.000000	110.844923
2083.000000	110.936644
2082.000000	111.033776
2081.000000	111.129841
2080.000000	111.216122
2079.000000	111.292072
2078.000000	111.364084
2077.000000	111.432999
2076.000000	111.493584
2075.000000	111.546771
2074.000000	111.600041
2073.000000	111.654980
2072.000000	111.706010
2071.000000	111.751034
2070.000000	111.794515
2069.000000	111.838191
2068.000000	111.878515
2067.000000	111.915052
2066.000000	111.951592
2065.000000	111.988619
2064.000000	112.022891
2063.000000	112.056025
2062.000000	112.092883
2061.000000	112.130933
2060.000000	112.161709
2059.000000	112.183844
2058.000000	112.204388
2057.000000	112.226396
2056.000000	112.247088
2055.000000	112.268655
2054.000000	112.298696
2053.000000	112.338685
2052.000000	112.382725
2051.000000	112.427466
2050.000000	112.474473
2049.000000	112.521959
2048.000000	112.562888
2047.000000	112.594141
2046.000000	112.620379
2045.000000	112.644989
2044.000000	112.665427
2043.000000	112.681287
2042.000000	112.698115
2041.000000	112.719147
2040.000000	112.741865
2039.000000	112.766178
2038.000000	112.795956
2037.000000	112.829867
2036.000000	112.860461
2035.000000	112.886225
2034.000000	112.914264
2033.000000	112.947390
2032.000000	112.980352
2031.000000	113.011994
2030.000000	113.048752
2029.000000	113.091750
2028.000000	113.131752
2027.000000	113.161287
2026.000000	113.182147
2025.000000	113.196692
2024.000000	113.203008
2023.000000	113.201605
2022.000000	113.200620
2021.000000	113.207470
2020.000000	113.220659
2019.000000	113.236065
2018.000000	113.254255
2017.000000	113.275694
2016.000000	113.297041
2015.000000	113.317770
2014.000000	113.341046
2013.000000	113.363776
2012.000000	113.375805
2011.000000	113.374764
2010.000000	113.371803
2009.000000	113.375873
2008.000000	113.384136
2007.000000	113.394529
2006.000000	113.413681
2005.000000	113.444251
2004.000000	113.477227
2003.000000	113.504233
2002.000000	113.527807
2001.000000	113.549917
2000.000000	113.565566
1999.000000	113.574863
1998.000000	113.583290
1997.000000	113.594776
1996.000000	113.611140
1995.000000	113.632910
1994.000000	113.655180
1993.000000	113.665943
1992.000000	113.656399
1991.000000	113.632883
1990.000000	113.609616
1989.000000	113.590703
1988.000000	113.568634
1987.000000	113.539596
1986.000000	113.511589
1985.000000	113.494804
1984.000000	113.491858
1983.000000	113.501708
1982.000000	113.524660
1981.000000	113.558616
1980.000000	113.598490
1979.000000	113.639955
1978.000000	113.676420
1977.000000	113.703056
1976.000000	113.723764
1975.000000	113.747785
1974.000000	113.779394
1973.000000	113.817649
1972.000000	113.864018
1971.000000	113.919703
1970.000000	113.976456
1969.000000	114.019387
1968.000000	114.038758
1967.000000	114.034406
1966.000000	114.012525
1965.000000	113.982581
1964.000000	113.953052
1963.000000	113.924273
1962.000000	113.889844
1961.000000	113.851684
1960.000000	113.827073
1959.000000	113.830054
1958.000000	113.851764
1957.000000	113.870451
1956.000000	113.875760
1955.000000	113.871630
1954.000000	113.861130
1953.000000	113.843559
1952.000000	113.821799
1951.000000	113.803386
1950.000000	113.796594
1949.000000	113.801161
1948.000000	113.813106
1947.000000	113.837117
1946.000000	113.878864
1945.000000	113.931089
1944.000000	113.977526
1943.000000	114.008828
1942.000000	114.030083
1941.000000	114.055216
1940.000000	114.097858
1939.000000	114.160204
1938.000000	114.228392
1937.000000	114.286601
1936.000000	114.335793
1935.000000	114.386871
1934.000000	114.439271
1933.000000	114.481920
1932.000000	114.508160
1931.000000	114.524756
1930.000000	114.541775
1929.000000	114.551374
1928.000000	114.544169
1927.000000	114.532264
1926.000000	114.535194
1925.000000	114.550412
1924.000000	114.548504
1923.000000	114.522999
1922.000000	114.505506
1921.000000	114.515202
1920.000000	114.533180
1919.000000	114.533068
1918.000000	114.511069
1917.000000	114.481293
1916.000000	114.457937
1915.000000	114.453225
1914.000000	114.467984
1913.000000	114.483802
1912.000000	114.480515
1911.000000	114.464351
1910.000000	114.454569
1909.000000	114.444336
1908.000000	114.417215
1907.000000	114.382704
1906.000000	114.365634
1905.000000	114.365092
1904.000000	114.349081
1903.000000	114.317029
1902.000000	114.302132
1901.000000	114.305733
1900.000000	114.301506
1899.000000	114.292010
1898.000000	114.305812
1897.000000	114.343418
1896.000000	114.366847
1895.000000	114.366598
1894.000000	114.381802
1893.000000	114.431887
1892.000000	114.488167
1891.000000	114.526341
1890.000000	114.553367
1889.000000	114.576903
1888.000000	114.594471
1887.000000	114.621721
1886.000000	114.679009
1885.000000	114.746846
1884.000000	114.785424
1883.000000	114.801163
1882.000000	114.835672
1881.000000	114.888031
1880.000000	114.921935
1879.000000	114.931968
1878.000000	114.944706
1877.000000	114.967800
1876.000000	114.972832
1875.000000	114.945911
1874.000000	114.918570
1873.000000	114.916749
1872.000000	114.922263
1871.000000	114.915570
1870.000000	114.904412
1869.000000	114.892584
1868.000000	114.869447
1867.000000	114.858408
1866.000000	114.904519
1865.000000	114.996638
1864.000000	115.073941
1863.000000	115.111637
1862.000000	115.146122
1861.000000	115.197881
1860.000000	115.238563
1859.000000	115.258687
1858.000000	115.296264
1857.000000	115.367419
1856.000000	115.436898
1855.000000	115.487335
1854.000000	115.546469
1853.000000	115.617513
1852.000000	115.674836
1851.000000	115.722442
1850.000000	115.778807
1849.000000	115.843917
1848.000000	115.905293
1847.000000	115.966116
1846.000000	116.030152
1845.000000	116.064961
1844.000000	116.040756
1843.000000	116.003917
1842.000000	116.027590
1841.000000	116.101562
1840.000000	116.167685
1839.000000	116.197869
1838.000000	116.211245
1837.000000	116.233487
1836.000000	116.257687
1835.000000	116.286472
1834.000000	116.342388
1833.000000	116.427687
1832.000000	116.520916
1831.000000	116.588310
1830.000000	116.603869
1829.000000	116.595483
1828.000000	116.617319
1827.000000	116.679007
1826.000000	116.749472
1825.000000	116.803419
1824.000000	116.839389
1823.000000	116.879174
1822.000000	116.946647
1821.000000	117.042771
1820.000000	117.139054
1819.000000	117.205632
1818.000000	117.258769
1817.000000	117.326746
1816.000000	117.385948
1815.000000	117.410749
1814.000000	117.429511
1813.000000	117.478469
1812.000000	117.534352
1811.000000	117.548864
1810.000000	117.552826
1809.000000	117.599582
1808.000000	117.659577
1807.000000	117.690830
1806.000000	117.721497
1805.000000	117.781504
1804.000000	117.835381
1803.000000	117.853535
1802.000000	117.863954
1801.000000	117.893220
1800.000000	117.913740
1799.000000	117.900617
1798.000000	117.899456
1797.000000	117.943410
1796.000000	117.991943
1795.000000	118.013918
1794.000000	118.032351
1793.000000	118.065685
1792.000000	118.075942
1791.000000	118.043712
1790.000000	118.036954
1789.000000	118.091164
1788.000000	118.154897
1787.000000	118.186916
1786.000000	118.218069
1785.000000	118.277642
1784.000000	118.335020
1783.000000	118.374561
1782.000000	118.411249
1781.000000	118.445898
1780.000000	118.473123
1779.000000	118.492914
1778.000000	118.530108
1777.000000	118.595856
1776.000000	118.680584
1775.000000	118.776587
1774.000000	118.864844
1773.000000	118.931720
1772.000000	118.987269
1771.000000	119.033962
1770.000000	119.078254
1769.000000	119.139021
1768.000000	119.208013
1767.000000	119.245784
1766.000000	119.259827
1765.000000	119.303371
1764.000000	119.392332
1763.000000	119.476177
1762.000000	119.501326
1761.000000	119.509053
1760.000000	119.563466
1759.000000	119.641664
1758.000000	119.686780
1757.000000	119.672947
1756.000000	119.643160
1755.000000	119.629738
1754.000000	119.609692
1753.000000	119.590104
1752.000000	119.622071
1751.000000	119.699389
1750.000000	119.751094
1749.000000	119.755290
1748.000000	119.747248
1747.000000	119.746974
1746.000000	119.724737
1745.000000	119.680673
1744.000000	119.657931
1743.000000	119.649847
1742.000000	119.624997
1741.000000	119.595015
1740.000000	119.581633
1739.000000	119.576801
1738.000000	119.581468
1737.000000	119.605097
1736.000000	119.638227
1735.000000	119.662289
1734.000000	119.654110
1733.000000	119.636397
1732.000000	119.671210
1731.000000	119.739375
1730.000000	119.786800
1729.000000	119.786729
1728.000000	119.765069
1727.000000	119.763809
1726.000000	119.777048
1725.000000	119.792592
1724.000000	119.793085
1723.000000	119.766919
1722.000000	119.762599
1721.000000	119.813436
1720.000000	119.866473
1719.000000	119.847632
1718.000000	119.795394
1717.000000	119.816840
1716.000000	119.866997
1715.000000	119.882945
1714.000000	119.929786
1713.000000	120.035983
1712.000000	120.113518
1711.000000	120.127703
1710.000000	120.159656
1709.000000	120.253958
1708.000000	120.355814
1707.000000	120.413919
1706.000000	120.471760
1705.000000	120.574894
1704.000000	120.677782
1703.000000	120.751882
1702.000000	120.862385
1701.000000	121.045021
1700.000000	121.172684
1699.000000	121.185522
1698.000000	121.254776
1697.000000	121.407241
1696.000000	121.500106
1695.000000	121.463978
1694.000000	121.451808
1693.000000	121.551989
1692.000000	121.668677
1691.000000	121.732778
1690.000000	121.758868
1689.000000	121.785380
1688.000000	121.844204
1687.000000	121.933262
1686.000000	122.027183
1685.000000	122.083110
1684.000000	122.083967
1683.000000	122.104720
1682.000000	122.199564
1681.000000	122.279618
1680.000000	122.324754
1679.000000	122.379488
1678.000000	122.428926
1677.000000	122.436533
1676.000000	122.423801
1675.000000	122.437492
1674.000000	122.447701
1673.000000	122.445123
1672.000000	122.474130
1671.000000	122.539762
1670.000000	122.580826
1669.000000	122.534988
1668.000000	122.472305
1667.000000	122.486443
1666.000000	122.532785
1665.000000	122.532301
1664.000000	122.466216
1663.000000	122.370384
1662.000000	122.256519
1661.000000	122.099448
1660.000000	121.949983
1659.000000	121.862633
1658.000000	121.792725
1657.000000	121.689874
1656.000000	121.584713
1655.000000	121.475590
1654.000000	121.220761
1653.000000	120.699933
1652.000000	120.105305
1651.000000	119.741772
1650.000000	119.484075
1649.000000	119.076235
1648.000000	118.345221
1647.000000	117.225318
1646.000000	115.849760
1645.000000	114.454726
1644.000000	113.136672
1643.000000	111.839587
1642.000000	110.517234
1641.000000	109.213109
1640.000000	108.075438
1639.000000	107.217956
1638.000000	106.657894
1637.000000	106.388854
1636.000000	106.458478
1635.000000	106.863969
1634.000000	107.483573
1633.000000	108.229430
1632.000000	109.043975
1631.000000	109.909273
1630.000000	110.811422
1629.000000	111.709476
1628.000000	112.568586
1627.000000	113.381973
1626.000000	114.137549
1625.000000	114.833008
1624.000000	115.510807
1623.000000	116.200554
1622.000000	116.845856
1621.000000	117.383429
1620.000000	117.856351
1619.000000	118.331252
1618.000000	118.803314
1617.000000	119.198602
1616.000000	119.491772
1615.000000	119.735189
1614.000000	119.908660
1613.000000	119.926790
1612.000000	119.787431
1611.000000	119.541810
1610.000000	119.144798
1609.000000	118.476554
1608.000000	117.493223
1607.000000	116.198718
1606.000000	114.476982
1605.000000	112.127445
1604.000000	109.070021
1603.000000	105.328360
1602.000000	100.963426
1601.000000	96.152685
1600.000000	91.198059
1599.000000	86.328797
1598.000000	81.452058
1597.000000	76.253822
1596.000000	70.645286
1595.000000	65.069632
1594.000000	60.272880
1593.000000	56.789264
1592.000000	54.747516
1591.000000	54.016850
1590.000000	54.339109
1589.000000	55.331001
1588.000000	56.567017
1587.000000	57.688121
1586.000000	58.418802
1585.000000	58.653478
1584.000000	58.578559
1583.000000	58.563165
1582.000000	58.837549
1581.000000	59.390400
1580.000000	60.156370
1579.000000	61.124823
1578.000000	62.240109
1577.000000	63.322294
1576.000000	64.169820
1575.000000	64.752025
1574.000000	65.157382
1573.000000	65.450489
1572.000000	65.751814
1571.000000	66.301025
1570.000000	67.303747
1569.000000	68.716549
1568.000000	70.402569
1567.000000	72.331514
1566.000000	74.442508
1565.000000	76.538994
1564.000000	78.428040
1563.000000	80.067741
1562.000000	81.537065
1561.000000	82.973368
1560.000000	84.646265
1559.000000	86.705551
1558.000000	88.687074
1557.000000	90.239977
1556.000000	91.560671
1555.000000	92.852302
1554.000000	94.097010
1553.000000	95.185904
1552.000000	96.119014
1551.000000	96.953273
1550.000000	97.703076
1549.000000	98.347530
1548.000000	98.911691
1547.000000	99.484306
1546.000000	100.100843
1545.000000	100.714234
1544.000000	101.280586
1543.000000	101.812178
1542.000000	102.345091
1541.000000	102.865415
1540.000000	103.296926
1539.000000	103.646361
1538.000000	104.027587
1537.000000	104.469460
1536.000000	104.909890
1535.000000	105.329171
1534.000000	105.710627
1533.000000	106.022925
1532.000000	106.290543
1531.000000	106.576645
1530.000000	106.916139
1529.000000	107.279626
1528.000000	107.596984
1527.000000	107.859085
1526.000000	108.109583
1525.000000	108.365441
1524.000000	108.612639
1523.000000	108.830867
1522.000000	109.009988
1521.000000	109.139135
1520.000000	109.240067
1519.000000	109.369635
1518.000000	109.517009
1517.000000	109.625500
1516.000000	109.665341
1515.000000	109.676283
1514.000000	109.721366
1513.000000	109.822523
1512.000000	109.946845
1511.000000	110.057345
1510.000000	110.176952
1509.000000	110.346666
1508.000000	110.529043
1507.000000	110.628460
1506.000000	110.645230
1505.000000	110.693335
1504.000000	110.833709
1503.000000	111.000658
1502.000000	111.147611
1501.000000	111.280155
1500.000000	111.403490
1499.000000	111.502110
1498.000000	111.598144
1497.000000	111.776387
1496.000000	112.044787
1495.000000	112.345247
1494.000000	112.679569
1493.000000	113.051631
1492.000000	113.408370
1491.000000	113.693096
1490.000000	113.914333
1489.000000	114.113191
1488.000000	114.272685
1487.000000	114.397676
1486.000000	114.570407
1485.000000	114.789343
1484.000000	115.001754
1483.000000	115.209743
1482.000000	115.430567
1481.000000	115.652909
1480.000000	115.844754
1479.000000	116.022354
1478.000000	116.228647
1477.000000	116.459654
1476.000000	116.656898
1475.000000	116.826429
1474.000000	117.035613
1473.000000	117.284308
1472.000000	117.506785
1471.000000	117.677365
1470.000000	117.843309
1469.000000	118.007762
1468.000000	118.115217
1467.000000	118.122190
1466.000000	117.972276
1465.000000	117.550312
1464.000000	116.778978
1463.000000	115.662065
1462.000000	114.221834
1461.000000	112.468812
1460.000000	110.410092
1459.000000	108.012872
1458.000000	105.191906
1457.000000	102.146665
1456.000000	99.482128
1455.000000	97.499363
1454.000000	95.864771
1453.000000	94.208175
1452.000000	92.502103
1451.000000	90.900796
1450.000000	89.485249
1449.000000	88.211101
1448.000000	87.051250
1447.000000	86.123823
1446.000000	85.662650
1445.000000	85.944020
1444.000000	87.167164
1443.000000	89.233297
1442.000000	91.742868
1441.000000	94.262168
1440.000000	96.518991
1439.000000	98.391996
1438.000000	99.890073
1437.000000	101.152186
1436.000000	102.312861
1435.000000	103.395358
1434.000000	104.422758
1433.000000	105.474042
1432.000000	106.569106
1431.000000	107.601724
1430.000000	108.462412
1429.000000	109.180733
1428.000000	109.824317
1427.000000	110.400928
1426.000000	110.890348
1425.000000	111.318712
1424.000000	111.751017
1423.000000	112.159955
1422.000000	112.488253
1421.000000	112.762706
1420.000000	113.042487
1419.000000	113.290761
1418.000000	113.463551
1417.000000	113.668921
1416.000000	113.977444
1415.000000	114.311843
1414.000000	114.589400
1413.000000	114.831726
1412.000000	115.093643
1411.000000	115.332185
1410.000000	115.481634
1409.000000	115.578085
1408.000000	115.668206
1407.000000	115.714457
1406.000000	115.637286
1405.000000	115.401029
1404.000000	115.039207
1403.000000	114.582908
1402.000000	114.065440
1401.000000	113.557591
1400.000000	113.128128
1399.000000	112.776494
1398.000000	112.463394
1397.000000	112.207337
1396.000000	112.084389
1395.000000	112.151544
1394.000000	112.368089
1393.000000	112.648253
1392.000000	112.931995
1391.000000	113.154887
1390.000000	113.271356
1389.000000	113.315977
1388.000000	113.393031
1387.000000	113.599002
1386.000000	113.961322
1385.000000	114.454954
1384.000000	115.033507
1383.000000	115.621082
1382.000000	116.150484
1381.000000	116.613926
1380.000000	117.037294
1379.000000	117.423859
1378.000000	117.744171
1377.000000	117.962446
1376.000000	118.033833
1375.000000	117.877852
1374.000000	117.373575
1373.000000	116.399610
1372.000000	114.830765
1371.000000	112.500902
1370.000000	109.292937
1369.000000	105.402491
1368.000000	101.497042
1367.000000	98.423204
1366.000000	96.712974
1365.000000	96.400194
1364.000000	97.183592
1363.000000	98.649856
1362.000000	100.436810
1361.000000	102.346980
1360.000000	104.316100
1359.000000	106.280717
1358.000000	108.125128
1357.000000	109.738160
1356.000000	111.080323
1355.000000	112.174691
1354.000000	113.069207
1353.000000	113.821115
1352.000000	114.472834
1351.000000	115.043442
1350.000000	115.533596
1349.000000	115.944512
1348.000000	116.298416
1347.000000	116.613787
1346.000000	116.893566
1345.000000	117.145412
1344.000000	117.389881
1343.000000	117.637980
1342.000000	117.882055
1341.000000	118.115827
1340.000000	118.344282
1339.000000	118.566169
1338.000000	118.769223
1337.000000	118.955689
1336.000000	119.140928
1335.000000	119.327298
1334.000000	119.504874
1333.000000	119.672520
1332.000000	119.835592
1331.000000	119.984691
1330.000000	120.098698
1329.000000	120.172520
1328.000000	120.214388
1327.000000	120.215209
1326.000000	120.133606
1325.000000	119.909692
1324.000000	119.476807
1323.000000	118.738792
1322.000000	117.582459
1321.000000	115.933993
1320.000000	113.795634
1319.000000	111.267854
1318.000000	108.577859
1317.000000	106.069879
1316.000000	104.101898
1315.000000	102.899095
1314.000000	102.472847
1313.000000	102.681723
1312.000000	103.349496
1311.000000	104.320747
1310.000000	105.472666
1309.000000	106.720329
1308.000000	108.028427
1307.000000	109.396881
1306.000000	110.811557
1305.000000	112.216200
1304.000000	113.521440
1303.000000	114.634240
1302.000000	115.501256
1301.000000	116.133800
1300.000000	116.575448
1299.000000	116.855355
1298.000000	116.969326
1297.000000	116.868231
1296.000000	116.453336
1295.000000	115.622336
1294.000000	114.393641
1293.000000	112.979169
1292.000000	111.677594
1291.000000	110.680486
1290.000000	109.984199
1289.000000	109.458183
1288.000000	108.921211
1287.000000	108.153840
1286.000000	106.959000
1285.000000	105.319027
1284.000000	103.490266
1283.000000	101.905491
1282.000000	100.958378
1281.000000	100.827870
1280.000000	101.433285
1279.000000	102.471327
1278.000000	103.494989
1277.000000	104.046675
1276.000000	103.801029
1275.000000	102.691907
1274.000000	101.016991
1273.000000	99.439374
1272.000000	98.761966
1271.000000	99.488441
1270.000000	101.509848
1269.000000	104.216008
1268.000000	106.913806
1267.000000	109.182741
1266.000000	110.934829
1265.000000	112.279738
1264.000000	113.371183
1263.000000	114.315641
1262.000000	115.158435
1261.000000	115.918016
1260.000000	116.607592
1259.000000	117.224203
1258.000000	117.752687
1257.000000	118.186049
1256.000000	118.534030
1255.000000	118.809748
1254.000000	119.022770
1253.000000	119.194154
1252.000000	119.355548
1251.000000	119.528842
1250.000000	119.719817
1249.000000	119.933355
1248.000000	120.179109
1247.000000	120.454600
1246.000000	120.741089
1245.000000	121.024390
1244.000000	121.302372
1243.000000	121.568172
1242.000000	121.805078
1241.000000	122.003741
1240.000000	122.167172
1239.000000	122.293716
1238.000000	122.374850
1237.000000	122.412306
1236.000000	122.419910
1235.000000	122.406689
1234.000000	122.372338
1233.000000	122.323340
1232.000000	122.271955
1231.000000	122.212671
1230.000000	122.118873
1229.000000	121.958307
1228.000000	121.698672
1227.000000	121.289597
1226.000000	120.655346
1225.000000	119.720214
1224.000000	118.411980
1223.000000	116.663770
1222.000000	114.438196
1221.000000	111.762155
1220.000000	108.750704
1219.000000	105.569502
1218.000000	102.381106
1217.000000	99.311925
1216.000000	96.436875
1215.000000	93.773897
1214.000000	91.295674
1213.000000	88.969155
1212.000000	86.793804
1211.000000	84.811642
1210.000000	83.081009
1209.000000	81.681736
1208.000000	80.719117
1207.000000	80.271154
1206.000000	80.337228
1205.000000	80.825220
1204.000000	81.611561
1203.000000	82.593901
1202.000000	83.702433
1201.000000	84.925629
1200.000000	86.298984
1199.000000	87.858819
1198.000000	89.602905
1197.000000	91.494030
1196.000000	93.491057
1195.000000	95.544591
1194.000000	97.588165
1193.000000	99.559792
1192.000000	101.423157
1191.000000	103.154228
1190.000000	104.728786
1189.000000	106.136728
1188.000000	107.388586
1187.000000	108.500460
1186.000000	109.475177
1185.000000	110.317574
1184.000000	111.049389
1183.000000	111.693074
1182.000000	112.262045
1181.000000	112.757115
1180.000000	113.166017
1179.000000	113.463329
1178.000000	113.626442
1177.000000	113.668846
1176.000000	113.637240
1175.000000	113.579360
1174.000000	113.528782
1173.000000	113.516042
1172.000000	113.573982
1171.000000	113.719643
1170.000000	113.945481
1169.000000	114.234985
1168.000000	114.571874
1167.000000	114.926063
1166.000000	115.249706
1165.000000	115.499948
1164.000000	115.657235
1163.000000	115.723994
1162.000000	115.726647
1161.000000	115.722574
1160.000000	115.781474
1159.000000	115.943471
1158.000000	116.202774
1157.000000	116.533827
1156.000000	116.917239
1155.000000	117.335493
1154.000000	117.764877
1153.000000	118.185065
1152.000000	118.580863
1151.000000	118.926741
1150.000000	119.186814
1149.000000	119.342442
1148.000000	119.403812
1147.000000	119.392588
1146.000000	119.327716
1145.000000	119.227200
1144.000000	119.108197
1143.000000	118.965463
1142.000000	118.765390
1141.000000	118.469851
1140.000000	118.046362
1139.000000	117.463596
1138.000000	116.675922
1137.000000	115.628701
1136.000000	114.267511
1135.000000	112.514343
1134.000000	110.275431
1133.000000	107.459511
1132.000000	104.009831
1131.000000	99.947049
1130.000000	95.395782
1129.000000	90.616858
1128.000000	85.984926
1127.000000	81.876711
1126.000000	78.512093
1125.000000	75.875903
1124.000000	73.773619
1123.000000	71.974331
1122.000000	70.346847
1121.000000	68.878647
1120.000000	67.569659
1119.000000	66.245696
1118.000000	64.571329
1117.000000	62.415905
1116.000000	60.235446
1115.000000	59.027180
1114.000000	59.714949
1113.000000	62.516359
1112.000000	66.853871
1111.000000	71.744727
1110.000000	76.286171
1109.000000	79.904864
1108.000000	82.318575
1107.000000	83.355127
1106.000000	82.862380
1105.000000	80.830763
1104.000000	77.693832
1103.000000	74.494884
1102.000000	72.563786
1101.000000	72.811587
1100.000000	75.220448
1099.000000	78.963679
1098.000000	83.017435
1097.000000	86.723061
1096.000000	89.876293
1095.000000	92.513119
1094.000000	94.728313
1093.000000	96.628015
1092.000000	98.313695
1091.000000	99.850137
1090.000000	101.267058
1089.000000	102.593262
1088.000000	103.866530
1087.000000	105.096326
1086.000000	106.267142
1085.000000	107.370867
1084.000000	108.407221
1083.000000	109.366768
1082.000000	110.236996
1081.000000	111.031073
1080.000000	111.776569
1079.000000	112.477004
1078.000000	113.118590
1077.000000	113.696748
1076.000000	114.210746
1075.000000	114.634764
1074.000000	114.917792
1073.000000	115.023894
1072.000000	114.922852
1071.000000	114.560393
1070.000000	113.861680
1069.000000	112.739008
1068.000000	111.103529
1067.000000	108.836894
1066.000000	105.817721
1065.000000	102.006120
1064.000000	97.481121
1063.000000	92.458942
1062.000000	87.235746
1061.000000	82.086576
1060.000000	77.144365
1059.000000	72.321630
1058.000000	67.389837
1057.000000	62.235804
1056.000000	57.132721
1055.000000	52.757586
1054.000000	49.959100
1053.000000	49.351722
1052.000000	51.046999
1051.000000	54.631185
1050.000000	59.327396
1049.000000	64.348288
1048.000000	69.126968
1047.000000	73.372875
1046.000000	77.023493
1045.000000	80.150964
1044.000000	82.873673
1043.000000	85.274378
1042.000000	87.380399
1041.000000	89.197967
1040.000000	90.756653
1039.000000	92.093366
1038.000000	93.242597
1037.000000	94.250588
1036.000000	95.165882
1035.000000	96.024280
1034.000000	96.840468
1033.000000	97.628338
1032.000000	98.406330
1031.000000	99.174401
1030.000000	99.914612
1029.000000	100.615250
1028.000000	101.281597
1027.000000	101.921975
1026.000000	102.542879
1025.000000	103.162375
1024.000000	103.804645
1023.000000	104.474874
1022.000000	105.157275
1021.000000	105.833625
1020.000000	106.487967
1019.000000	107.086413
1018.000000	107.569237
1017.000000	107.870687
1016.000000	107.901139
1015.000000	107.537674
1014.000000	106.632017
1013.000000	105.040283
1012.000000	102.665180
1011.000000	99.452005
1010.000000	95.421043
1009.000000	90.717870
1008.000000	85.666655
1007.000000	80.814471
1006.000000	76.902443
1005.000000	74.665471
1004.000000	74.495220
1003.000000	76.185869
1002.000000	78.971534
1001.000000	81.889913
1000.000000	84.133036
999.000000	85.163303
998.000000	84.715543
997.000000	82.878084
996.000000	80.211613
995.000000	77.647462
994.000000	76.071784
993.000000	75.880379
992.000000	76.877069
991.000000	78.555511
990.000000	80.477853
989.000000	82.459966
988.000000	84.506464
987.000000	86.627923
986.000000	88.757609
985.000000	90.788246
984.000000	92.630425
983.000000	94.234576
982.000000	95.591685
981.000000	96.730004
980.000000	97.692444
979.000000	98.516135
978.000000	99.225824
977.000000	99.852441
976.000000	100.430914
975.000000	100.979763
974.000000	101.505012
973.000000	102.013193
972.000000	102.511923
971.000000	102.995488
970.000000	103.447120
969.000000	103.859417
968.000000	104.233263
967.000000	104.563690
966.000000	104.842890
965.000000	105.075891
964.000000	105.279478
963.000000	105.464212
962.000000	105.634909
961.000000	105.805413
960.000000	105.994284
959.000000	106.207400
958.000000	106.438931
957.000000	106.687220
956.000000	106.952980
955.000000	107.223481
954.000000	107.476978
953.000000	107.700989
952.000000	107.891625
951.000000	108.039143
950.000000	108.132592
949.000000	108.179423
948.000000	108.202564
947.000000	108.220256
946.000000	108.244542
945.000000	108.294461
944.000000	108.390899
943.000000	108.537508
942.000000	108.721718
941.000000	108.932191
940.000000	109.158742
939.000000	109.378448
938.000000	109.561639
937.000000	109.693009
936.000000	109.773109
935.000000	109.803390
934.000000	109.789273
933.000000	109.754346
932.000000	109.732256
931.000000	109.744368
930.000000	109.797865
929.000000	109.899127
928.000000	110.050629
927.000000	110.237672
926.000000	110.435527
925.000000	110.628409
924.000000	110.806896
923.000000	110.953680
922.000000	111.051620
921.000000	111.102854
920.000000	111.122419
919.000000	111.118947
918.000000	111.098458
917.000000	111.079683
916.000000	111.085837
915.000000	111.124672
914.000000	111.193477
913.000000	111.297725
912.000000	111.445456
911.000000	111.627652
910.000000	111.823789
909.000000	112.021487
908.000000	112.210812
907.000000	112.363531
906.000000	112.440686
905.000000	112.421182
904.000000	112.314156
903.000000	112.154055
902.000000	111.992266
901.000000	111.876661
900.000000	111.812772
899.000000	111.751689
898.000000	111.637760
897.000000	111.455810
896.000000	111.230883
895.000000	110.999550
894.000000	110.777256
893.000000	110.502094
892.000000	109.980697
891.000000	108.978158
890.000000	107.474771
889.000000	105.831586
888.000000	104.597804
887.000000	104.116318
886.000000	104.321639
885.000000	104.902362
884.000000	105.594063
883.000000	106.275998
882.000000	106.903689
881.000000	107.454114
880.000000	107.936378
879.000000	108.399082
878.000000	108.891107
877.000000	109.424822
876.000000	109.967536
875.000000	110.458909
874.000000	110.845908
873.000000	111.117576
872.000000	111.303590
871.000000	111.440950
870.000000	111.555000
869.000000	111.663841
868.000000	111.779062
867.000000	111.891188
866.000000	111.972952
865.000000	112.007279
864.000000	111.999723
863.000000	111.966745
862.000000	111.926925
861.000000	111.902935
860.000000	111.912000
859.000000	111.947937
858.000000	111.987119
857.000000	112.015854
856.000000	112.041081
855.000000	112.075881
854.000000	112.133391
853.000000	112.233021
852.000000	112.392604
851.000000	112.609226
850.000000	112.859723
849.000000	113.119992
848.000000	113.368753
847.000000	113.576914
846.000000	113.714188
845.000000	113.770534
844.000000	113.756483
843.000000	113.686109
842.000000	113.576243
841.000000	113.458516
840.000000	113.372942
839.000000	113.345493
838.000000	113.383720
837.000000	113.489460
836.000000	113.657995
835.000000	113.865580
834.000000	114.076810
833.000000	114.265951
832.000000	114.417822
831.000000	114.513298
830.000000	114.535115
829.000000	114.488485
828.000000	114.400020
827.000000	114.297836
826.000000	114.206643
825.000000	114.155633
824.000000	114.167468
823.000000	114.238406
822.000000	114.347032
821.000000	114.478795
820.000000	114.624158
819.000000	114.760007
818.000000	114.851522
817.000000	114.869628
816.000000	114.781686
815.000000	114.530358
814.000000	114.035765
813.000000	113.216574
812.000000	112.017546
811.000000	110.451282
810.000000	108.666752
809.000000	106.969568
808.000000	105.722497
807.000000	105.170029
806.000000	105.331341
805.000000	106.030757
804.000000	107.010723
803.000000	108.038949
802.000000	108.959567
801.000000	109.701374
800.000000	110.245285
799.000000	110.586820
798.000000	110.727967
797.000000	110.686230
796.000000	110.485729
795.000000	110.141501
794.000000	109.670432
793.000000	109.108986
792.000000	108.510966
791.000000	107.929464
790.000000	107.414553
789.000000	107.017057
788.000000	106.771512
787.000000	106.674042
786.000000	106.689991
785.000000	106.781221
784.000000	106.912717
783.000000	107.044231
782.000000	107.136725
781.000000	107.172964
780.000000	107.162963
779.000000	107.134491
778.000000	107.132750
777.000000	107.217503
776.000000	107.437112
775.000000	107.799682
774.000000	108.274963
773.000000	108.818367
772.000000	109.381328
771.000000	109.912628
770.000000	110.373315
769.000000	110.751140
768.000000	111.049780
767.000000	111.271624
766.000000	111.425042
765.000000	111.537117
764.000000	111.641165
763.000000	111.755236
762.000000	111.885937
761.000000	112.042855
760.000000	112.231758
759.000000	112.441333
758.000000	112.652321
757.000000	112.853035
756.000000	113.032092
755.000000	113.166344
754.000000	113.234935
753.000000	113.238706
752.000000	113.191073
751.000000	113.100122
750.000000	112.975720
749.000000	112.844408
748.000000	112.737636
747.000000	112.669868
746.000000	112.640969
745.000000	112.649837
744.000000	112.688319
743.000000	112.730233
742.000000	112.744431
741.000000	112.714170
740.000000	112.632767
739.000000	112.492742
738.000000	112.294088
737.000000	112.050879
736.000000	111.773083
735.000000	111.448816
734.000000	111.057277
733.000000	110.587158
732.000000	110.032552
731.000000	109.391245
730.000000	108.694423
729.000000	108.025943
728.000000	107.485726
727.000000	107.143516
726.000000	107.028940
725.000000	107.136625
724.000000	107.417901
723.000000	107.790851
722.000000	108.194002
721.000000	108.619651
720.000000	109.073647
719.000000	109.525237
718.000000	109.927216
717.000000	110.264940
716.000000	110.554526
715.000000	110.807873
714.000000	111.028436
713.000000	111.226207
712.000000	111.407365
711.000000	111.557171
710.000000	111.658171
709.000000	111.717215
708.000000	111.748737
707.000000	111.750079
706.000000	111.718294
705.000000	111.670749
704.000000	111.631876
703.000000	111.611835
702.000000	111.615286
701.000000	111.659411
700.000000	111.753303
699.000000	111.877987
698.000000	112.010362
697.000000	112.141446
696.000000	112.260493
695.000000	112.340203
694.000000	112.359148
693.000000	112.326980
692.000000	112.258928
691.000000	112.156047
690.000000	112.033864
689.000000	111.936123
688.000000	111.896304
687.000000	111.905298
686.000000	111.946564
685.000000	112.028844
684.000000	112.152396
683.000000	112.279615
682.000000	112.380502
681.000000	112.461894
680.000000	112.529077
679.000000	112.558323
678.000000	112.525680
677.000000	112.472973
676.000000	112.431699
675.000000	112.379190
674.000000	112.363553
673.000000	112.514542
672.000000	112.884904
671.000000	113.356791
670.000000	113.749990
669.000000	113.946050
668.000000	113.935323
667.000000	113.797295
666.000000	113.613717
665.000000	113.384357
664.000000	113.164609
663.000000	113.062469
662.000000	113.048677
661.000000	113.032708
660.000000	112.984875
659.000000	112.943910
658.000000	112.906519
657.000000	112.858712
656.000000	112.816436
655.000000	112.800571
654.000000	112.820289
653.000000	112.859749
652.000000	112.912246
651.000000	112.973435
650.000000	113.021862
649.000000	113.037354
648.000000	113.024244
647.000000	112.993297
646.000000	112.934411
645.000000	112.836921
644.000000	112.723255
643.000000	112.631612
642.000000	112.579715
641.000000	112.571483
640.000000	112.619292
639.000000	112.728461
638.000000	112.873012
637.000000	113.009819
636.000000	113.111136
635.000000	113.164418
634.000000	113.155886
633.000000	113.082351
632.000000	112.966187
631.000000	112.840046
630.000000	112.727176
629.000000	112.645702
628.000000	112.613931
627.000000	112.639334
626.000000	112.707853
625.000000	112.796531
624.000000	112.891527
623.000000	112.978984
622.000000	113.030787
621.000000	113.019687
620.000000	112.944463
619.000000	112.831044
618.000000	112.717860
617.000000	112.638537
616.000000	112.604379
615.000000	112.598681
614.000000	112.596804
613.000000	112.593757
612.000000	112.599654
611.000000	112.612005
610.000000	112.616841
609.000000	112.613476
608.000000	112.613704
607.000000	112.616790
606.000000	112.606301
605.000000	112.573234
604.000000	112.520491
603.000000	112.439545
602.000000	112.306756
601.000000	112.107789
600.000000	111.845208
599.000000	111.517539
598.000000	111.111129
597.000000	110.609374
596.000000	109.989141
595.000000	109.192848
594.000000	108.093263
593.000000	106.476450
592.000000	104.076390
591.000000	100.771000
590.000000	96.884232
589.000000	93.282347
588.000000	91.008373
587.000000	90.655305
586.000000	91.985466
585.000000	94.163322
584.000000	96.410198
583.000000	98.388335
582.000000	100.088095
581.000000	101.573658
580.000000	102.875399
579.000000	103.999643
578.000000	104.937231
577.000000	105.673015
576.000000	106.209287
575.000000	106.574134
574.000000	106.799709
573.000000	106.919039
572.000000	106.975123
571.000000	107.009264
570.000000	107.041397
569.000000	107.070620
568.000000	107.094076
567.000000	107.096594
566.000000	107.028751
565.000000	106.819468
564.000000	106.411840
563.000000	105.792505
562.000000	105.005702
561.000000	104.153301
560.000000	103.356185
559.000000	102.681942
558.000000	102.111398
557.000000	101.599111
556.000000	101.174340
555.000000	100.957746
554.000000	101.072453
553.000000	101.545516
552.000000	102.288336
551.000000	103.140514
550.000000	103.935001
549.000000	104.572892
548.000000	105.046134
547.000000	105.387390
546.000000	105.620026
545.000000	105.763902
544.000000	105.849578
543.000000	105.896511
542.000000	105.895876
541.000000	105.831809
540.000000	105.710625
539.000000	105.550869
538.000000	105.367080
537.000000	105.181847
536.000000	105.036084
535.000000	104.958185
534.000000	104.935640
533.000000	104.931408
532.000000	104.912648
531.000000	104.861994
530.000000	104.769375
529.000000	104.623950
528.000000	104.409021
527.000000	104.103296
526.000000	103.690468
525.000000	103.181693
524.000000	102.607126
523.000000	101.971947
522.000000	101.249999
521.000000	100.412958
520.000000	99.445945
519.000000	98.329688
518.000000	97.041425
517.000000	95.617456
516.000000	94.204560
515.000000	93.008888
514.000000	92.188351
513.000000	91.806010
512.000000	91.853218
511.000000	92.284449
510.000000	93.020691
509.000000	93.954494
508.000000	94.984187
507.000000	96.028734
506.000000	97.029770
505.000000	97.970444
504.000000	98.876571
503.000000	99.769514
502.000000	100.623391
501.000000	101.383514
500.000000	102.017646
499.000000	102.527054
498.000000	102.916809
497.000000	103.197501
496.000000	103.396610
495.000000	103.544880
494.000000	103.661990
493.000000	103.758404
492.000000	103.857678
491.000000	103.987791
490.000000	104.151564
489.000000	104.327015
488.000000	104.478842
487.000000	104.560861
486.000000	104.504553
485.000000	104.227214
484.000000	103.671153
483.000000	102.815908
482.000000	101.666182
481.000000	100.255805
480.000000	98.662781
479.000000	96.980650
478.000000	95.262203
477.000000	93.535632
476.000000	91.878760
475.000000	90.451860
474.000000	89.436952
473.000000	88.982694
472.000000	89.178967
471.000000	90.005015
470.000000	91.316919
469.000000	92.904772
468.000000	94.568979
467.000000	96.141724
466.000000	97.511583
465.000000	98.659890
464.000000	99.623038
463.000000	100.443965
462.000000	101.154682
461.000000	101.779272
460.000000	102.322113
459.000000	102.761122
458.000000	103.086148
457.000000	103.338727
456.000000	103.572388
455.000000	103.788299
454.000000	103.957810
453.000000	104.071079
452.000000	104.138963
451.000000	104.166476
450.000000	104.155148
449.000000	104.127898
448.000000	104.119268
447.000000	104.146058
446.000000	104.215074
445.000000	104.342018
444.000000	104.519079
443.000000	104.696609
442.000000	104.823176
441.000000	104.889044
440.000000	104.898399
439.000000	104.830451
438.000000	104.669961
437.000000	104.446612
436.000000	104.216835
435.000000	104.019428
434.000000	103.871955
433.000000	103.782455
432.000000	103.729381
431.000000	103.660127
430.000000	103.545926
429.000000	103.404894
428.000000	103.265223
427.000000	103.136296
426.000000	103.017860
425.000000	102.910998
424.000000	102.817520
423.000000	102.746994
422.000000	102.723922
421.000000	102.766803
420.000000	102.853678
419.000000	102.941163
418.000000	103.028426
417.000000	103.166479
416.000000	103.373076
415.000000	103.583959
414.000000	103.721980
413.000000	103.767263
412.000000	103.741307
411.000000	103.660617
410.000000	103.536478
409.000000	103.360281
408.000000	103.087146
407.000000	102.689763
406.000000	102.256655
405.000000	101.973056
404.000000	101.979169
403.000000	102.255279
402.000000	102.703645
401.000000	103.211710
400.000000	103.671819
