PE IR       SUBTECH     SPECTRUM    ASCII       PEDS        4.00        
   -1
23ms220_cis.asc
24/10/18
16:07:21.00
24/10/18
16:07:21.00
Administrator
Sample 1309 By Administrator Date Friday, October 18 2024
400.000000
#HDR
-1
-1
#GR
cm-1
%T
1.0
0.0
4000.000000
-1.000000
3601
8
93.166128
22.030816
#DATA
4000.000000	77.414670
3999.000000	77.408717
3998.000000	77.405775
3997.000000	77.404144
3996.000000	77.401880
3995.000000	77.398549
3994.000000	77.395759
3993.000000	77.395349
3992.000000	77.397274
3991.000000	77.399811
3990.000000	77.401754
3989.000000	77.404067
3988.000000	77.409132
3987.000000	77.418485
3986.000000	77.432056
3985.000000	77.448965
3984.000000	77.468397
3983.000000	77.489539
3982.000000	77.511493
3981.000000	77.534005
3980.000000	77.557606
3979.000000	77.583161
3978.000000	77.611222
3977.000000	77.641259
3976.000000	77.671926
3975.000000	77.701611
3974.000000	77.729357
3973.000000	77.755363
3972.000000	77.779957
3971.000000	77.803311
3970.000000	77.825296
3969.000000	77.846232
3968.000000	77.867697
3967.000000	77.891582
3966.000000	77.918967
3965.000000	77.949744
3964.000000	77.982746
3963.000000	78.015988
3962.000000	78.048576
3961.000000	78.081471
3960.000000	78.116096
3959.000000	78.153254
3958.000000	78.191604
3957.000000	78.229224
3956.000000	78.266221
3955.000000	78.304418
3954.000000	78.345642
3953.000000	78.388824
3952.000000	78.429565
3951.000000	78.462312
3950.000000	78.483334
3949.000000	78.494306
3948.000000	78.503702
3947.000000	78.522443
3946.000000	78.555925
3945.000000	78.599083
3944.000000	78.638502
3943.000000	78.662123
3942.000000	78.671957
3941.000000	78.682526
3940.000000	78.704464
3939.000000	78.737148
3938.000000	78.772237
3937.000000	78.803557
3936.000000	78.832450
3935.000000	78.861682
3934.000000	78.891532
3933.000000	78.918329
3932.000000	78.939812
3931.000000	78.958271
3930.000000	78.976100
3929.000000	78.997456
3928.000000	79.025074
3927.000000	79.056579
3926.000000	79.082780
3925.000000	79.092592
3924.000000	79.086396
3923.000000	79.076584
3922.000000	79.072529
3921.000000	79.073289
3920.000000	79.073956
3919.000000	79.074038
3918.000000	79.077255
3917.000000	79.086520
3916.000000	79.102320
3915.000000	79.123109
3914.000000	79.146881
3913.000000	79.171100
3912.000000	79.192376
3911.000000	79.211936
3910.000000	79.234196
3909.000000	79.263987
3908.000000	79.304337
3907.000000	79.347366
3906.000000	79.373931
3905.000000	79.363846
3904.000000	79.319891
3903.000000	79.276634
3902.000000	79.268005
3901.000000	79.296360
3900.000000	79.337590
3899.000000	79.370409
3898.000000	79.395190
3897.000000	79.425155
3896.000000	79.466360
3895.000000	79.518441
3894.000000	79.575340
3893.000000	79.625154
3892.000000	79.651226
3891.000000	79.652496
3890.000000	79.650185
3889.000000	79.664821
3888.000000	79.700086
3887.000000	79.741656
3886.000000	79.771145
3885.000000	79.792631
3884.000000	79.827057
3883.000000	79.880490
3882.000000	79.927663
3881.000000	79.936265
3880.000000	79.907523
3879.000000	79.879217
3878.000000	79.883637
3877.000000	79.920140
3876.000000	79.964067
3875.000000	79.989228
3874.000000	79.989561
3873.000000	79.984205
3872.000000	79.990937
3871.000000	80.000657
3870.000000	79.995486
3869.000000	79.988507
3868.000000	80.008328
3867.000000	80.057027
3866.000000	80.107578
3865.000000	80.131851
3864.000000	80.129006
3863.000000	80.123686
3862.000000	80.131579
3861.000000	80.150314
3860.000000	80.177044
3859.000000	80.219516
3858.000000	80.291474
3857.000000	80.396894
3856.000000	80.515149
3855.000000	80.592170
3854.000000	80.575624
3853.000000	80.507724
3852.000000	80.476219
3851.000000	80.486509
3850.000000	80.491756
3849.000000	80.473328
3848.000000	80.446419
3847.000000	80.437350
3846.000000	80.457033
3845.000000	80.494751
3844.000000	80.532100
3843.000000	80.560430
3842.000000	80.584232
3841.000000	80.613083
3840.000000	80.642410
3839.000000	80.657903
3838.000000	80.662880
3837.000000	80.675565
3836.000000	80.704599
3835.000000	80.739081
3834.000000	80.764032
3833.000000	80.775758
3832.000000	80.780476
3831.000000	80.788644
3830.000000	80.809992
3829.000000	80.845489
3828.000000	80.882786
3827.000000	80.907670
3826.000000	80.917589
3825.000000	80.928816
3824.000000	80.959415
3823.000000	81.007186
3822.000000	81.042719
3821.000000	81.044483
3820.000000	81.039072
3819.000000	81.061794
3818.000000	81.108426
3817.000000	81.144903
3816.000000	81.153362
3815.000000	81.157634
3814.000000	81.186755
3813.000000	81.229766
3812.000000	81.255124
3811.000000	81.256017
3810.000000	81.256735
3809.000000	81.278794
3808.000000	81.312901
3807.000000	81.336829
3806.000000	81.353167
3805.000000	81.387562
3804.000000	81.446091
3803.000000	81.505255
3802.000000	81.528336
3801.000000	81.516243
3800.000000	81.511365
3799.000000	81.531563
3798.000000	81.552446
3797.000000	81.549217
3796.000000	81.531013
3795.000000	81.529262
3794.000000	81.559192
3793.000000	81.605362
3792.000000	81.644409
3791.000000	81.670261
3790.000000	81.691516
3789.000000	81.716026
3788.000000	81.744658
3787.000000	81.773787
3786.000000	81.798340
3785.000000	81.814522
3784.000000	81.823800
3783.000000	81.833727
3782.000000	81.849884
3781.000000	81.867982
3780.000000	81.876942
3779.000000	81.876153
3778.000000	81.880663
3777.000000	81.901429
3776.000000	81.930715
3775.000000	81.954672
3774.000000	81.971347
3773.000000	81.989547
3772.000000	82.013059
3771.000000	82.034320
3770.000000	82.045923
3769.000000	82.056840
3768.000000	82.081359
3767.000000	82.116903
3766.000000	82.148398
3765.000000	82.167318
3764.000000	82.182694
3763.000000	82.209806
3762.000000	82.250023
3761.000000	82.290898
3760.000000	82.318987
3759.000000	82.334725
3758.000000	82.349609
3757.000000	82.369861
3756.000000	82.396182
3755.000000	82.427964
3754.000000	82.462860
3753.000000	82.495729
3752.000000	82.519962
3751.000000	82.537470
3750.000000	82.560359
3749.000000	82.593488
3748.000000	82.636397
3747.000000	82.689345
3746.000000	82.741635
3745.000000	82.767186
3744.000000	82.771094
3743.000000	82.794004
3742.000000	82.836371
3741.000000	82.858284
3740.000000	82.840690
3739.000000	82.808323
3738.000000	82.804716
3737.000000	82.844486
3736.000000	82.905564
3735.000000	82.960170
3734.000000	83.003019
3733.000000	83.041965
3732.000000	83.075247
3731.000000	83.098947
3730.000000	83.116120
3729.000000	83.131255
3728.000000	83.146222
3727.000000	83.159293
3726.000000	83.173523
3725.000000	83.195869
3724.000000	83.226705
3723.000000	83.256554
3722.000000	83.276823
3721.000000	83.293510
3720.000000	83.314816
3719.000000	83.341139
3718.000000	83.367589
3717.000000	83.391828
3716.000000	83.418180
3715.000000	83.450067
3714.000000	83.485591
3713.000000	83.519030
3712.000000	83.546728
3711.000000	83.574394
3710.000000	83.612658
3709.000000	83.661581
3708.000000	83.710377
3707.000000	83.750677
3706.000000	83.785730
3705.000000	83.824740
3704.000000	83.871551
3703.000000	83.918862
3702.000000	83.955853
3701.000000	83.982362
3700.000000	84.006369
3699.000000	84.031829
3698.000000	84.055561
3697.000000	84.073253
3696.000000	84.085116
3695.000000	84.097722
3694.000000	84.117608
3693.000000	84.149256
3692.000000	84.191396
3691.000000	84.233186
3690.000000	84.259848
3689.000000	84.273594
3688.000000	84.294355
3687.000000	84.326299
3686.000000	84.354653
3685.000000	84.364708
3684.000000	84.355094
3683.000000	84.340639
3682.000000	84.341992
3681.000000	84.361641
3680.000000	84.384608
3679.000000	84.400340
3678.000000	84.416260
3677.000000	84.442485
3676.000000	84.465226
3675.000000	84.480342
3674.000000	84.503662
3673.000000	84.537995
3672.000000	84.567717
3671.000000	84.582367
3670.000000	84.585766
3669.000000	84.599913
3668.000000	84.638252
3667.000000	84.681522
3666.000000	84.703949
3665.000000	84.706669
3664.000000	84.707422
3663.000000	84.718681
3662.000000	84.738547
3661.000000	84.755350
3660.000000	84.765981
3659.000000	84.775829
3658.000000	84.789705
3657.000000	84.803582
3656.000000	84.811946
3655.000000	84.819190
3654.000000	84.827771
3653.000000	84.834313
3652.000000	84.837055
3651.000000	84.835467
3650.000000	84.830699
3649.000000	84.836737
3648.000000	84.870922
3647.000000	84.922569
3646.000000	84.964200
3645.000000	84.986408
3644.000000	84.999395
3643.000000	85.015522
3642.000000	85.038130
3641.000000	85.064804
3640.000000	85.093231
3639.000000	85.118772
3638.000000	85.135373
3637.000000	85.141540
3636.000000	85.141482
3635.000000	85.138327
3634.000000	85.129502
3633.000000	85.115707
3632.000000	85.104689
3631.000000	85.103315
3630.000000	85.105513
3629.000000	85.101468
3628.000000	85.103832
3627.000000	85.123555
3626.000000	85.136287
3625.000000	85.116457
3624.000000	85.070909
3623.000000	85.028243
3622.000000	85.009751
3621.000000	85.008954
3620.000000	84.995627
3619.000000	84.947969
3618.000000	84.875629
3617.000000	84.798560
3616.000000	84.723435
3615.000000	84.646186
3614.000000	84.560913
3613.000000	84.468770
3612.000000	84.381382
3611.000000	84.309504
3610.000000	84.254842
3609.000000	84.212478
3608.000000	84.172282
3607.000000	84.126077
3606.000000	84.070842
3605.000000	84.005128
3604.000000	83.932184
3603.000000	83.858365
3602.000000	83.788995
3601.000000	83.726710
3600.000000	83.671455
3599.000000	83.619503
3598.000000	83.566701
3597.000000	83.508792
3596.000000	83.443735
3595.000000	83.370818
3594.000000	83.290601
3593.000000	83.207000
3592.000000	83.124953
3591.000000	83.050524
3590.000000	82.992963
3589.000000	82.958102
3588.000000	82.938028
3587.000000	82.919790
3586.000000	82.899193
3585.000000	82.875809
3584.000000	82.846518
3583.000000	82.809785
3582.000000	82.769303
3581.000000	82.729850
3580.000000	82.692020
3579.000000	82.652272
3578.000000	82.606916
3577.000000	82.555266
3576.000000	82.497472
3575.000000	82.434305
3574.000000	82.365977
3573.000000	82.292049
3572.000000	82.211770
3571.000000	82.125454
3570.000000	82.036763
3569.000000	81.952321
3568.000000	81.873224
3567.000000	81.794267
3566.000000	81.712469
3565.000000	81.627422
3564.000000	81.535920
3563.000000	81.436605
3562.000000	81.331849
3561.000000	81.224981
3560.000000	81.116560
3559.000000	81.004539
3558.000000	80.887002
3557.000000	80.763936
3556.000000	80.636544
3555.000000	80.505460
3554.000000	80.369331
3553.000000	80.225090
3552.000000	80.071771
3551.000000	79.911578
3550.000000	79.745800
3549.000000	79.574023
3548.000000	79.395220
3547.000000	79.209838
3546.000000	79.019239
3545.000000	78.824974
3544.000000	78.627523
3543.000000	78.426251
3542.000000	78.219725
3541.000000	78.006683
3540.000000	77.786090
3539.000000	77.555039
3538.000000	77.309384
3537.000000	77.046034
3536.000000	76.766350
3535.000000	76.474361
3534.000000	76.173123
3533.000000	75.863361
3532.000000	75.544110
3531.000000	75.213043
3530.000000	74.865215
3529.000000	74.495879
3528.000000	74.104460
3527.000000	73.694455
3526.000000	73.269014
3525.000000	72.828792
3524.000000	72.373589
3523.000000	71.904049
3522.000000	71.421170
3521.000000	70.924254
3520.000000	70.410555
3519.000000	69.875792
3518.000000	69.317338
3517.000000	68.736620
3516.000000	68.138050
3515.000000	67.525174
3514.000000	66.899206
3513.000000	66.259700
3512.000000	65.603943
3511.000000	64.926195
3510.000000	64.222436
3509.000000	63.498010
3508.000000	62.764647
3507.000000	62.027752
3506.000000	61.280146
3505.000000	60.510576
3504.000000	59.716280
3503.000000	58.905911
3502.000000	58.091963
3501.000000	57.281808
3500.000000	56.474567
3499.000000	55.663235
3498.000000	54.841117
3497.000000	54.007826
3496.000000	53.169311
3495.000000	52.331973
3494.000000	51.499501
3493.000000	50.675096
3492.000000	49.861782
3491.000000	49.058885
3490.000000	48.262669
3489.000000	47.473380
3488.000000	46.698860
3487.000000	45.949147
3486.000000	45.229879
3485.000000	44.540468
3484.000000	43.874166
3483.000000	43.220613
3482.000000	42.574116
3481.000000	41.941328
3480.000000	41.335716
3479.000000	40.762712
3478.000000	40.214937
3477.000000	39.681470
3476.000000	39.155894
3475.000000	38.635973
3474.000000	38.121706
3473.000000	37.616339
3472.000000	37.125711
3471.000000	36.655722
3470.000000	36.215070
3469.000000	35.818877
3468.000000	35.483948
3467.000000	35.219322
3466.000000	35.024842
3465.000000	34.898463
3464.000000	34.838715
3463.000000	34.842453
3462.000000	34.908290
3461.000000	35.040772
3460.000000	35.245433
3459.000000	35.517943
3458.000000	35.843086
3457.000000	36.204237
3456.000000	36.587471
3455.000000	36.977934
3454.000000	37.359497
3453.000000	37.717860
3452.000000	38.040162
3451.000000	38.312055
3450.000000	38.517836
3449.000000	38.645259
3448.000000	38.687867
3447.000000	38.644097
3446.000000	38.519420
3445.000000	38.324518
3444.000000	38.069091
3443.000000	37.759855
3442.000000	37.405056
3441.000000	37.020170
3440.000000	36.624289
3439.000000	36.233703
3438.000000	35.864121
3437.000000	35.534805
3436.000000	35.264436
3435.000000	35.062825
3434.000000	34.930276
3433.000000	34.863726
3432.000000	34.862627
3431.000000	34.929444
3430.000000	35.070187
3429.000000	35.294301
3428.000000	35.607329
3427.000000	36.008213
3426.000000	36.492936
3425.000000	37.059582
3424.000000	37.708184
3423.000000	38.434206
3422.000000	39.230239
3421.000000	40.089136
3420.000000	41.002447
3419.000000	41.959201
3418.000000	42.946712
3417.000000	43.954234
3416.000000	44.972212
3415.000000	45.990756
3414.000000	47.002687
3413.000000	48.004488
3412.000000	48.991688
3411.000000	49.955952
3410.000000	50.889431
3409.000000	51.789649
3408.000000	52.657380
3407.000000	53.490594
3406.000000	54.284766
3405.000000	55.037538
3404.000000	55.749792
3403.000000	56.424861
3402.000000	57.069011
3401.000000	57.690858
3400.000000	58.296396
3399.000000	58.883535
3398.000000	59.445250
3397.000000	59.977708
3396.000000	60.482449
3395.000000	60.963233
3394.000000	61.423502
3393.000000	61.867786
3392.000000	62.301817
3391.000000	62.728941
3390.000000	63.148916
3389.000000	63.559324
3388.000000	63.957808
3387.000000	64.343417
3386.000000	64.717387
3385.000000	65.082861
3384.000000	65.442209
3383.000000	65.795592
3382.000000	66.143000
3381.000000	66.486067
3380.000000	66.826451
3379.000000	67.163763
3378.000000	67.497031
3377.000000	67.827161
3376.000000	68.155382
3375.000000	68.480538
3374.000000	68.799896
3373.000000	69.112052
3372.000000	69.417393
3371.000000	69.716588
3370.000000	70.011115
3369.000000	70.304046
3368.000000	70.598086
3367.000000	70.893026
3366.000000	71.186341
3365.000000	71.475626
3364.000000	71.759050
3363.000000	72.034909
3362.000000	72.302885
3361.000000	72.564943
3360.000000	72.823445
3359.000000	73.078780
3358.000000	73.329967
3357.000000	73.576760
3356.000000	73.819213
3355.000000	74.056536
3354.000000	74.287902
3353.000000	74.513989
3352.000000	74.736499
3351.000000	74.956422
3350.000000	75.173694
3349.000000	75.387614
3348.000000	75.596556
3347.000000	75.798352
3346.000000	75.992428
3345.000000	76.180842
3344.000000	76.365864
3343.000000	76.546881
3342.000000	76.721118
3341.000000	76.886743
3340.000000	77.044344
3339.000000	77.196029
3338.000000	77.343727
3337.000000	77.488028
3336.000000	77.627181
3335.000000	77.757767
3334.000000	77.877217
3333.000000	77.984750
3332.000000	78.080025
3331.000000	78.161629
3330.000000	78.227810
3329.000000	78.278043
3328.000000	78.312360
3327.000000	78.330651
3326.000000	78.332769
3325.000000	78.317964
3324.000000	78.283520
3323.000000	78.223958
3322.000000	78.134068
3321.000000	78.011693
3320.000000	77.856041
3319.000000	77.665717
3318.000000	77.437358
3317.000000	77.167178
3316.000000	76.850407
3315.000000	76.479601
3314.000000	76.046754
3313.000000	75.543943
3312.000000	74.962840
3311.000000	74.294875
3310.000000	73.531726
3309.000000	72.670042
3308.000000	71.708051
3307.000000	70.641628
3306.000000	69.465032
3305.000000	68.169779
3304.000000	66.747696
3303.000000	65.188001
3302.000000	63.481170
3301.000000	61.625253
3300.000000	59.624271
3299.000000	57.490161
3298.000000	55.247246
3297.000000	52.936275
3296.000000	50.610343
3295.000000	48.322879
3294.000000	46.123909
3293.000000	44.061836
3292.000000	42.177221
3291.000000	40.488812
3290.000000	38.992432
3289.000000	37.665839
3288.000000	36.476442
3287.000000	35.388169
3286.000000	34.367041
3285.000000	33.392022
3284.000000	32.452919
3283.000000	31.548144
3282.000000	30.688977
3281.000000	29.899521
3280.000000	29.211720
3279.000000	28.655503
3278.000000	28.258043
3277.000000	28.046962
3276.000000	28.040006
3275.000000	28.237115
3274.000000	28.620174
3273.000000	29.156246
3272.000000	29.800424
3271.000000	30.493224
3270.000000	31.168157
3269.000000	31.761390
3268.000000	32.215780
3267.000000	32.485362
3266.000000	32.545920
3265.000000	32.399821
3264.000000	32.070464
3263.000000	31.596899
3262.000000	31.029366
3261.000000	30.429164
3260.000000	29.857865
3259.000000	29.366413
3258.000000	28.995555
3257.000000	28.778321
3256.000000	28.733555
3255.000000	28.860419
3254.000000	29.143366
3253.000000	29.557029
3252.000000	30.070234
3251.000000	30.644100
3250.000000	31.238763
3249.000000	31.821948
3248.000000	32.366849
3247.000000	32.850036
3246.000000	33.253547
3245.000000	33.568128
3244.000000	33.790769
3243.000000	33.923847
3242.000000	33.976292
3241.000000	33.964613
3240.000000	33.906925
3239.000000	33.815220
3238.000000	33.699007
3237.000000	33.567977
3236.000000	33.430667
3235.000000	33.293351
3234.000000	33.161477
3233.000000	33.039381
3232.000000	32.922915
3231.000000	32.797587
3230.000000	32.648406
3229.000000	32.467580
3228.000000	32.251508
3227.000000	31.995048
3226.000000	31.694126
3225.000000	31.350500
3224.000000	30.967870
3223.000000	30.548685
3222.000000	30.097912
3221.000000	29.627201
3220.000000	29.151225
3219.000000	28.681146
3218.000000	28.225040
3217.000000	27.789059
3216.000000	27.373964
3215.000000	26.974349
3214.000000	26.585262
3213.000000	26.205629
3212.000000	25.832550
3211.000000	25.458227
3210.000000	25.077184
3209.000000	24.692853
3208.000000	24.312515
3207.000000	23.940871
3206.000000	23.582938
3205.000000	23.247250
3204.000000	22.942014
3203.000000	22.671472
3202.000000	22.440203
3201.000000	22.256848
3200.000000	22.127495
3199.000000	22.052298
3198.000000	22.030816
3197.000000	22.065911
3196.000000	22.159340
3195.000000	22.305871
3194.000000	22.499796
3193.000000	22.739458
3192.000000	23.021708
3191.000000	23.339552
3190.000000	23.686408
3189.000000	24.060720
3188.000000	24.460773
3187.000000	24.879608
3186.000000	25.310732
3185.000000	25.752197
3184.000000	26.202652
3183.000000	26.657754
3182.000000	27.114342
3181.000000	27.573718
3180.000000	28.035968
3179.000000	28.496345
3178.000000	28.950504
3177.000000	29.398605
3176.000000	29.840527
3175.000000	30.271998
3174.000000	30.689303
3173.000000	31.093139
3172.000000	31.484652
3171.000000	31.861515
3170.000000	32.222182
3169.000000	32.569226
3168.000000	32.904511
3167.000000	33.225977
3166.000000	33.531352
3165.000000	33.821441
3164.000000	34.096164
3163.000000	34.351419
3162.000000	34.584317
3161.000000	34.796139
3160.000000	34.988155
3159.000000	35.158752
3158.000000	35.307297
3157.000000	35.437830
3156.000000	35.554715
3155.000000	35.659823
3154.000000	35.757067
3153.000000	35.854584
3152.000000	35.959179
3151.000000	36.071801
3150.000000	36.191817
3149.000000	36.321365
3148.000000	36.462204
3147.000000	36.612493
3146.000000	36.770389
3145.000000	36.936867
3144.000000	37.111706
3143.000000	37.290925
3142.000000	37.471004
3141.000000	37.652109
3140.000000	37.834006
3139.000000	38.012723
3138.000000	38.184122
3137.000000	38.346632
3136.000000	38.497222
3135.000000	38.628248
3134.000000	38.732127
3133.000000	38.804304
3132.000000	38.839753
3131.000000	38.829898
3130.000000	38.765610
3129.000000	38.641969
3128.000000	38.455842
3127.000000	38.205979
3126.000000	37.897940
3125.000000	37.544605
3124.000000	37.161122
3123.000000	36.760355
3122.000000	36.356312
3121.000000	35.965041
3120.000000	35.597421
3119.000000	35.255115
3118.000000	34.936037
3117.000000	34.639800
3116.000000	34.364814
3115.000000	34.105791
3114.000000	33.857555
3113.000000	33.618025
3112.000000	33.384698
3111.000000	33.153402
3110.000000	32.924658
3109.000000	32.705792
3108.000000	32.504264
3107.000000	32.323530
3106.000000	32.167353
3105.000000	32.043904
3104.000000	31.960440
3103.000000	31.920097
3102.000000	31.927543
3101.000000	31.991112
3100.000000	32.118147
3099.000000	32.309524
3098.000000	32.563435
3097.000000	32.879835
3096.000000	33.255811
3095.000000	33.684781
3094.000000	34.160616
3093.000000	34.680118
3092.000000	35.239404
3091.000000	35.830483
3090.000000	36.446043
3089.000000	37.080724
3088.000000	37.726783
3087.000000	38.374194
3086.000000	39.016677
3085.000000	39.654023
3084.000000	40.285363
3083.000000	40.905403
3082.000000	41.509495
3081.000000	42.097698
3080.000000	42.671305
3079.000000	43.229706
3078.000000	43.773185
3077.000000	44.303438
3076.000000	44.819573
3075.000000	45.316984
3074.000000	45.792864
3073.000000	46.249308
3072.000000	46.688385
3071.000000	47.109401
3070.000000	47.512301
3069.000000	47.900103
3068.000000	48.275818
3067.000000	48.639529
3066.000000	48.991268
3065.000000	49.332803
3064.000000	49.664952
3063.000000	49.986745
3062.000000	50.298188
3061.000000	50.601246
3060.000000	50.896317
3059.000000	51.181212
3058.000000	51.455543
3057.000000	51.722251
3056.000000	51.983850
3055.000000	52.240118
3054.000000	52.490943
3053.000000	52.738393
3052.000000	52.983839
3051.000000	53.226325
3050.000000	53.464883
3049.000000	53.699470
3048.000000	53.928889
3047.000000	54.150941
3046.000000	54.366242
3045.000000	54.578723
3044.000000	54.790891
3043.000000	55.001944
3042.000000	55.211313
3041.000000	55.420422
3040.000000	55.629235
3039.000000	55.834360
3038.000000	56.032983
3037.000000	56.225951
3036.000000	56.415842
3035.000000	56.604713
3034.000000	56.794621
3033.000000	56.987225
3032.000000	57.181162
3031.000000	57.372927
3030.000000	57.561433
3029.000000	57.748457
3028.000000	57.933937
3027.000000	58.114889
3026.000000	58.290297
3025.000000	58.463101
3024.000000	58.635014
3023.000000	58.803002
3022.000000	58.962650
3021.000000	59.111400
3020.000000	59.246693
3019.000000	59.363337
3018.000000	59.455715
3017.000000	59.520365
3016.000000	59.555449
3015.000000	59.561593
3014.000000	59.545584
3013.000000	59.522345
3012.000000	59.510834
3011.000000	59.529058
3010.000000	59.591476
3009.000000	59.705673
3008.000000	59.867739
3007.000000	60.062317
3006.000000	60.268989
3005.000000	60.467509
3004.000000	60.637201
3003.000000	60.754798
3002.000000	60.795957
3001.000000	60.738145
3000.000000	60.566543
2999.000000	60.284926
2998.000000	59.928247
2997.000000	59.563579
2996.000000	59.273060
2995.000000	59.128784
2994.000000	59.170556
2993.000000	59.395272
2992.000000	59.758562
2991.000000	60.194133
2990.000000	60.639923
2989.000000	61.054890
2988.000000	61.419928
2987.000000	61.730348
2986.000000	61.990401
2985.000000	62.207682
2984.000000	62.388029
2983.000000	62.533118
2982.000000	62.643527
2981.000000	62.719937
2980.000000	62.760788
2979.000000	62.761106
2978.000000	62.715590
2977.000000	62.623527
2976.000000	62.490406
2975.000000	62.329927
2974.000000	62.164790
2973.000000	62.021807
2972.000000	61.922085
2971.000000	61.872752
2970.000000	61.864622
2969.000000	61.871469
2968.000000	61.851200
2967.000000	61.756846
2966.000000	61.557135
2965.000000	61.252436
2964.000000	60.874634
2963.000000	60.474225
2962.000000	60.105292
2961.000000	59.811743
2960.000000	59.619574
2959.000000	59.537622
2958.000000	59.565811
2957.000000	59.698088
2956.000000	59.918728
2955.000000	60.201859
2954.000000	60.517148
2953.000000	60.834716
2952.000000	61.123610
2951.000000	61.354961
2950.000000	61.511378
2949.000000	61.594920
2948.000000	61.623266
2947.000000	61.615990
2946.000000	61.577723
2945.000000	61.481925
2944.000000	61.270445
2943.000000	60.882821
2942.000000	60.311348
2941.000000	59.641889
2940.000000	59.043576
2939.000000	58.703375
2938.000000	58.740916
2937.000000	59.157320
2936.000000	59.844195
2935.000000	60.646180
2934.000000	61.430307
2933.000000	62.121558
2932.000000	62.697256
2931.000000	63.166601
2930.000000	63.553951
2929.000000	63.885280
2928.000000	64.179800
2927.000000	64.447803
2926.000000	64.696029
2925.000000	64.929984
2924.000000	65.151492
2923.000000	65.358284
2922.000000	65.548441
2921.000000	65.722283
2920.000000	65.879201
2919.000000	66.017251
2918.000000	66.136689
2917.000000	66.241008
2916.000000	66.333237
2915.000000	66.414042
2914.000000	66.484439
2913.000000	66.546784
2912.000000	66.601946
2911.000000	66.648134
2910.000000	66.683283
2909.000000	66.705744
2908.000000	66.711636
2907.000000	66.693457
2906.000000	66.642491
2905.000000	66.549011
2904.000000	66.400159
2903.000000	66.180839
2902.000000	65.883155
2901.000000	65.511902
2900.000000	65.086722
2899.000000	64.643407
2898.000000	64.231036
2897.000000	63.903539
2896.000000	63.702673
2895.000000	63.645503
2894.000000	63.724425
2893.000000	63.913668
2892.000000	64.177670
2891.000000	64.479963
2890.000000	64.792374
2889.000000	65.097219
2888.000000	65.383531
2887.000000	65.644085
2886.000000	65.875743
2885.000000	66.079251
2884.000000	66.255511
2883.000000	66.404877
2882.000000	66.529987
2881.000000	66.636543
2880.000000	66.730248
2879.000000	66.815113
2878.000000	66.895051
2877.000000	66.973907
2876.000000	67.052783
2875.000000	67.129618
2874.000000	67.202666
2873.000000	67.272049
2872.000000	67.337977
2871.000000	67.401038
2870.000000	67.465297
2869.000000	67.538005
2868.000000	67.624310
2867.000000	67.723946
2866.000000	67.833359
2865.000000	67.947909
2864.000000	68.061263
2863.000000	68.166562
2862.000000	68.260449
2861.000000	68.344162
2860.000000	68.419986
2859.000000	68.489145
2858.000000	68.553919
2857.000000	68.618591
2856.000000	68.686710
2855.000000	68.759678
2854.000000	68.838707
2853.000000	68.924897
2852.000000	69.015831
2851.000000	69.104873
2850.000000	69.185723
2849.000000	69.256029
2848.000000	69.316300
2847.000000	69.368182
2846.000000	69.414946
2845.000000	69.460879
2844.000000	69.508381
2843.000000	69.557157
2842.000000	69.607160
2841.000000	69.660538
2840.000000	69.719808
2839.000000	69.786044
2838.000000	69.859471
2837.000000	69.939757
2836.000000	70.024984
2835.000000	70.112191
2834.000000	70.199562
2833.000000	70.286579
2832.000000	70.372082
2831.000000	70.454480
2830.000000	70.534181
2829.000000	70.613443
2828.000000	70.693277
2827.000000	70.772735
2826.000000	70.851423
2825.000000	70.930142
2824.000000	71.008481
2823.000000	71.084223
2822.000000	71.155997
2821.000000	71.224286
2820.000000	71.289183
2819.000000	71.349596
2818.000000	71.405450
2817.000000	71.458439
2816.000000	71.509677
2815.000000	71.558537
2814.000000	71.604587
2813.000000	71.648660
2812.000000	71.691375
2811.000000	71.732698
2810.000000	71.773527
2809.000000	71.815548
2808.000000	71.858783
2807.000000	71.901274
2806.000000	71.941745
2805.000000	71.980520
2804.000000	72.017381
2803.000000	72.050957
2802.000000	72.081087
2801.000000	72.109795
2800.000000	72.139234
2799.000000	72.170571
2798.000000	72.205180
2797.000000	72.244294
2796.000000	72.286479
2795.000000	72.327611
2794.000000	72.364320
2793.000000	72.395805
2792.000000	72.422165
2791.000000	72.443565
2790.000000	72.461841
2789.000000	72.480411
2788.000000	72.501309
2787.000000	72.524032
2786.000000	72.547954
2785.000000	72.573809
2784.000000	72.602015
2783.000000	72.631819
2782.000000	72.663127
2781.000000	72.697152
2780.000000	72.734444
2779.000000	72.774098
2778.000000	72.815627
2777.000000	72.859712
2776.000000	72.906367
2775.000000	72.954282
2774.000000	73.002668
2773.000000	73.051757
2772.000000	73.100882
2771.000000	73.148086
2770.000000	73.192350
2769.000000	73.234361
2768.000000	73.274503
2767.000000	73.311998
2766.000000	73.346593
2765.000000	73.378930
2764.000000	73.408548
2763.000000	73.433721
2762.000000	73.454106
2761.000000	73.471846
2760.000000	73.489362
2759.000000	73.507789
2758.000000	73.527979
2757.000000	73.550602
2756.000000	73.574237
2755.000000	73.595353
2754.000000	73.611304
2753.000000	73.622298
2752.000000	73.630276
2751.000000	73.637772
2750.000000	73.648216
2749.000000	73.664849
2748.000000	73.688023
2747.000000	73.714953
2746.000000	73.742610
2745.000000	73.769384
2744.000000	73.794037
2743.000000	73.815361
2742.000000	73.833341
2741.000000	73.848520
2740.000000	73.859681
2739.000000	73.864424
2738.000000	73.863118
2737.000000	73.860816
2736.000000	73.864719
2735.000000	73.881237
2734.000000	73.914976
2733.000000	73.967016
2732.000000	74.032838
2731.000000	74.103972
2730.000000	74.172978
2729.000000	74.236265
2728.000000	74.292595
2727.000000	74.341656
2726.000000	74.384815
2725.000000	74.424606
2724.000000	74.462011
2723.000000	74.495854
2722.000000	74.525169
2721.000000	74.550126
2720.000000	74.570506
2719.000000	74.585521
2718.000000	74.596201
2717.000000	74.605992
2716.000000	74.617894
2715.000000	74.632688
2714.000000	74.650345
2713.000000	74.671039
2712.000000	74.694105
2711.000000	74.718044
2710.000000	74.742510
2709.000000	74.768718
2708.000000	74.797293
2707.000000	74.827373
2706.000000	74.858138
2705.000000	74.889084
2704.000000	74.918110
2703.000000	74.941435
2702.000000	74.956234
2701.000000	74.961726
2700.000000	74.957772
2699.000000	74.944617
2698.000000	74.924716
2697.000000	74.902883
2696.000000	74.883414
2695.000000	74.868547
2694.000000	74.859612
2693.000000	74.857037
2692.000000	74.858569
2691.000000	74.859839
2690.000000	74.857933
2689.000000	74.853184
2688.000000	74.847337
2687.000000	74.842013
2686.000000	74.839359
2685.000000	74.841641
2684.000000	74.849238
2683.000000	74.861023
2682.000000	74.877088
2681.000000	74.899108
2680.000000	74.927330
2679.000000	74.959287
2678.000000	74.992249
2677.000000	75.024660
2676.000000	75.054765
2675.000000	75.080292
2674.000000	75.100381
2673.000000	75.115873
2672.000000	75.127084
2671.000000	75.133411
2670.000000	75.135948
2669.000000	75.138500
2668.000000	75.145062
2667.000000	75.158081
2666.000000	75.179407
2665.000000	75.210163
2664.000000	75.248314
2663.000000	75.288392
2662.000000	75.324761
2661.000000	75.353844
2660.000000	75.373320
2659.000000	75.381855
2658.000000	75.380821
2657.000000	75.374415
2656.000000	75.366912
2655.000000	75.361142
2654.000000	75.359939
2653.000000	75.366520
2652.000000	75.382226
2651.000000	75.405668
2650.000000	75.434855
2649.000000	75.468398
2648.000000	75.504442
2647.000000	75.540574
2646.000000	75.575702
2645.000000	75.610409
2644.000000	75.644740
2643.000000	75.677821
2642.000000	75.710143
2641.000000	75.743927
2640.000000	75.780267
2639.000000	75.817694
2638.000000	75.854309
2637.000000	75.889390
2636.000000	75.922248
2635.000000	75.951477
2634.000000	75.976460
2633.000000	75.997907
2632.000000	76.016217
2631.000000	76.031082
2630.000000	76.043111
2629.000000	76.054108
2628.000000	76.064885
2627.000000	76.074445
2626.000000	76.082031
2625.000000	76.088005
2624.000000	76.092347
2623.000000	76.094248
2622.000000	76.093846
2621.000000	76.092694
2620.000000	76.091648
2619.000000	76.090139
2618.000000	76.087864
2617.000000	76.085116
2616.000000	76.080857
2615.000000	76.072289
2614.000000	76.057357
2613.000000	76.036140
2612.000000	76.009420
2611.000000	75.978161
2610.000000	75.945051
2609.000000	75.914626
2608.000000	75.890942
2607.000000	75.876463
2606.000000	75.873113
2605.000000	75.882351
2604.000000	75.903348
2603.000000	75.932930
2602.000000	75.968270
2601.000000	76.007436
2600.000000	76.047566
2599.000000	76.084906
2598.000000	76.117303
2597.000000	76.145107
2596.000000	76.169151
2595.000000	76.190093
2594.000000	76.210123
2593.000000	76.232742
2592.000000	76.259711
2591.000000	76.289914
2590.000000	76.321490
2589.000000	76.352954
2588.000000	76.381884
2587.000000	76.405027
2586.000000	76.420969
2585.000000	76.431086
2584.000000	76.437505
2583.000000	76.442289
2582.000000	76.449058
2581.000000	76.462824
2580.000000	76.486962
2579.000000	76.521803
2578.000000	76.566288
2577.000000	76.619052
2576.000000	76.677171
2575.000000	76.736390
2574.000000	76.793791
2573.000000	76.848454
2572.000000	76.899470
2571.000000	76.945454
2570.000000	76.986563
2569.000000	77.024763
2568.000000	77.061326
2567.000000	77.095975
2566.000000	77.129141
2565.000000	77.162889
2564.000000	77.198491
2563.000000	77.235084
2562.000000	77.271284
2561.000000	77.306325
2560.000000	77.339065
2559.000000	77.367888
2558.000000	77.392619
2557.000000	77.414783
2556.000000	77.435522
2555.000000	77.455235
2554.000000	77.475637
2553.000000	77.499883
2552.000000	77.529613
2551.000000	77.563607
2550.000000	77.599912
2549.000000	77.637326
2548.000000	77.674177
2547.000000	77.707946
2546.000000	77.737187
2545.000000	77.762267
2544.000000	77.783552
2543.000000	77.800798
2542.000000	77.814827
2541.000000	77.827603
2540.000000	77.839955
2539.000000	77.850681
2538.000000	77.858603
2537.000000	77.863397
2536.000000	77.863602
2535.000000	77.856448
2534.000000	77.840413
2533.000000	77.816579
2532.000000	77.786844
2531.000000	77.752567
2530.000000	77.716010
2529.000000	77.680699
2528.000000	77.649284
2527.000000	77.622546
2526.000000	77.600877
2525.000000	77.584658
2524.000000	77.572358
2523.000000	77.560352
2522.000000	77.545648
2521.000000	77.527092
2520.000000	77.503538
2519.000000	77.473151
2518.000000	77.435616
2517.000000	77.393112
2516.000000	77.347939
2515.000000	77.301210
2514.000000	77.254434
2513.000000	77.210261
2512.000000	77.170673
2511.000000	77.136404
2510.000000	77.108799
2509.000000	77.090220
2508.000000	77.081722
2507.000000	77.081974
2506.000000	77.089792
2505.000000	77.105248
2504.000000	77.127725
2503.000000	77.155218
2502.000000	77.185998
2501.000000	77.219522
2500.000000	77.254673
2499.000000	77.289095
2498.000000	77.321194
2497.000000	77.350552
2496.000000	77.375850
2495.000000	77.394701
2494.000000	77.406331
2493.000000	77.412357
2492.000000	77.414515
2491.000000	77.413664
2490.000000	77.411790
2489.000000	77.412517
2488.000000	77.418271
2487.000000	77.428878
2486.000000	77.443524
2485.000000	77.461830
2484.000000	77.482185
2483.000000	77.501446
2482.000000	77.517502
2481.000000	77.530500
2480.000000	77.541099
2479.000000	77.549750
2478.000000	77.558542
2477.000000	77.571164
2476.000000	77.589939
2475.000000	77.614722
2474.000000	77.645163
2473.000000	77.681855
2472.000000	77.724182
2471.000000	77.769594
2470.000000	77.816125
2469.000000	77.863284
2468.000000	77.909885
2467.000000	77.953346
2466.000000	77.992330
2465.000000	78.027902
2464.000000	78.061089
2463.000000	78.091453
2462.000000	78.119059
2461.000000	78.145396
2460.000000	78.170937
2459.000000	78.194205
2458.000000	78.214221
2457.000000	78.231829
2456.000000	78.247367
2455.000000	78.259153
2454.000000	78.266005
2453.000000	78.269161
2452.000000	78.270633
2451.000000	78.271633
2450.000000	78.273841
2449.000000	78.280126
2448.000000	78.292565
2447.000000	78.311405
2446.000000	78.336802
2445.000000	78.369505
2444.000000	78.408313
2443.000000	78.449173
2442.000000	78.488174
2441.000000	78.523701
2440.000000	78.554932
2439.000000	78.580660
2438.000000	78.601312
2437.000000	78.619979
2436.000000	78.639664
2435.000000	78.660773
2434.000000	78.682295
2433.000000	78.703201
2432.000000	78.721164
2431.000000	78.732398
2430.000000	78.734440
2429.000000	78.728033
2428.000000	78.714875
2427.000000	78.695185
2426.000000	78.669162
2425.000000	78.638499
2424.000000	78.605156
2423.000000	78.570306
2422.000000	78.536003
2421.000000	78.506161
2420.000000	78.483905
2419.000000	78.469427
2418.000000	78.461716
2417.000000	78.460624
2416.000000	78.465430
2415.000000	78.473297
2414.000000	78.480761
2413.000000	78.485228
2412.000000	78.483742
2411.000000	78.472442
2410.000000	78.449216
2409.000000	78.415667
2408.000000	78.375195
2407.000000	78.330533
2406.000000	78.284651
2405.000000	78.241499
2404.000000	78.203616
2403.000000	78.170477
2402.000000	78.140870
2401.000000	78.115338
2400.000000	78.094674
2399.000000	78.078037
2398.000000	78.064418
2397.000000	78.054269
2396.000000	78.047527
2395.000000	78.041574
2394.000000	78.032927
2393.000000	78.019769
2392.000000	78.000723
2391.000000	77.973908
2390.000000	77.939832
2389.000000	77.902846
2388.000000	77.869581
2387.000000	77.844921
2386.000000	77.833060
2385.000000	77.840185
2384.000000	77.870060
2383.000000	77.921907
2382.000000	77.990299
2381.000000	78.068853
2380.000000	78.151210
2379.000000	78.227602
2378.000000	78.288390
2377.000000	78.330117
2376.000000	78.354271
2375.000000	78.362529
2374.000000	78.357931
2373.000000	78.346691
2372.000000	78.335171
2371.000000	78.324461
2370.000000	78.309458
2369.000000	78.292257
2368.000000	78.280906
2367.000000	78.279040
2366.000000	78.284946
2365.000000	78.304405
2364.000000	78.354156
2363.000000	78.424045
2362.000000	78.496708
2361.000000	78.574073
2360.000000	78.644960
2359.000000	78.704796
2358.000000	78.735414
2357.000000	78.729029
2356.000000	78.693233
2355.000000	78.620498
2354.000000	78.534017
2353.000000	78.474916
2352.000000	78.506898
2351.000000	78.634191
2350.000000	78.764077
2349.000000	78.821893
2348.000000	78.790056
2347.000000	78.755991
2346.000000	78.787211
2345.000000	78.870163
2344.000000	78.953320
2343.000000	78.983943
2342.000000	78.994238
2341.000000	79.003710
2340.000000	79.014400
2339.000000	79.012935
2338.000000	79.001711
2337.000000	78.987729
2336.000000	78.978925
2335.000000	78.970167
2334.000000	78.969725
2333.000000	78.966466
2332.000000	78.949504
2331.000000	78.907390
2330.000000	78.831069
2329.000000	78.754234
2328.000000	78.676052
2327.000000	78.614697
2326.000000	78.568389
2325.000000	78.538612
2324.000000	78.528317
2323.000000	78.513739
2322.000000	78.495634
2321.000000	78.459078
2320.000000	78.413508
2319.000000	78.360312
2318.000000	78.313212
2317.000000	78.279029
2316.000000	78.256736
2315.000000	78.242472
2314.000000	78.228231
2313.000000	78.209142
2312.000000	78.172764
2311.000000	78.116484
2310.000000	78.041030
2309.000000	77.954046
2308.000000	77.857342
2307.000000	77.753836
2306.000000	77.650060
2305.000000	77.551849
2304.000000	77.462630
2303.000000	77.380112
2302.000000	77.303310
2301.000000	77.230444
2300.000000	77.156324
2299.000000	77.078806
2298.000000	76.998320
2297.000000	76.922173
2296.000000	76.852836
2295.000000	76.795299
2294.000000	76.753412
2293.000000	76.732741
2292.000000	76.732443
2291.000000	76.748621
2290.000000	76.777487
2289.000000	76.816217
2288.000000	76.861985
2287.000000	76.912699
2286.000000	76.970623
2285.000000	77.038141
2284.000000	77.114509
2283.000000	77.194866
2282.000000	77.275859
2281.000000	77.354328
2280.000000	77.426249
2279.000000	77.486961
2278.000000	77.536386
2277.000000	77.578341
2276.000000	77.617062
2275.000000	77.656688
2274.000000	77.701492
2273.000000	77.755233
2272.000000	77.817471
2271.000000	77.885544
2270.000000	77.958228
2269.000000	78.035591
2268.000000	78.116819
2267.000000	78.201083
2266.000000	78.289772
2265.000000	78.385973
2264.000000	78.489440
2263.000000	78.597637
2262.000000	78.707799
2261.000000	78.816840
2260.000000	78.920303
2259.000000	79.012722
2258.000000	79.092682
2257.000000	79.161374
2256.000000	79.221200
2255.000000	79.274996
2254.000000	79.327628
2253.000000	79.383897
2252.000000	79.444660
2251.000000	79.508006
2250.000000	79.572463
2249.000000	79.636889
2248.000000	79.698215
2247.000000	79.753337
2246.000000	79.801554
2245.000000	79.844894
2244.000000	79.884821
2243.000000	79.921946
2242.000000	79.957602
2241.000000	79.992823
2240.000000	80.025640
2239.000000	80.052111
2238.000000	80.070229
2237.000000	80.080656
2236.000000	80.084820
2235.000000	80.084700
2234.000000	80.084364
2233.000000	80.088304
2232.000000	80.098002
2231.000000	80.111981
2230.000000	80.128655
2229.000000	80.146592
2228.000000	80.162848
2227.000000	80.174402
2226.000000	80.181532
2225.000000	80.187417
2224.000000	80.194465
2223.000000	80.203414
2222.000000	80.215157
2221.000000	80.230352
2220.000000	80.247048
2219.000000	80.261596
2218.000000	80.272220
2217.000000	80.279802
2216.000000	80.285770
2215.000000	80.291885
2214.000000	80.301744
2213.000000	80.319354
2212.000000	80.345823
2211.000000	80.379346
2210.000000	80.417829
2209.000000	80.458774
2208.000000	80.497339
2207.000000	80.527995
2206.000000	80.548661
2205.000000	80.561013
2204.000000	80.566912
2203.000000	80.567311
2202.000000	80.564356
2201.000000	80.561297
2200.000000	80.559548
2199.000000	80.558138
2198.000000	80.556368
2197.000000	80.554754
2196.000000	80.553532
2195.000000	80.552854
2194.000000	80.554821
2193.000000	80.562845
2192.000000	80.578530
2191.000000	80.601088
2190.000000	80.629424
2189.000000	80.662466
2188.000000	80.697644
2187.000000	80.731878
2186.000000	80.764330
2185.000000	80.796133
2184.000000	80.827685
2183.000000	80.858478
2182.000000	80.889254
2181.000000	80.921422
2180.000000	80.954239
2179.000000	80.984790
2178.000000	81.010744
2177.000000	81.031031
2176.000000	81.044327
2175.000000	81.049799
2174.000000	81.049502
2173.000000	81.047607
2172.000000	81.046955
2171.000000	81.048244
2170.000000	81.051971
2169.000000	81.058327
2168.000000	81.065081
2167.000000	81.068285
2166.000000	81.065710
2165.000000	81.057807
2164.000000	81.045787
2163.000000	81.031413
2162.000000	81.018486
2161.000000	81.011725
2160.000000	81.013513
2159.000000	81.023463
2158.000000	81.040614
2157.000000	81.063427
2156.000000	81.088056
2155.000000	81.109655
2154.000000	81.125990
2153.000000	81.137925
2152.000000	81.146871
2151.000000	81.154138
2150.000000	81.162298
2149.000000	81.174120
2148.000000	81.189627
2147.000000	81.206387
2146.000000	81.222505
2145.000000	81.237145
2144.000000	81.248955
2143.000000	81.256871
2142.000000	81.262241
2141.000000	81.267706
2140.000000	81.274038
2139.000000	81.280125
2138.000000	81.285403
2137.000000	81.289706
2136.000000	81.291264
2135.000000	81.287725
2134.000000	81.279253
2133.000000	81.268242
2132.000000	81.256339
2131.000000	81.244104
2130.000000	81.233073
2129.000000	81.225077
2128.000000	81.219256
2127.000000	81.212311
2126.000000	81.201942
2125.000000	81.188077
2124.000000	81.171469
2123.000000	81.154180
2122.000000	81.141167
2121.000000	81.138422
2120.000000	81.149148
2119.000000	81.173178
2118.000000	81.208755
2117.000000	81.251971
2116.000000	81.295357
2115.000000	81.330653
2114.000000	81.353784
2113.000000	81.365435
2112.000000	81.367890
2111.000000	81.364138
2110.000000	81.359074
2109.000000	81.357910
2108.000000	81.362713
2107.000000	81.372355
2106.000000	81.385402
2105.000000	81.400473
2104.000000	81.414407
2103.000000	81.423373
2102.000000	81.426004
2101.000000	81.423138
2100.000000	81.414951
2099.000000	81.400780
2098.000000	81.381491
2097.000000	81.359168
2096.000000	81.334541
2095.000000	81.308029
2094.000000	81.282989
2093.000000	81.264561
2092.000000	81.255553
2091.000000	81.256086
2090.000000	81.266755
2089.000000	81.288675
2088.000000	81.320277
2087.000000	81.357199
2086.000000	81.395100
2085.000000	81.430002
2084.000000	81.457294
2083.000000	81.474003
2082.000000	81.481723
2081.000000	81.484644
2080.000000	81.485131
2079.000000	81.483475
2078.000000	81.480705
2077.000000	81.477278
2076.000000	81.469561
2075.000000	81.451981
2074.000000	81.422256
2073.000000	81.381934
2072.000000	81.333032
2071.000000	81.277448
2070.000000	81.219803
2069.000000	81.166457
2068.000000	81.120097
2067.000000	81.077678
2066.000000	81.033992
2065.000000	80.985160
2064.000000	80.928752
2063.000000	80.864142
2062.000000	80.793299
2061.000000	80.718818
2060.000000	80.641716
2059.000000	80.563434
2058.000000	80.488908
2057.000000	80.423788
2056.000000	80.368921
2055.000000	80.320812
2054.000000	80.276539
2053.000000	80.235001
2052.000000	80.194676
2051.000000	80.154019
2050.000000	80.114416
2049.000000	80.079883
2048.000000	80.052634
2047.000000	80.031814
2046.000000	80.017673
2045.000000	80.012433
2044.000000	80.015416
2043.000000	80.021470
2042.000000	80.026393
2041.000000	80.031127
2040.000000	80.038960
2039.000000	80.052507
2038.000000	80.074451
2037.000000	80.106821
2036.000000	80.148087
2035.000000	80.193924
2034.000000	80.242030
2033.000000	80.292903
2032.000000	80.345868
2031.000000	80.398827
2030.000000	80.452036
2029.000000	80.508174
2028.000000	80.567789
2027.000000	80.628353
2026.000000	80.688100
2025.000000	80.746956
2024.000000	80.803118
2023.000000	80.852472
2022.000000	80.894113
2021.000000	80.932770
2020.000000	80.972856
2019.000000	81.013787
2018.000000	81.053897
2017.000000	81.095476
2016.000000	81.142911
2015.000000	81.198434
2014.000000	81.261325
2013.000000	81.328322
2012.000000	81.393088
2011.000000	81.449138
2010.000000	81.495898
2009.000000	81.538821
2008.000000	81.582650
2007.000000	81.628930
2006.000000	81.679752
2005.000000	81.738194
2004.000000	81.803430
2003.000000	81.869209
2002.000000	81.929927
2001.000000	81.983485
2000.000000	82.028639
1999.000000	82.064810
1998.000000	82.093618
1997.000000	82.120187
1996.000000	82.151760
1995.000000	82.192385
1994.000000	82.238952
1993.000000	82.283766
1992.000000	82.322167
1991.000000	82.357832
1990.000000	82.398081
1989.000000	82.445371
1988.000000	82.496492
1987.000000	82.547522
1986.000000	82.597753
1985.000000	82.648567
1984.000000	82.699539
1983.000000	82.747827
1982.000000	82.791365
1981.000000	82.830576
1980.000000	82.868375
1979.000000	82.909177
1978.000000	82.955301
1977.000000	83.006215
1976.000000	83.061407
1975.000000	83.120199
1974.000000	83.178469
1973.000000	83.229879
1972.000000	83.272363
1971.000000	83.309620
1970.000000	83.344412
1969.000000	83.374483
1968.000000	83.396255
1967.000000	83.410147
1966.000000	83.421683
1965.000000	83.437495
1964.000000	83.460365
1963.000000	83.486097
1962.000000	83.504014
1961.000000	83.504281
1960.000000	83.486396
1959.000000	83.458155
1958.000000	83.427325
1957.000000	83.398359
1956.000000	83.376006
1955.000000	83.365823
1954.000000	83.369453
1953.000000	83.384225
1952.000000	83.406693
1951.000000	83.433817
1950.000000	83.462712
1949.000000	83.489436
1948.000000	83.510127
1947.000000	83.524792
1946.000000	83.536853
1945.000000	83.547575
1944.000000	83.552411
1943.000000	83.545361
1942.000000	83.528802
1941.000000	83.514336
1940.000000	83.512242
1939.000000	83.524452
1938.000000	83.544931
1937.000000	83.564531
1936.000000	83.577832
1935.000000	83.584278
1934.000000	83.583395
1933.000000	83.573844
1932.000000	83.554894
1931.000000	83.529288
1930.000000	83.505030
1929.000000	83.487913
1928.000000	83.479154
1927.000000	83.482041
1926.000000	83.503636
1925.000000	83.543716
1924.000000	83.583606
1923.000000	83.601378
1922.000000	83.597818
1921.000000	83.588966
1920.000000	83.580767
1919.000000	83.567159
1918.000000	83.547039
1917.000000	83.530929
1916.000000	83.525254
1915.000000	83.528032
1914.000000	83.539558
1913.000000	83.560437
1912.000000	83.583172
1911.000000	83.596525
1910.000000	83.597284
1909.000000	83.587661
1908.000000	83.569006
1907.000000	83.544922
1906.000000	83.526214
1905.000000	83.522852
1904.000000	83.530362
1903.000000	83.541315
1902.000000	83.561920
1901.000000	83.599777
1900.000000	83.649532
1899.000000	83.702041
1898.000000	83.757436
1897.000000	83.816785
1896.000000	83.866073
1895.000000	83.889880
1894.000000	83.896783
1893.000000	83.908605
1892.000000	83.931259
1891.000000	83.954160
1890.000000	83.970529
1889.000000	83.987126
1888.000000	84.012154
1887.000000	84.046261
1886.000000	84.089004
1885.000000	84.136006
1884.000000	84.173437
1883.000000	84.192491
1882.000000	84.202500
1881.000000	84.215286
1880.000000	84.229429
1879.000000	84.239956
1878.000000	84.252580
1877.000000	84.278081
1876.000000	84.315144
1875.000000	84.353209
1874.000000	84.391170
1873.000000	84.436538
1872.000000	84.487667
1871.000000	84.532797
1870.000000	84.563966
1869.000000	84.580335
1868.000000	84.581358
1867.000000	84.571104
1866.000000	84.566425
1865.000000	84.582735
1864.000000	84.617108
1863.000000	84.656549
1862.000000	84.697976
1861.000000	84.747322
1860.000000	84.800415
1859.000000	84.844721
1858.000000	84.878710
1857.000000	84.909425
1856.000000	84.934026
1855.000000	84.944126
1854.000000	84.943272
1853.000000	84.942001
1852.000000	84.946735
1851.000000	84.962669
1850.000000	84.995454
1849.000000	85.045026
1848.000000	85.101236
1847.000000	85.154083
1846.000000	85.199840
1845.000000	85.231341
1844.000000	85.238972
1843.000000	85.227148
1842.000000	85.211145
1841.000000	85.204378
1840.000000	85.215184
1839.000000	85.242268
1838.000000	85.278891
1837.000000	85.319696
1836.000000	85.359898
1835.000000	85.397969
1834.000000	85.436553
1833.000000	85.476225
1832.000000	85.515281
1831.000000	85.543375
1830.000000	85.544272
1829.000000	85.526413
1828.000000	85.518524
1827.000000	85.531020
1826.000000	85.554421
1825.000000	85.581711
1824.000000	85.614754
1823.000000	85.653740
1822.000000	85.694745
1821.000000	85.738921
1820.000000	85.786980
1819.000000	85.826692
1818.000000	85.847004
1817.000000	85.856243
1816.000000	85.865199
1815.000000	85.869885
1814.000000	85.864391
1813.000000	85.857027
1812.000000	85.857390
1811.000000	85.856735
1810.000000	85.853284
1809.000000	85.866540
1808.000000	85.899260
1807.000000	85.927422
1806.000000	85.937497
1805.000000	85.938691
1804.000000	85.933449
1803.000000	85.906719
1802.000000	85.853068
1801.000000	85.799183
1800.000000	85.777022
1799.000000	85.788943
1798.000000	85.825694
1797.000000	85.882288
1796.000000	85.944058
1795.000000	85.989888
1794.000000	86.008305
1793.000000	86.004125
1792.000000	85.984589
1791.000000	85.949170
1790.000000	85.910080
1789.000000	85.891181
1788.000000	85.899307
1787.000000	85.918833
1786.000000	85.938133
1785.000000	85.964079
1784.000000	86.001985
1783.000000	86.043056
1782.000000	86.073025
1781.000000	86.083974
1780.000000	86.079441
1779.000000	86.068311
1778.000000	86.059038
1777.000000	86.056965
1776.000000	86.067976
1775.000000	86.097080
1774.000000	86.133184
1773.000000	86.155536
1772.000000	86.166978
1771.000000	86.184689
1770.000000	86.210518
1769.000000	86.245473
1768.000000	86.296070
1767.000000	86.351602
1766.000000	86.390148
1765.000000	86.408205
1764.000000	86.419709
1763.000000	86.424902
1762.000000	86.405727
1761.000000	86.371895
1760.000000	86.358447
1759.000000	86.375864
1758.000000	86.409054
1757.000000	86.435768
1756.000000	86.458405
1755.000000	86.487169
1754.000000	86.504396
1753.000000	86.490025
1752.000000	86.453693
1751.000000	86.426287
1750.000000	86.417874
1749.000000	86.414046
1748.000000	86.421307
1747.000000	86.465361
1746.000000	86.539115
1745.000000	86.611142
1744.000000	86.669534
1743.000000	86.714712
1742.000000	86.739493
1741.000000	86.740512
1740.000000	86.729881
1739.000000	86.722012
1738.000000	86.717404
1737.000000	86.718954
1736.000000	86.732549
1735.000000	86.749170
1734.000000	86.763855
1733.000000	86.786860
1732.000000	86.805029
1731.000000	86.808935
1730.000000	86.816949
1729.000000	86.825298
1728.000000	86.827652
1727.000000	86.826263
1726.000000	86.817845
1725.000000	86.795580
1724.000000	86.762110
1723.000000	86.727805
1722.000000	86.709258
1721.000000	86.724237
1720.000000	86.784090
1719.000000	86.867771
1718.000000	86.924389
1717.000000	86.947095
1716.000000	86.945798
1715.000000	86.906722
1714.000000	86.859873
1713.000000	86.845392
1712.000000	86.852910
1711.000000	86.855711
1710.000000	86.856232
1709.000000	86.874006
1708.000000	86.916901
1707.000000	86.973400
1706.000000	87.030546
1705.000000	87.093974
1704.000000	87.159990
1703.000000	87.213353
1702.000000	87.241124
1701.000000	87.254720
1700.000000	87.283868
1699.000000	87.311896
1698.000000	87.315117
1697.000000	87.326958
1696.000000	87.363576
1695.000000	87.398876
1694.000000	87.415864
1693.000000	87.422782
1692.000000	87.453726
1691.000000	87.508302
1690.000000	87.552489
1689.000000	87.566077
1688.000000	87.570941
1687.000000	87.593833
1686.000000	87.620988
1685.000000	87.602166
1684.000000	87.518819
1683.000000	87.457745
1682.000000	87.455688
1681.000000	87.461751
1680.000000	87.466208
1679.000000	87.474175
1678.000000	87.484471
1677.000000	87.471247
1676.000000	87.418504
1675.000000	87.352551
1674.000000	87.296153
1673.000000	87.228754
1672.000000	87.150966
1671.000000	87.094206
1670.000000	87.067852
1669.000000	87.048618
1668.000000	87.025136
1667.000000	87.009674
1666.000000	87.003415
1665.000000	86.991128
1664.000000	86.954467
1663.000000	86.893081
1662.000000	86.819380
1661.000000	86.722857
1660.000000	86.595436
1659.000000	86.467424
1658.000000	86.367963
1657.000000	86.296940
1656.000000	86.249771
1655.000000	86.221825
1654.000000	86.126828
1653.000000	85.875084
1652.000000	85.555140
1651.000000	85.184570
1650.000000	84.722542
1649.000000	84.183910
1648.000000	83.434208
1647.000000	82.327758
1646.000000	80.923423
1645.000000	79.377676
1644.000000	77.667876
1643.000000	75.688380
1642.000000	73.378295
1641.000000	70.777975
1640.000000	68.084252
1639.000000	65.546560
1638.000000	63.299670
1637.000000	61.372199
1636.000000	59.919425
1635.000000	59.268446
1634.000000	59.474033
1633.000000	60.258867
1632.000000	61.382274
1631.000000	62.722171
1630.000000	64.217316
1629.000000	65.825837
1628.000000	67.483189
1627.000000	69.084460
1626.000000	70.569311
1625.000000	71.994153
1624.000000	73.440685
1623.000000	74.861664
1622.000000	76.107373
1621.000000	77.112674
1620.000000	77.955035
1619.000000	78.743839
1618.000000	79.529423
1617.000000	80.291227
1616.000000	80.959032
1615.000000	81.471903
1614.000000	81.842263
1613.000000	82.141673
1612.000000	82.417409
1611.000000	82.654478
1610.000000	82.808921
1609.000000	82.861201
1608.000000	82.820317
1607.000000	82.691180
1606.000000	82.458450
1605.000000	82.098817
1604.000000	81.600079
1603.000000	80.943133
1602.000000	80.106828
1601.000000	79.116581
1600.000000	78.058904
1599.000000	77.037567
1598.000000	76.121236
1597.000000	75.341825
1596.000000	74.710854
1595.000000	74.210854
1594.000000	73.787108
1593.000000	73.378863
1592.000000	72.957998
1591.000000	72.518571
1590.000000	72.047179
1589.000000	71.526662
1588.000000	70.956450
1587.000000	70.337365
1586.000000	69.649475
1585.000000	68.869993
1584.000000	68.012845
1583.000000	67.115901
1582.000000	66.190797
1581.000000	65.237802
1580.000000	64.286714
1579.000000	63.333923
1578.000000	62.225528
1577.000000	60.687202
1576.000000	58.698568
1575.000000	56.702847
1574.000000	55.052103
1573.000000	53.678361
1572.000000	52.401692
1571.000000	51.129404
1570.000000	49.897461
1569.000000	48.846889
1568.000000	48.127128
1567.000000	47.788380
1566.000000	47.762249
1565.000000	47.928832
1564.000000	48.237427
1563.000000	48.714997
1562.000000	49.388595
1561.000000	50.244941
1560.000000	51.373236
1559.000000	52.849415
1558.000000	54.373498
1557.000000	55.593214
1556.000000	56.533173
1555.000000	57.407590
1554.000000	58.269509
1553.000000	59.043587
1552.000000	59.701079
1551.000000	60.328719
1550.000000	61.002474
1549.000000	61.719187
1548.000000	62.461402
1547.000000	63.268228
1546.000000	64.184012
1545.000000	65.170398
1544.000000	66.135132
1543.000000	67.047598
1542.000000	67.959625
1541.000000	68.906742
1540.000000	69.829515
1539.000000	70.665776
1538.000000	71.378389
1537.000000	71.955104
1536.000000	72.479897
1535.000000	73.051689
1534.000000	73.687691
1533.000000	74.310829
1532.000000	74.861239
1531.000000	75.350722
1530.000000	75.818171
1529.000000	76.280902
1528.000000	76.729087
1527.000000	77.154904
1526.000000	77.555957
1525.000000	77.931325
1524.000000	78.294569
1523.000000	78.667123
1522.000000	79.026887
1521.000000	79.317344
1520.000000	79.533258
1519.000000	79.716416
1518.000000	79.896296
1517.000000	80.062481
1516.000000	80.205280
1515.000000	80.356932
1514.000000	80.535634
1513.000000	80.737162
1512.000000	80.960410
1511.000000	81.201113
1510.000000	81.449756
1509.000000	81.695183
1508.000000	81.912114
1507.000000	82.030551
1506.000000	82.110663
1505.000000	82.248022
1504.000000	82.375476
1503.000000	82.490322
1502.000000	82.626845
1501.000000	82.781865
1500.000000	82.953848
1499.000000	83.152091
1498.000000	83.353347
1497.000000	83.520977
1496.000000	83.654107
1495.000000	83.760134
1494.000000	83.829368
1493.000000	83.866597
1492.000000	83.900741
1491.000000	83.951582
1490.000000	84.003001
1489.000000	84.048048
1488.000000	84.109422
1487.000000	84.189678
1486.000000	84.267634
1485.000000	84.304100
1484.000000	84.273247
1483.000000	84.167514
1482.000000	83.956750
1481.000000	83.615484
1480.000000	83.159363
1479.000000	82.590098
1478.000000	81.830049
1477.000000	80.796114
1476.000000	79.506143
1475.000000	78.026054
1474.000000	76.337796
1473.000000	74.442273
1472.000000	72.611427
1471.000000	71.191398
1470.000000	70.239549
1469.000000	69.644819
1468.000000	69.355048
1467.000000	69.394168
1466.000000	69.812727
1465.000000	70.599020
1464.000000	71.600031
1463.000000	72.569708
1462.000000	73.329388
1461.000000	73.832408
1460.000000	74.079233
1459.000000	74.023580
1458.000000	73.529077
1457.000000	72.622689
1456.000000	71.718053
1455.000000	71.126093
1454.000000	70.785080
1453.000000	70.583460
1452.000000	70.470222
1451.000000	70.429126
1450.000000	70.462578
1449.000000	70.598605
1448.000000	70.859599
1447.000000	71.216658
1446.000000	71.612999
1445.000000	72.025411
1444.000000	72.478161
1443.000000	72.996832
1442.000000	73.592204
1441.000000	74.276264
1440.000000	75.069193
1439.000000	75.988311
1438.000000	77.039894
1437.000000	78.180710
1436.000000	79.264293
1435.000000	80.134917
1434.000000	80.780146
1433.000000	81.295202
1432.000000	81.741432
1431.000000	82.117298
1430.000000	82.411550
1429.000000	82.644327
1428.000000	82.845243
1427.000000	83.030588
1426.000000	83.206221
1425.000000	83.362903
1424.000000	83.500497
1423.000000	83.638377
1422.000000	83.794969
1421.000000	83.965029
1420.000000	84.124566
1419.000000	84.244271
1418.000000	84.313443
1417.000000	84.366786
1416.000000	84.439737
1415.000000	84.533522
1414.000000	84.626121
1413.000000	84.701977
1412.000000	84.768030
1411.000000	84.840201
1410.000000	84.925110
1409.000000	85.029678
1408.000000	85.159262
1407.000000	85.305153
1406.000000	85.444182
1405.000000	85.546705
1404.000000	85.601978
1403.000000	85.612852
1402.000000	85.567012
1401.000000	85.431258
1400.000000	85.176421
1399.000000	84.832809
1398.000000	84.507515
1397.000000	84.316021
1396.000000	84.312746
1395.000000	84.475937
1394.000000	84.708623
1393.000000	84.906195
1392.000000	85.047556
1391.000000	85.184443
1390.000000	85.373977
1389.000000	85.639052
1388.000000	85.967759
1387.000000	86.325655
1386.000000	86.667551
1385.000000	86.948735
1384.000000	87.142364
1383.000000	87.246154
1382.000000	87.281435
1381.000000	87.279174
1380.000000	87.253868
1379.000000	87.202499
1378.000000	87.115888
1377.000000	86.964433
1376.000000	86.656987
1375.000000	86.016865
1374.000000	84.811874
1373.000000	82.865183
1372.000000	80.173840
1371.000000	76.991171
1370.000000	73.875639
1369.000000	71.588059
1368.000000	70.727458
1367.000000	71.305082
1366.000000	72.753799
1365.000000	74.331712
1364.000000	75.425848
1363.000000	75.679516
1362.000000	75.127231
1361.000000	74.235182
1360.000000	73.660337
1359.000000	73.904914
1358.000000	75.096567
1357.000000	76.957216
1356.000000	79.000869
1355.000000	80.820119
1354.000000	82.240330
1353.000000	83.281763
1352.000000	84.030411
1351.000000	84.565728
1350.000000	84.956791
1349.000000	85.254810
1348.000000	85.495476
1347.000000	85.711772
1346.000000	85.933271
1345.000000	86.167510
1344.000000	86.401032
1343.000000	86.618860
1342.000000	86.814121
1341.000000	86.973379
1340.000000	87.074349
1339.000000	87.116413
1338.000000	87.130863
1337.000000	87.150081
1336.000000	87.183788
1335.000000	87.224514
1334.000000	87.253750
1333.000000	87.228707
1332.000000	87.078204
1331.000000	86.725604
1330.000000	86.118236
1329.000000	85.241290
1328.000000	84.099875
1327.000000	82.692879
1326.000000	81.017872
1325.000000	79.143108
1324.000000	77.314801
1323.000000	75.922049
1322.000000	75.258312
1321.000000	75.306470
1320.000000	75.785104
1319.000000	76.388133
1318.000000	76.969752
1317.000000	77.528482
1316.000000	78.090489
1315.000000	78.656541
1314.000000	79.222298
1313.000000	79.806844
1312.000000	80.445865
1311.000000	81.157070
1310.000000	81.909756
1309.000000	82.628665
1308.000000	83.230577
1307.000000	83.665447
1306.000000	83.925679
1305.000000	84.011699
1304.000000	83.909731
1303.000000	83.594896
1302.000000	83.044379
1301.000000	82.263043
1300.000000	81.321430
1299.000000	80.375466
1298.000000	79.615180
1297.000000	79.163203
1296.000000	79.011092
1295.000000	79.034748
1294.000000	79.055269
1293.000000	78.898966
1292.000000	78.440895
1291.000000	77.622867
1290.000000	76.433098
1289.000000	74.892480
1288.000000	73.102763
1287.000000	71.313427
1286.000000	69.881478
1285.000000	69.107616
1284.000000	69.089073
1283.000000	69.712083
1282.000000	70.776959
1281.000000	72.117033
1280.000000	73.607915
1279.000000	75.093946
1278.000000	76.360788
1277.000000	77.219084
1276.000000	77.604962
1275.000000	77.595652
1274.000000	77.351990
1273.000000	77.064746
1272.000000	76.929246
1271.000000	77.110271
1270.000000	77.678068
1269.000000	78.571848
1268.000000	79.640321
1267.000000	80.725943
1266.000000	81.722546
1265.000000	82.584729
1264.000000	83.309250
1263.000000	83.910582
1262.000000	84.402388
1261.000000	84.792219
1260.000000	85.088957
1259.000000	85.312162
1258.000000	85.491943
1257.000000	85.655813
1256.000000	85.821986
1255.000000	86.001439
1254.000000	86.195798
1253.000000	86.394208
1252.000000	86.576518
1251.000000	86.725089
1250.000000	86.832268
1249.000000	86.898767
1248.000000	86.933612
1247.000000	86.955492
1246.000000	86.986204
1245.000000	87.039637
1244.000000	87.117745
1243.000000	87.214816
1242.000000	87.319208
1241.000000	87.412423
1240.000000	87.474875
1239.000000	87.496289
1238.000000	87.479065
1237.000000	87.431558
1236.000000	87.363432
1235.000000	87.287054
1234.000000	87.213677
1233.000000	87.145746
1232.000000	87.076266
1231.000000	86.995755
1230.000000	86.896752
1229.000000	86.770963
1228.000000	86.609692
1227.000000	86.406625
1226.000000	86.153963
1225.000000	85.837096
1224.000000	85.431041
1223.000000	84.906284
1222.000000	84.231465
1221.000000	83.371662
1220.000000	82.303842
1219.000000	81.031320
1218.000000	79.586844
1217.000000	78.025409
1216.000000	76.421155
1215.000000	74.869431
1214.000000	73.478986
1213.000000	72.356863
1212.000000	71.593230
1211.000000	71.239056
1210.000000	71.266616
1209.000000	71.569080
1208.000000	72.002635
1207.000000	72.428117
1206.000000	72.735821
1205.000000	72.851015
1204.000000	72.735962
1203.000000	72.387777
1202.000000	71.836400
1201.000000	71.153990
1200.000000	70.468070
1199.000000	69.944495
1198.000000	69.728991
1197.000000	69.889117
1196.000000	70.408397
1195.000000	71.211894
1194.000000	72.202131
1193.000000	73.293397
1192.000000	74.425052
1191.000000	75.560052
1190.000000	76.668275
1189.000000	77.719844
1188.000000	78.690856
1187.000000	79.567327
1186.000000	80.343186
1185.000000	81.021033
1184.000000	81.612125
1183.000000	82.126487
1182.000000	82.567487
1181.000000	82.933117
1180.000000	83.228713
1179.000000	83.473241
1178.000000	83.684830
1177.000000	83.868819
1176.000000	84.016810
1175.000000	84.116445
1174.000000	84.157553
1173.000000	84.125341
1172.000000	84.000080
1171.000000	83.755441
1170.000000	83.356641
1169.000000	82.764932
1168.000000	81.948406
1167.000000	80.909595
1166.000000	79.706202
1165.000000	78.456806
1164.000000	77.327820
1163.000000	76.494574
1162.000000	76.077112
1161.000000	76.098479
1160.000000	76.493035
1159.000000	77.137612
1158.000000	77.896416
1157.000000	78.653324
1156.000000	79.333138
1155.000000	79.904254
1154.000000	80.361249
1153.000000	80.707734
1152.000000	80.948132
1151.000000	81.084419
1150.000000	81.108692
1149.000000	81.006052
1148.000000	80.753775
1147.000000	80.326035
1146.000000	79.694354
1145.000000	78.816423
1144.000000	77.644921
1143.000000	76.129881
1142.000000	74.236021
1141.000000	71.980383
1140.000000	69.464248
1139.000000	66.872178
1138.000000	64.395468
1137.000000	62.138395
1136.000000	60.083242
1135.000000	58.141456
1134.000000	56.254516
1133.000000	54.519027
1132.000000	53.241002
1131.000000	52.823214
1130.000000	53.565871
1129.000000	55.479504
1128.000000	58.266623
1127.000000	61.435299
1126.000000	64.451735
1125.000000	66.877703
1124.000000	68.430233
1123.000000	68.972374
1122.000000	68.482918
1121.000000	67.044322
1120.000000	64.795901
1119.000000	61.927849
1118.000000	58.732860
1117.000000	55.684294
1116.000000	53.419798
1115.000000	52.531500
1114.000000	53.258614
1113.000000	55.343121
1112.000000	58.158795
1111.000000	60.953969
1110.000000	63.121630
1109.000000	64.407976
1108.000000	64.980223
1107.000000	65.286425
1106.000000	65.761670
1105.000000	66.586502
1104.000000	67.648573
1103.000000	68.658137
1102.000000	69.264820
1101.000000	69.175007
1100.000000	68.280334
1099.000000	66.782154
1098.000000	65.206970
1097.000000	64.220759
1096.000000	64.314626
1095.000000	65.560029
1094.000000	67.602220
1093.000000	69.898628
1092.000000	72.018997
1091.000000	73.772217
1090.000000	75.156728
1089.000000	76.248584
1088.000000	77.127365
1087.000000	77.852452
1086.000000	78.463263
1085.000000	78.982480
1084.000000	79.421834
1083.000000	79.794779
1082.000000	80.111148
1081.000000	80.375267
1080.000000	80.589969
1079.000000	80.757233
1078.000000	80.877048
1077.000000	80.937953
1076.000000	80.918540
1075.000000	80.793403
1074.000000	80.525140
1073.000000	80.065135
1072.000000	79.337164
1071.000000	78.229715
1070.000000	76.589757
1069.000000	74.200332
1068.000000	70.836049
1067.000000	66.378781
1066.000000	61.006278
1065.000000	55.330181
1064.000000	50.296684
1063.000000	46.770383
1062.000000	45.003326
1061.000000	44.415185
1060.000000	43.937959
1059.000000	42.744077
1058.000000	40.796255
1057.000000	38.893600
1056.000000	38.161835
1055.000000	39.309727
1054.000000	42.249464
1053.000000	46.258354
1052.000000	50.486248
1051.000000	54.360156
1050.000000	57.651975
1049.000000	60.373078
1048.000000	62.639865
1047.000000	64.580981
1046.000000	66.275110
1045.000000	67.751497
1044.000000	69.015736
1043.000000	70.082963
1042.000000	70.978965
1041.000000	71.723796
1040.000000	72.343383
1039.000000	72.868673
1038.000000	73.324982
1037.000000	73.723546
1036.000000	74.066732
1035.000000	74.361517
1034.000000	74.612065
1033.000000	74.813922
1032.000000	74.963978
1031.000000	75.068207
1030.000000	75.137579
1029.000000	75.178627
1028.000000	75.196539
1027.000000	75.200193
1026.000000	75.192892
1025.000000	75.166809
1024.000000	75.109696
1023.000000	75.012944
1022.000000	74.868996
1021.000000	74.662269
1020.000000	74.375077
1019.000000	73.990569
1018.000000	73.483291
1017.000000	72.816502
1016.000000	71.948899
1015.000000	70.859582
1014.000000	69.569926
1013.000000	68.164421
1012.000000	66.798715
1011.000000	65.655477
1010.000000	64.846427
1009.000000	64.330808
1008.000000	63.940517
1007.000000	63.510736
1006.000000	63.044107
1005.000000	62.764299
1004.000000	62.994092
1003.000000	63.925902
1002.000000	65.456852
1001.000000	67.250125
1000.000000	68.933100
999.000000	70.256242
998.000000	71.123361
997.000000	71.544981
996.000000	71.601722
995.000000	71.431870
994.000000	71.217491
993.000000	71.148720
992.000000	71.375982
991.000000	71.952926
990.000000	72.807361
989.000000	73.783918
988.000000	74.738300
987.000000	75.595986
986.000000	76.346332
985.000000	77.005399
984.000000	77.591904
983.000000	78.118655
982.000000	78.587298
981.000000	78.988200
980.000000	79.313530
979.000000	79.571587
978.000000	79.779480
977.000000	79.954091
976.000000	80.112567
975.000000	80.273762
974.000000	80.450291
973.000000	80.639288
972.000000	80.829556
971.000000	81.013292
970.000000	81.186497
969.000000	81.345038
968.000000	81.488392
967.000000	81.624229
966.000000	81.761482
965.000000	81.900237
964.000000	82.034302
963.000000	82.158592
962.000000	82.268988
961.000000	82.359850
960.000000	82.430497
959.000000	82.493172
958.000000	82.567898
957.000000	82.670128
956.000000	82.805926
955.000000	82.972943
954.000000	83.157506
953.000000	83.333201
952.000000	83.471657
951.000000	83.558254
950.000000	83.596209
949.000000	83.601286
948.000000	83.598913
947.000000	83.621433
946.000000	83.695954
945.000000	83.830150
944.000000	84.010676
943.000000	84.211127
942.000000	84.398551
941.000000	84.540005
940.000000	84.615117
939.000000	84.627522
938.000000	84.602092
937.000000	84.571233
936.000000	84.565322
935.000000	84.607700
934.000000	84.706104
933.000000	84.845959
932.000000	84.998152
931.000000	85.135444
930.000000	85.240522
929.000000	85.305298
928.000000	85.332822
927.000000	85.340419
926.000000	85.352335
925.000000	85.384918
924.000000	85.440363
923.000000	85.511775
922.000000	85.588056
921.000000	85.655990
920.000000	85.706542
919.000000	85.743145
918.000000	85.780102
917.000000	85.831689
916.000000	85.905024
915.000000	85.999807
914.000000	86.106384
913.000000	86.203801
912.000000	86.266272
911.000000	86.277250
910.000000	86.234283
909.000000	86.140991
908.000000	86.000514
907.000000	85.812093
906.000000	85.567179
905.000000	85.240263
904.000000	84.795444
903.000000	84.222879
902.000000	83.581569
901.000000	83.007223
900.000000	82.663048
899.000000	82.653771
898.000000	82.963285
897.000000	83.477961
896.000000	84.065725
895.000000	84.641332
894.000000	85.174030
893.000000	85.652747
892.000000	86.064674
891.000000	86.394846
890.000000	86.632421
889.000000	86.771749
888.000000	86.819407
887.000000	86.795070
886.000000	86.717874
885.000000	86.587293
884.000000	86.385615
883.000000	86.111927
882.000000	85.801623
881.000000	85.504252
880.000000	85.237577
879.000000	84.970496
878.000000	84.663536
877.000000	84.335171
876.000000	84.088772
875.000000	84.054529
874.000000	84.292869
873.000000	84.745170
872.000000	85.277833
871.000000	85.768805
870.000000	86.158724
869.000000	86.447069
868.000000	86.663565
867.000000	86.847676
866.000000	87.032182
865.000000	87.230400
864.000000	87.433604
863.000000	87.621865
862.000000	87.773492
861.000000	87.868771
860.000000	87.897883
859.000000	87.870628
858.000000	87.817205
857.000000	87.775590
856.000000	87.778365
855.000000	87.846514
854.000000	87.983644
853.000000	88.170417
852.000000	88.368719
851.000000	88.536516
850.000000	88.641691
849.000000	88.668650
848.000000	88.623211
847.000000	88.535128
846.000000	88.448494
845.000000	88.403328
844.000000	88.423862
843.000000	88.517354
842.000000	88.673098
841.000000	88.860603
840.000000	89.037444
839.000000	89.167341
838.000000	89.233392
837.000000	89.238009
836.000000	89.197852
835.000000	89.140808
834.000000	89.098152
833.000000	89.090939
832.000000	89.123908
831.000000	89.191326
830.000000	89.283242
829.000000	89.385332
828.000000	89.481328
827.000000	89.561629
826.000000	89.627157
825.000000	89.681931
824.000000	89.726449
823.000000	89.759876
822.000000	89.782755
821.000000	89.793035
820.000000	89.785842
819.000000	89.761558
818.000000	89.730664
817.000000	89.707816
816.000000	89.704624
815.000000	89.728413
814.000000	89.779703
813.000000	89.844393
812.000000	89.892447
811.000000	89.888083
810.000000	89.802127
809.000000	89.617606
808.000000	89.331219
807.000000	88.958073
806.000000	88.526905
805.000000	88.062826
804.000000	87.572361
803.000000	87.036523
802.000000	86.412581
801.000000	85.634818
800.000000	84.628447
799.000000	83.340391
798.000000	81.758688
797.000000	79.918544
796.000000	77.895778
795.000000	75.799969
794.000000	73.757936
793.000000	71.892587
792.000000	70.311202
791.000000	69.099302
790.000000	68.311985
789.000000	67.959135
788.000000	68.009675
787.000000	68.397453
786.000000	69.033846
785.000000	69.824533
784.000000	70.680542
783.000000	71.529136
782.000000	72.311386
781.000000	72.978918
780.000000	73.492282
779.000000	73.828167
778.000000	73.986458
777.000000	73.987810
776.000000	73.861375
775.000000	73.633561
774.000000	73.332533
773.000000	73.002861
772.000000	72.721133
771.000000	72.589807
770.000000	72.706276
769.000000	73.120259
768.000000	73.813387
767.000000	74.714514
766.000000	75.737832
765.000000	76.816690
764.000000	77.910257
763.000000	78.995791
762.000000	80.055297
761.000000	81.064090
760.000000	81.985436
759.000000	82.781437
758.000000	83.432588
757.000000	83.946506
756.000000	84.352974
755.000000	84.696166
754.000000	85.028375
753.000000	85.394115
752.000000	85.811796
751.000000	86.269634
750.000000	86.734594
749.000000	87.162134
748.000000	87.504723
747.000000	87.729547
746.000000	87.837700
745.000000	87.862913
744.000000	87.851989
743.000000	87.849310
742.000000	87.891160
741.000000	87.996563
740.000000	88.155884
739.000000	88.336384
738.000000	88.502159
737.000000	88.624309
736.000000	88.678202
735.000000	88.649096
734.000000	88.546357
733.000000	88.400413
732.000000	88.241619
731.000000	88.089754
730.000000	87.960122
729.000000	87.860979
728.000000	87.784299
727.000000	87.709847
726.000000	87.618867
725.000000	87.500687
724.000000	87.343097
723.000000	87.120593
722.000000	86.789598
721.000000	86.291980
720.000000	85.572560
719.000000	84.614531
718.000000	83.467608
717.000000	82.243312
716.000000	81.086557
715.000000	80.145305
714.000000	79.546045
713.000000	79.361585
712.000000	79.581364
711.000000	80.115774
710.000000	80.843001
709.000000	81.651107
708.000000	82.448248
707.000000	83.169679
706.000000	83.791866
705.000000	84.335115
704.000000	84.838903
703.000000	85.335742
702.000000	85.852101
701.000000	86.408827
700.000000	86.997249
699.000000	87.575356
698.000000	88.095125
697.000000	88.526392
696.000000	88.851898
695.000000	89.059492
694.000000	89.167167
693.000000	89.229780
692.000000	89.297685
691.000000	89.391560
690.000000	89.520793
689.000000	89.701955
688.000000	89.932288
687.000000	90.167558
686.000000	90.366210
685.000000	90.523079
684.000000	90.634586
683.000000	90.677113
682.000000	90.649842
681.000000	90.597683
680.000000	90.555976
679.000000	90.518111
678.000000	90.486908
677.000000	90.485928
676.000000	90.520805
675.000000	90.578349
674.000000	90.661870
673.000000	90.822943
672.000000	91.155245
671.000000	91.732588
670.000000	92.507518
669.000000	93.166128
668.000000	93.155518
667.000000	92.434421
666.000000	91.612050
665.000000	91.008530
664.000000	90.658594
663.000000	90.535185
662.000000	90.581253
661.000000	90.718445
660.000000	90.875946
659.000000	91.021210
658.000000	91.133044
657.000000	91.160302
656.000000	91.068770
655.000000	90.903729
654.000000	90.723609
653.000000	90.537632
652.000000	90.366897
651.000000	90.279775
650.000000	90.310612
649.000000	90.403978
648.000000	90.493756
647.000000	90.566020
646.000000	90.601854
645.000000	90.544449
644.000000	90.365442
643.000000	90.107001
642.000000	89.830239
641.000000	89.561234
640.000000	89.326192
639.000000	89.180883
638.000000	89.149931
637.000000	89.185143
636.000000	89.226990
635.000000	89.254304
634.000000	89.247285
633.000000	89.162886
632.000000	88.984822
631.000000	88.755974
630.000000	88.525763
629.000000	88.303588
628.000000	88.094728
627.000000	87.932643
626.000000	87.830839
625.000000	87.754611
624.000000	87.668951
623.000000	87.575706
622.000000	87.478369
621.000000	87.352817
620.000000	87.183548
619.000000	86.980909
618.000000	86.738895
617.000000	86.419657
616.000000	86.013736
615.000000	85.568432
614.000000	85.124180
613.000000	84.672744
612.000000	84.206035
611.000000	83.750434
610.000000	83.315064
609.000000	82.850203
608.000000	82.296815
607.000000	81.635241
606.000000	80.847760
605.000000	79.897814
604.000000	78.784468
603.000000	77.573331
602.000000	76.327232
601.000000	75.054074
600.000000	73.756732
599.000000	72.476657
598.000000	71.230120
597.000000	69.963065
596.000000	68.632027
595.000000	67.268425
594.000000	65.913242
593.000000	64.553902
592.000000	63.199621
591.000000	61.941281
590.000000	60.857201
589.000000	59.923462
588.000000	59.083714
587.000000	58.323303
586.000000	57.600306
585.000000	56.798568
584.000000	55.837110
583.000000	54.762927
582.000000	53.670545
581.000000	52.623014
580.000000	51.714215
579.000000	51.114992
578.000000	50.942947
577.000000	51.172628
576.000000	51.724838
575.000000	52.531749
574.000000	53.472064
573.000000	54.358418
572.000000	55.089376
571.000000	55.742323
570.000000	56.466650
569.000000	57.344049
568.000000	58.386103
567.000000	59.564036
566.000000	60.772425
565.000000	61.856002
564.000000	62.738650
563.000000	63.472593
562.000000	64.130315
561.000000	64.724158
560.000000	65.265255
559.000000	65.807409
558.000000	66.374862
557.000000	66.921793
556.000000	67.410021
555.000000	67.866605
554.000000	68.317375
553.000000	68.738397
552.000000	69.121672
551.000000	69.521148
550.000000	69.981017
549.000000	70.475093
548.000000	70.966322
547.000000	71.461493
546.000000	71.962366
545.000000	72.425423
544.000000	72.822223
543.000000	73.180111
542.000000	73.523804
541.000000	73.831995
540.000000	74.094427
539.000000	74.353708
538.000000	74.647241
537.000000	74.961330
536.000000	75.277609
535.000000	75.613252
534.000000	75.967416
533.000000	76.295876
532.000000	76.561130
531.000000	76.766947
530.000000	76.914766
529.000000	76.974079
528.000000	76.925470
527.000000	76.804568
526.000000	76.650238
525.000000	76.447086
524.000000	76.172522
523.000000	75.846433
522.000000	75.504004
521.000000	75.155947
520.000000	74.802192
519.000000	74.428936
518.000000	73.937971
517.000000	73.143353
516.000000	71.908067
515.000000	70.268247
514.000000	68.402467
513.000000	66.549810
512.000000	64.981049
511.000000	63.963160
510.000000	63.640789
509.000000	63.980378
508.000000	64.868383
507.000000	66.177499
506.000000	67.726845
505.000000	69.304435
504.000000	70.783660
503.000000	72.153354
502.000000	73.407633
501.000000	74.500439
500.000000	75.421889
499.000000	76.238371
498.000000	77.010698
497.000000	77.742927
496.000000	78.426279
495.000000	79.071506
494.000000	79.676525
493.000000	80.193637
492.000000	80.578184
491.000000	80.849498
490.000000	81.056638
489.000000	81.237680
488.000000	81.429286
487.000000	81.683903
486.000000	82.030100
485.000000	82.432166
484.000000	82.825871
483.000000	83.172687
482.000000	83.446577
481.000000	83.605093
480.000000	83.631727
479.000000	83.578195
478.000000	83.503865
477.000000	83.423917
476.000000	83.344741
475.000000	83.283753
474.000000	83.196214
473.000000	82.940375
472.000000	82.404606
471.000000	81.658605
470.000000	80.858124
469.000000	80.107357
468.000000	79.500662
467.000000	79.140854
466.000000	78.991389
465.000000	78.827053
464.000000	78.418879
463.000000	77.729384
462.000000	76.936968
461.000000	76.311081
460.000000	76.135137
459.000000	76.641854
458.000000	77.820088
457.000000	79.297542
456.000000	80.643180
455.000000	81.710360
454.000000	82.522147
453.000000	83.072566
452.000000	83.369848
451.000000	83.532593
450.000000	83.659569
449.000000	83.720186
448.000000	83.643495
447.000000	83.415346
446.000000	83.033516
445.000000	82.479400
444.000000	81.820542
443.000000	81.260148
442.000000	80.981514
441.000000	80.991941
440.000000	81.226307
439.000000	81.656224
438.000000	82.225298
437.000000	82.811479
436.000000	83.337611
435.000000	83.825528
434.000000	84.261513
433.000000	84.531441
432.000000	84.562658
431.000000	84.425298
430.000000	84.231638
429.000000	84.008323
428.000000	83.768008
427.000000	83.602897
426.000000	83.571396
425.000000	83.583345
424.000000	83.541249
423.000000	83.511678
422.000000	83.577474
421.000000	83.645633
420.000000	83.567456
419.000000	83.391578
418.000000	83.290708
417.000000	83.221756
416.000000	83.090094
415.000000	82.979495
414.000000	82.976226
413.000000	83.018989
412.000000	83.056995
411.000000	83.190049
410.000000	83.493908
409.000000	83.811241
408.000000	83.966810
407.000000	84.029265
406.000000	84.127485
405.000000	84.184336
404.000000	84.103241
403.000000	84.018487
402.000000	84.093258
401.000000	84.240874
400.000000	84.300107
