PE IR       SUBTECH     SPECTRUM    ASCII       PEDS        4.00        
   -1
23ms156-cis.asc
24/10/17
15:30:28.00
24/10/17
15:30:28.00
Administrator
Sample 1289 By Administrator Date Thursday, October 17 2024
400.000000
#HDR
-1
-1
#GR
cm-1
%T
1.0
0.0
4000.000000
-1.000000
3601
8
95.738155
19.050080
#DATA
4000.000000	79.033380
3999.000000	79.020850
3998.000000	79.012886
3997.000000	79.008768
3996.000000	79.006756
3995.000000	79.005536
3994.000000	79.005086
3993.000000	79.006130
3992.000000	79.008892
3991.000000	79.012553
3990.000000	79.016051
3989.000000	79.019540
3988.000000	79.024742
3987.000000	79.033734
3986.000000	79.047875
3985.000000	79.067417
3984.000000	79.091594
3983.000000	79.118914
3982.000000	79.147857
3981.000000	79.177609
3980.000000	79.208113
3979.000000	79.239966
3978.000000	79.273873
3977.000000	79.309615
3976.000000	79.345932
3975.000000	79.380815
3974.000000	79.412555
3973.000000	79.441102
3972.000000	79.468070
3971.000000	79.495676
3970.000000	79.524777
3969.000000	79.555051
3968.000000	79.586111
3967.000000	79.617940
3966.000000	79.651074
3965.000000	79.686393
3964.000000	79.724611
3963.000000	79.765373
3962.000000	79.807754
3961.000000	79.850967
3960.000000	79.895133
3959.000000	79.941137
3958.000000	79.988424
3957.000000	80.036007
3956.000000	80.083829
3955.000000	80.132191
3954.000000	80.180707
3953.000000	80.226776
3952.000000	80.267107
3951.000000	80.299674
3950.000000	80.325654
3949.000000	80.349832
3948.000000	80.377200
3947.000000	80.410355
3946.000000	80.448952
3945.000000	80.489921
3944.000000	80.527695
3943.000000	80.556057
3942.000000	80.575557
3941.000000	80.594542
3940.000000	80.621650
3939.000000	80.660610
3938.000000	80.706433
3937.000000	80.750290
3936.000000	80.788167
3935.000000	80.821837
3934.000000	80.855233
3933.000000	80.887469
3932.000000	80.915696
3931.000000	80.938858
3930.000000	80.957286
3929.000000	80.975148
3928.000000	80.996658
3927.000000	81.023626
3926.000000	81.050834
3925.000000	81.067358
3924.000000	81.070527
3923.000000	81.068895
3922.000000	81.069973
3921.000000	81.073941
3920.000000	81.077643
3919.000000	81.082072
3918.000000	81.090430
3917.000000	81.103263
3916.000000	81.119563
3915.000000	81.137992
3914.000000	81.159263
3913.000000	81.184670
3912.000000	81.214016
3911.000000	81.249035
3910.000000	81.288202
3909.000000	81.328811
3908.000000	81.368858
3907.000000	81.400765
3906.000000	81.412918
3905.000000	81.393906
3904.000000	81.350347
3903.000000	81.309888
3902.000000	81.296259
3901.000000	81.314938
3900.000000	81.354721
3899.000000	81.400300
3898.000000	81.447618
3897.000000	81.500049
3896.000000	81.558445
3895.000000	81.621871
3894.000000	81.683697
3893.000000	81.736775
3892.000000	81.774297
3891.000000	81.794148
3890.000000	81.800105
3889.000000	81.803338
3888.000000	81.824763
3887.000000	81.875773
3886.000000	81.939483
3885.000000	81.990417
3884.000000	82.020534
3883.000000	82.039521
3882.000000	82.056690
3881.000000	82.070454
3880.000000	82.078157
3879.000000	82.083708
3878.000000	82.094329
3877.000000	82.119068
3876.000000	82.160022
3875.000000	82.199155
3874.000000	82.210486
3873.000000	82.192349
3872.000000	82.173055
3871.000000	82.174877
3870.000000	82.191556
3869.000000	82.210827
3868.000000	82.229136
3867.000000	82.253710
3866.000000	82.289056
3865.000000	82.321231
3864.000000	82.339019
3863.000000	82.349337
3862.000000	82.363847
3861.000000	82.397266
3860.000000	82.455313
3859.000000	82.531821
3858.000000	82.619511
3857.000000	82.711176
3856.000000	82.789126
3855.000000	82.804400
3854.000000	82.737303
3853.000000	82.665270
3852.000000	82.649723
3851.000000	82.663006
3850.000000	82.675128
3849.000000	82.692463
3848.000000	82.723799
3847.000000	82.771052
3846.000000	82.826591
3845.000000	82.880361
3844.000000	82.925375
3843.000000	82.953466
3842.000000	82.963168
3841.000000	82.968947
3840.000000	82.974763
3839.000000	82.976496
3838.000000	82.982376
3837.000000	83.000090
3836.000000	83.024337
3835.000000	83.044818
3834.000000	83.064570
3833.000000	83.094028
3832.000000	83.131722
3831.000000	83.170294
3830.000000	83.208283
3829.000000	83.248202
3828.000000	83.292135
3827.000000	83.336564
3826.000000	83.368642
3825.000000	83.385905
3824.000000	83.401629
3823.000000	83.430007
3822.000000	83.466037
3821.000000	83.488916
3820.000000	83.490789
3819.000000	83.483970
3818.000000	83.492288
3817.000000	83.526253
3816.000000	83.571473
3815.000000	83.612636
3814.000000	83.650415
3813.000000	83.686140
3812.000000	83.715748
3811.000000	83.740564
3810.000000	83.768064
3809.000000	83.804315
3808.000000	83.848228
3807.000000	83.889446
3806.000000	83.916065
3805.000000	83.930027
3804.000000	83.943716
3803.000000	83.974199
3802.000000	84.009634
3801.000000	84.028806
3800.000000	84.032327
3799.000000	84.029447
3798.000000	84.032728
3797.000000	84.048438
3796.000000	84.074540
3795.000000	84.107718
3794.000000	84.148699
3793.000000	84.194221
3792.000000	84.237608
3791.000000	84.277282
3790.000000	84.313908
3789.000000	84.345673
3788.000000	84.371808
3787.000000	84.395146
3786.000000	84.419259
3785.000000	84.442287
3784.000000	84.458494
3783.000000	84.469201
3782.000000	84.481734
3781.000000	84.498224
3780.000000	84.512083
3779.000000	84.521176
3778.000000	84.532156
3777.000000	84.553041
3776.000000	84.584230
3775.000000	84.619783
3774.000000	84.652750
3773.000000	84.679834
3772.000000	84.703410
3771.000000	84.726450
3770.000000	84.747997
3769.000000	84.766733
3768.000000	84.784420
3767.000000	84.809535
3766.000000	84.850132
3765.000000	84.896568
3764.000000	84.934168
3763.000000	84.965187
3762.000000	85.001963
3761.000000	85.045191
3760.000000	85.080787
3759.000000	85.109284
3758.000000	85.140280
3757.000000	85.172908
3756.000000	85.204350
3755.000000	85.237893
3754.000000	85.278643
3753.000000	85.315592
3752.000000	85.331286
3751.000000	85.340801
3750.000000	85.370699
3749.000000	85.407229
3748.000000	85.420848
3747.000000	85.423372
3746.000000	85.446939
3745.000000	85.497467
3744.000000	85.566234
3743.000000	85.637102
3742.000000	85.683855
3741.000000	85.703263
3740.000000	85.712741
3739.000000	85.733801
3738.000000	85.778440
3737.000000	85.835905
3736.000000	85.884324
3735.000000	85.904167
3734.000000	85.907348
3733.000000	85.926581
3732.000000	85.973526
3731.000000	86.029086
3730.000000	86.068891
3729.000000	86.095775
3728.000000	86.130159
3727.000000	86.173815
3726.000000	86.211743
3725.000000	86.236218
3724.000000	86.253498
3723.000000	86.268354
3722.000000	86.281982
3721.000000	86.300543
3720.000000	86.326695
3719.000000	86.364551
3718.000000	86.411953
3717.000000	86.458705
3716.000000	86.499514
3715.000000	86.534221
3714.000000	86.566499
3713.000000	86.595715
3712.000000	86.618527
3711.000000	86.638438
3710.000000	86.665607
3709.000000	86.710666
3708.000000	86.773170
3707.000000	86.840264
3706.000000	86.902774
3705.000000	86.960637
3704.000000	87.016164
3703.000000	87.066144
3702.000000	87.107197
3701.000000	87.142770
3700.000000	87.173799
3699.000000	87.202130
3698.000000	87.235594
3697.000000	87.276780
3696.000000	87.318689
3695.000000	87.354680
3694.000000	87.384737
3693.000000	87.413574
3692.000000	87.437749
3691.000000	87.445180
3690.000000	87.437098
3689.000000	87.443969
3688.000000	87.487881
3687.000000	87.543177
3686.000000	87.580179
3685.000000	87.601039
3684.000000	87.619544
3683.000000	87.645096
3682.000000	87.683760
3681.000000	87.730883
3680.000000	87.769442
3679.000000	87.779568
3678.000000	87.770311
3677.000000	87.769533
3676.000000	87.787881
3675.000000	87.818749
3674.000000	87.835300
3673.000000	87.825444
3672.000000	87.819814
3671.000000	87.847857
3670.000000	87.898432
3669.000000	87.950336
3668.000000	87.995645
3667.000000	88.031679
3666.000000	88.061160
3665.000000	88.091579
3664.000000	88.125994
3663.000000	88.165614
3662.000000	88.204748
3661.000000	88.230163
3660.000000	88.238242
3659.000000	88.236770
3658.000000	88.241541
3657.000000	88.262207
3656.000000	88.295037
3655.000000	88.323378
3654.000000	88.327614
3653.000000	88.311051
3652.000000	88.296741
3651.000000	88.292583
3650.000000	88.288761
3649.000000	88.292489
3648.000000	88.325347
3647.000000	88.383679
3646.000000	88.440328
3645.000000	88.482144
3644.000000	88.519124
3643.000000	88.565067
3642.000000	88.615072
3641.000000	88.656889
3640.000000	88.690034
3639.000000	88.719107
3638.000000	88.741786
3637.000000	88.752871
3636.000000	88.760003
3635.000000	88.773483
3634.000000	88.784382
3633.000000	88.772686
3632.000000	88.733358
3631.000000	88.686845
3630.000000	88.655362
3629.000000	88.650296
3628.000000	88.670885
3627.000000	88.694928
3626.000000	88.696018
3625.000000	88.675376
3624.000000	88.648562
3623.000000	88.622572
3622.000000	88.596330
3621.000000	88.564017
3620.000000	88.516086
3619.000000	88.449044
3618.000000	88.367539
3617.000000	88.275592
3616.000000	88.180460
3615.000000	88.089717
3614.000000	88.000943
3613.000000	87.906476
3612.000000	87.805723
3611.000000	87.707449
3610.000000	87.625453
3609.000000	87.566272
3608.000000	87.516733
3607.000000	87.456610
3606.000000	87.376969
3605.000000	87.283489
3604.000000	87.188056
3603.000000	87.096477
3602.000000	87.010605
3601.000000	86.932663
3600.000000	86.861842
3599.000000	86.792526
3598.000000	86.719461
3597.000000	86.641450
3596.000000	86.563140
3595.000000	86.484138
3594.000000	86.399758
3593.000000	86.308541
3592.000000	86.210728
3591.000000	86.111631
3590.000000	86.025752
3589.000000	85.967754
3588.000000	85.936786
3587.000000	85.918601
3586.000000	85.899465
3585.000000	85.873799
3584.000000	85.840772
3583.000000	85.800833
3582.000000	85.755246
3581.000000	85.705913
3580.000000	85.653229
3579.000000	85.594528
3578.000000	85.528632
3577.000000	85.458907
3576.000000	85.389282
3575.000000	85.320764
3574.000000	85.249896
3573.000000	85.172242
3572.000000	85.082058
3571.000000	84.974816
3570.000000	84.855275
3569.000000	84.737741
3568.000000	84.632025
3567.000000	84.534749
3566.000000	84.436301
3565.000000	84.330086
3564.000000	84.216316
3563.000000	84.099477
3562.000000	83.982033
3561.000000	83.862564
3560.000000	83.737719
3559.000000	83.604779
3558.000000	83.463242
3557.000000	83.314639
3556.000000	83.159748
3555.000000	82.998054
3554.000000	82.829013
3553.000000	82.653628
3552.000000	82.473364
3551.000000	82.286513
3550.000000	82.089459
3549.000000	81.883423
3548.000000	81.673684
3547.000000	81.463484
3546.000000	81.249831
3545.000000	81.028388
3544.000000	80.798183
3543.000000	80.560663
3542.000000	80.316343
3541.000000	80.065056
3540.000000	79.805411
3539.000000	79.533804
3538.000000	79.246667
3537.000000	78.943775
3536.000000	78.628398
3535.000000	78.301519
3534.000000	77.961564
3533.000000	77.607580
3532.000000	77.239595
3531.000000	76.855050
3530.000000	76.448556
3529.000000	76.018266
3528.000000	75.567950
3527.000000	75.101593
3526.000000	74.619436
3525.000000	74.121022
3524.000000	73.607383
3523.000000	73.078345
3522.000000	72.531127
3521.000000	71.964049
3520.000000	71.378267
3519.000000	70.773797
3518.000000	70.148213
3517.000000	69.500652
3516.000000	68.834176
3515.000000	68.151582
3514.000000	67.453044
3513.000000	66.737798
3512.000000	66.004133
3511.000000	65.247727
3510.000000	64.465913
3509.000000	63.664777
3508.000000	62.855368
3507.000000	62.041073
3506.000000	61.213422
3505.000000	60.362366
3504.000000	59.487438
3503.000000	58.597638
3502.000000	57.703893
3501.000000	56.813302
3500.000000	55.926462
3499.000000	55.037165
3498.000000	54.137825
3497.000000	53.227324
3496.000000	52.311993
3495.000000	51.398598
3494.000000	50.490883
3493.000000	49.592867
3492.000000	48.708602
3491.000000	47.837036
3490.000000	46.973438
3489.000000	46.118506
3488.000000	45.281512
3487.000000	44.472560
3486.000000	43.695468
3485.000000	42.948003
3484.000000	42.223150
3483.000000	41.510822
3482.000000	40.806006
3481.000000	40.116796
3480.000000	39.457856
3479.000000	38.833691
3478.000000	38.234330
3477.000000	37.647298
3476.000000	37.066703
3475.000000	36.491211
3474.000000	35.920575
3473.000000	35.357403
3472.000000	34.807814
3471.000000	34.278751
3470.000000	33.780118
3469.000000	33.328082
3468.000000	32.939681
3467.000000	32.623087
3466.000000	32.377134
3465.000000	32.199948
3464.000000	32.091052
3463.000000	32.047732
3462.000000	32.068535
3461.000000	32.158613
3460.000000	32.324857
3459.000000	32.563788
3458.000000	32.860067
3457.000000	33.197258
3456.000000	33.562185
3455.000000	33.940240
3454.000000	34.314766
3453.000000	34.671054
3452.000000	34.996459
3451.000000	35.276335
3450.000000	35.493737
3449.000000	35.635271
3448.000000	35.693861
3447.000000	35.667075
3446.000000	35.558996
3445.000000	35.379355
3444.000000	35.137585
3443.000000	34.839765
3442.000000	34.492967
3441.000000	34.112464
3440.000000	33.718356
3439.000000	33.327607
3438.000000	32.955469
3437.000000	32.620742
3436.000000	32.342243
3435.000000	32.129360
3434.000000	31.980933
3433.000000	31.892786
3432.000000	31.865052
3431.000000	31.902044
3430.000000	32.011367
3429.000000	32.203348
3428.000000	32.483984
3427.000000	32.852547
3426.000000	33.305625
3425.000000	33.842559
3424.000000	34.464633
3423.000000	35.167674
3422.000000	35.944578
3421.000000	36.789925
3420.000000	37.697872
3419.000000	38.658682
3418.000000	39.658810
3417.000000	40.686529
3416.000000	41.732452
3415.000000	42.787047
3414.000000	43.842732
3413.000000	44.895026
3412.000000	45.938572
3411.000000	46.964185
3410.000000	47.963325
3409.000000	48.933306
3408.000000	49.874119
3407.000000	50.781308
3406.000000	51.647267
3405.000000	52.468358
3404.000000	53.246734
3403.000000	53.987966
3402.000000	54.700279
3401.000000	55.393629
3400.000000	56.074011
3399.000000	56.737144
3398.000000	57.372714
3397.000000	57.974648
3396.000000	58.543807
3395.000000	59.084127
3394.000000	59.600385
3393.000000	60.100139
3392.000000	60.592133
3391.000000	61.080337
3390.000000	61.563211
3389.000000	62.037449
3388.000000	62.500539
3387.000000	62.950602
3386.000000	63.387168
3385.000000	63.812684
3384.000000	64.230067
3383.000000	64.639807
3382.000000	65.041960
3381.000000	65.439171
3380.000000	65.834777
3379.000000	66.228954
3378.000000	66.620201
3377.000000	67.009409
3376.000000	67.398175
3375.000000	67.784266
3374.000000	68.162512
3373.000000	68.530288
3372.000000	68.889279
3371.000000	69.242348
3370.000000	69.592166
3369.000000	69.941885
3368.000000	70.293618
3367.000000	70.646094
3366.000000	70.995978
3365.000000	71.341120
3364.000000	71.680649
3363.000000	72.013507
3362.000000	72.339736
3361.000000	72.661828
3360.000000	72.982031
3359.000000	73.298951
3358.000000	73.609291
3357.000000	73.912022
3356.000000	74.207747
3355.000000	74.495882
3354.000000	74.775709
3353.000000	75.049768
3352.000000	75.322974
3351.000000	75.597893
3350.000000	75.872906
3349.000000	76.144574
3348.000000	76.409368
3347.000000	76.664092
3346.000000	76.907531
3345.000000	77.141814
3344.000000	77.370203
3343.000000	77.593299
3342.000000	77.809671
3341.000000	78.019371
3340.000000	78.224506
3339.000000	78.426556
3338.000000	78.624703
3337.000000	78.816968
3336.000000	79.000757
3335.000000	79.172889
3334.000000	79.331232
3333.000000	79.475755
3332.000000	79.607047
3331.000000	79.723701
3330.000000	79.822801
3329.000000	79.902856
3328.000000	79.963693
3327.000000	80.004745
3326.000000	80.024428
3325.000000	80.020658
3324.000000	79.991026
3323.000000	79.931487
3322.000000	79.837983
3321.000000	79.708479
3320.000000	79.541141
3319.000000	79.332713
3318.000000	79.077462
3317.000000	78.769651
3316.000000	78.403486
3315.000000	77.971090
3314.000000	77.464454
3313.000000	76.875796
3312.000000	76.196882
3311.000000	75.419008
3310.000000	74.533111
3309.000000	73.534977
3308.000000	72.421817
3307.000000	71.188793
3306.000000	69.830547
3305.000000	68.339558
3304.000000	66.708667
3303.000000	64.927914
3302.000000	62.989639
3301.000000	60.895626
3300.000000	58.654547
3299.000000	56.283219
3298.000000	53.811654
3297.000000	51.287212
3296.000000	48.768880
3295.000000	46.314103
3294.000000	43.975028
3293.000000	41.800500
3292.000000	39.828903
3291.000000	38.073250
3290.000000	36.522700
3289.000000	35.149632
3288.000000	33.917751
3287.000000	32.788296
3286.000000	31.725511
3285.000000	30.708692
3284.000000	29.729469
3283.000000	28.787997
3282.000000	27.896543
3281.000000	27.079613
3280.000000	26.368986
3279.000000	25.793470
3278.000000	25.378471
3277.000000	25.149841
3276.000000	25.123594
3275.000000	25.298205
3274.000000	25.655411
3273.000000	26.164174
3272.000000	26.782469
3271.000000	27.452916
3270.000000	28.110230
3269.000000	28.691903
3268.000000	29.142086
3267.000000	29.414936
3266.000000	29.484984
3265.000000	29.353084
3264.000000	29.041219
3263.000000	28.586236
3262.000000	28.035174
3261.000000	27.446054
3260.000000	26.877643
3259.000000	26.378445
3258.000000	25.987437
3257.000000	25.737028
3256.000000	25.647007
3255.000000	25.718804
3254.000000	25.940142
3253.000000	26.289606
3252.000000	26.739393
3251.000000	27.252677
3250.000000	27.790898
3249.000000	28.323257
3248.000000	28.824336
3247.000000	29.271399
3246.000000	29.647000
3245.000000	29.943505
3244.000000	30.160744
3243.000000	30.303157
3242.000000	30.379684
3241.000000	30.404434
3240.000000	30.391216
3239.000000	30.347436
3238.000000	30.279126
3237.000000	30.194232
3236.000000	30.100356
3235.000000	30.003056
3234.000000	29.908143
3233.000000	29.821732
3232.000000	29.741514
3231.000000	29.653157
3230.000000	29.540411
3229.000000	29.394391
3228.000000	29.211216
3227.000000	28.985787
3226.000000	28.714128
3225.000000	28.398246
3224.000000	28.041847
3223.000000	27.646734
3222.000000	27.216878
3221.000000	26.763093
3220.000000	26.299255
3219.000000	25.835560
3218.000000	25.379868
3217.000000	24.939622
3216.000000	24.517649
3215.000000	24.110027
3214.000000	23.712344
3213.000000	23.323930
3212.000000	22.942516
3211.000000	22.560758
3210.000000	22.173246
3209.000000	21.783232
3208.000000	21.397709
3207.000000	21.021108
3206.000000	20.658531
3205.000000	20.318891
3204.000000	20.010368
3203.000000	19.736339
3202.000000	19.500342
3201.000000	19.310523
3200.000000	19.172698
3199.000000	19.086297
3198.000000	19.050080
3197.000000	19.066926
3196.000000	19.139409
3195.000000	19.263225
3194.000000	19.433369
3193.000000	19.648819
3192.000000	19.906882
3191.000000	20.200555
3190.000000	20.523160
3189.000000	20.873366
3188.000000	21.249752
3187.000000	21.645417
3186.000000	22.054174
3185.000000	22.475070
3184.000000	22.907687
3183.000000	23.347543
3182.000000	23.790472
3181.000000	24.236950
3180.000000	24.686638
3179.000000	25.134278
3178.000000	25.575030
3177.000000	26.009150
3176.000000	26.437195
3175.000000	26.855565
3174.000000	27.260994
3173.000000	27.654588
3172.000000	28.037674
3171.000000	28.407617
3170.000000	28.762382
3169.000000	29.104265
3168.000000	29.434911
3167.000000	29.751893
3166.000000	30.052953
3165.000000	30.339751
3164.000000	30.613231
3163.000000	30.869526
3162.000000	31.105145
3161.000000	31.320660
3160.000000	31.516814
3159.000000	31.691534
3158.000000	31.843919
3157.000000	31.978046
3156.000000	32.098336
3155.000000	32.206517
3154.000000	32.306525
3153.000000	32.406961
3152.000000	32.515053
3151.000000	32.631577
3150.000000	32.755377
3149.000000	32.888194
3148.000000	33.031465
3147.000000	33.183054
3146.000000	33.341304
3145.000000	33.508049
3144.000000	33.683863
3143.000000	33.864895
3142.000000	34.047468
3141.000000	34.231664
3140.000000	34.416660
3139.000000	34.597003
3138.000000	34.767170
3137.000000	34.925583
3136.000000	35.070356
3135.000000	35.194924
3134.000000	35.292146
3133.000000	35.357511
3132.000000	35.385916
3131.000000	35.368627
3130.000000	35.296375
3129.000000	35.164083
3128.000000	34.968223
3127.000000	34.707099
3126.000000	34.386392
3125.000000	34.019793
3124.000000	33.623335
3123.000000	33.210606
3122.000000	32.796579
3121.000000	32.398488
3120.000000	32.027774
3119.000000	31.685558
3118.000000	31.368888
3117.000000	31.076889
3116.000000	30.807419
3115.000000	30.554083
3114.000000	30.310521
3113.000000	30.074087
3112.000000	29.842190
3111.000000	29.610581
3110.000000	29.379770
3109.000000	29.157246
3108.000000	28.950398
3107.000000	28.761997
3106.000000	28.595016
3105.000000	28.457323
3104.000000	28.356329
3103.000000	28.295452
3102.000000	28.279802
3101.000000	28.318466
3100.000000	28.419414
3099.000000	28.583796
3098.000000	28.810190
3097.000000	29.099420
3096.000000	29.449470
3095.000000	29.854312
3094.000000	30.308488
3093.000000	30.809848
3092.000000	31.355178
3091.000000	31.936027
3090.000000	32.544203
3089.000000	33.174031
3088.000000	33.817979
3087.000000	34.466296
3086.000000	35.113074
3085.000000	35.758724
3084.000000	36.402460
3083.000000	37.038089
3082.000000	37.660155
3081.000000	38.268994
3080.000000	38.866582
3079.000000	39.451988
3078.000000	40.024137
3077.000000	40.583555
3076.000000	41.128897
3075.000000	41.655563
3074.000000	42.161093
3073.000000	42.648072
3072.000000	43.118625
3071.000000	43.571464
3070.000000	44.006190
3069.000000	44.426369
3068.000000	44.835503
3067.000000	45.232979
3066.000000	45.617614
3065.000000	45.990877
3064.000000	46.354087
3063.000000	46.706412
3062.000000	47.047536
3061.000000	47.379703
3060.000000	47.704369
3059.000000	48.020248
3058.000000	48.327108
3057.000000	48.627456
3056.000000	48.922921
3055.000000	49.212044
3054.000000	49.493889
3053.000000	49.770713
3052.000000	50.044546
3051.000000	50.314729
3050.000000	50.580402
3049.000000	50.842150
3048.000000	51.099661
3047.000000	51.350937
3046.000000	51.595978
3045.000000	51.837770
3044.000000	52.077885
3043.000000	52.314978
3042.000000	52.548916
3041.000000	52.782408
3040.000000	53.016189
3039.000000	53.246475
3038.000000	53.470127
3037.000000	53.688872
3036.000000	53.906449
3035.000000	54.124660
3034.000000	54.344001
3033.000000	54.564795
3032.000000	54.785341
3031.000000	55.002439
3030.000000	55.215697
3029.000000	55.427770
3028.000000	55.639064
3027.000000	55.846291
3026.000000	56.048043
3025.000000	56.247421
3024.000000	56.446284
3023.000000	56.640981
3022.000000	56.826278
3021.000000	56.999592
3020.000000	57.158764
3019.000000	57.298232
3018.000000	57.411133
3017.000000	57.492896
3016.000000	57.541172
3015.000000	57.556560
3014.000000	57.546573
3013.000000	57.528074
3012.000000	57.522625
3011.000000	57.550366
3010.000000	57.627032
3009.000000	57.760756
3008.000000	57.947187
3007.000000	58.169254
3006.000000	58.404048
3005.000000	58.628749
3004.000000	58.819851
3003.000000	58.950800
3002.000000	58.994437
3001.000000	58.926906
3000.000000	58.733626
2999.000000	58.419894
2998.000000	58.024409
2997.000000	57.621194
2996.000000	57.301255
2995.000000	57.144386
2994.000000	57.194196
2993.000000	57.446534
2992.000000	57.851554
2991.000000	58.335260
2990.000000	58.828845
2989.000000	59.287550
2988.000000	59.691230
2987.000000	60.035432
2986.000000	60.325426
2985.000000	60.570220
2984.000000	60.776373
2983.000000	60.944949
2982.000000	61.075733
2981.000000	61.169384
2980.000000	61.224035
2979.000000	61.232707
2978.000000	61.187512
2977.000000	61.087383
2976.000000	60.940467
2975.000000	60.764420
2974.000000	60.585494
2973.000000	60.433315
2972.000000	60.330833
2971.000000	60.285248
2970.000000	60.285388
2969.000000	60.301436
2968.000000	60.286549
2967.000000	60.188637
2966.000000	59.972852
2965.000000	59.639522
2964.000000	59.224079
2963.000000	58.782388
2962.000000	58.374181
2961.000000	58.048382
2960.000000	57.834347
2959.000000	57.741632
2958.000000	57.768798
2957.000000	57.908007
2956.000000	58.142410
2955.000000	58.445583
2954.000000	58.786416
2953.000000	59.133052
2952.000000	59.450597
2951.000000	59.705446
2950.000000	59.877579
2949.000000	59.970499
2948.000000	60.006161
2947.000000	60.008164
2946.000000	59.982754
2945.000000	59.901521
2944.000000	59.700618
2943.000000	59.311809
2942.000000	58.722432
2941.000000	58.021068
2940.000000	57.387561
2939.000000	57.023037
2938.000000	57.059011
2937.000000	57.502554
2936.000000	58.243851
2935.000000	59.120043
2934.000000	59.988345
2933.000000	60.765685
2932.000000	61.424539
2931.000000	61.971449
2930.000000	62.429400
2929.000000	62.824246
2928.000000	63.175868
2927.000000	63.494555
2926.000000	63.786128
2925.000000	64.055679
2924.000000	64.306154
2923.000000	64.537185
2922.000000	64.748402
2921.000000	64.941298
2920.000000	65.116271
2919.000000	65.271843
2918.000000	65.407675
2917.000000	65.525917
2916.000000	65.628313
2915.000000	65.714874
2914.000000	65.786759
2913.000000	65.847050
2912.000000	65.897430
2911.000000	65.936885
2910.000000	65.964381
2909.000000	65.979413
2908.000000	65.978405
2907.000000	65.952558
2906.000000	65.890838
2905.000000	65.781246
2904.000000	65.608679
2903.000000	65.356022
2902.000000	65.013609
2901.000000	64.586589
2900.000000	64.097554
2899.000000	63.587277
2898.000000	63.111431
2897.000000	62.730983
2896.000000	62.493240
2895.000000	62.417740
2894.000000	62.496547
2893.000000	62.701743
2892.000000	62.994288
2891.000000	63.332996
2890.000000	63.684810
2889.000000	64.028461
2888.000000	64.351148
2887.000000	64.644929
2886.000000	64.906511
2885.000000	65.137021
2884.000000	65.337900
2883.000000	65.509758
2882.000000	65.655333
2881.000000	65.780665
2880.000000	65.891826
2879.000000	65.992657
2878.000000	66.086501
2877.000000	66.176967
2876.000000	66.265598
2875.000000	66.351122
2874.000000	66.432706
2873.000000	66.511474
2872.000000	66.588457
2871.000000	66.664622
2870.000000	66.744157
2869.000000	66.834490
2868.000000	66.940777
2867.000000	67.062299
2866.000000	67.194972
2865.000000	67.334071
2864.000000	67.473394
2863.000000	67.605945
2862.000000	67.728166
2861.000000	67.841406
2860.000000	67.947950
2859.000000	68.048139
2858.000000	68.142732
2857.000000	68.234892
2856.000000	68.327780
2855.000000	68.422513
2854.000000	68.519653
2853.000000	68.619555
2852.000000	68.719465
2851.000000	68.813051
2850.000000	68.894975
2849.000000	68.964253
2848.000000	69.022594
2847.000000	69.072466
2846.000000	69.118111
2845.000000	69.165152
2844.000000	69.216903
2843.000000	69.272826
2842.000000	69.331890
2841.000000	69.395358
2840.000000	69.464882
2839.000000	69.540324
2838.000000	69.621010
2837.000000	69.707075
2836.000000	69.798216
2835.000000	69.892997
2834.000000	69.990448
2833.000000	70.090573
2832.000000	70.192455
2831.000000	70.293821
2830.000000	70.393339
2829.000000	70.491240
2828.000000	70.586931
2827.000000	70.678476
2826.000000	70.765411
2825.000000	70.849814
2824.000000	70.933541
2823.000000	71.016435
2822.000000	71.098186
2821.000000	71.179505
2820.000000	71.260113
2819.000000	71.337724
2818.000000	71.410341
2817.000000	71.477866
2816.000000	71.540559
2815.000000	71.597874
2814.000000	71.650024
2813.000000	71.698904
2812.000000	71.746404
2811.000000	71.793393
2810.000000	71.840849
2809.000000	71.889990
2808.000000	71.940453
2807.000000	71.990225
2806.000000	72.038170
2805.000000	72.084754
2804.000000	72.129784
2803.000000	72.171733
2802.000000	72.210182
2801.000000	72.246917
2800.000000	72.283761
2799.000000	72.321251
2798.000000	72.360025
2797.000000	72.401212
2796.000000	72.444513
2795.000000	72.487892
2794.000000	72.529941
2793.000000	72.570606
2792.000000	72.609208
2791.000000	72.644185
2790.000000	72.675525
2789.000000	72.705067
2788.000000	72.733511
2787.000000	72.759491
2786.000000	72.782609
2785.000000	72.805224
2784.000000	72.830265
2783.000000	72.859548
2782.000000	72.894987
2781.000000	72.938660
2780.000000	72.990153
2779.000000	73.045803
2778.000000	73.101874
2777.000000	73.156992
2776.000000	73.210853
2775.000000	73.262887
2774.000000	73.313427
2773.000000	73.364115
2772.000000	73.415955
2771.000000	73.468532
2770.000000	73.521729
2769.000000	73.576139
2768.000000	73.630868
2767.000000	73.682864
2766.000000	73.729481
2765.000000	73.770002
2764.000000	73.804194
2763.000000	73.831699
2762.000000	73.853715
2761.000000	73.873310
2760.000000	73.893007
2759.000000	73.913565
2758.000000	73.935583
2757.000000	73.959815
2756.000000	73.985008
2755.000000	74.007754
2754.000000	74.025742
2753.000000	74.039777
2752.000000	74.052139
2751.000000	74.065050
2750.000000	74.081273
2749.000000	74.103433
2748.000000	74.131163
2747.000000	74.160783
2746.000000	74.188990
2745.000000	74.215335
2744.000000	74.240547
2743.000000	74.264649
2742.000000	74.287555
2741.000000	74.309272
2740.000000	74.328112
2739.000000	74.340669
2738.000000	74.345344
2737.000000	74.345317
2736.000000	74.347676
2735.000000	74.361001
2734.000000	74.393312
2733.000000	74.448677
2732.000000	74.523984
2731.000000	74.610316
2730.000000	74.698369
2729.000000	74.782032
2728.000000	74.857452
2727.000000	74.921970
2726.000000	74.975385
2725.000000	75.020008
2724.000000	75.058003
2723.000000	75.090218
2722.000000	75.117860
2721.000000	75.142970
2720.000000	75.166524
2719.000000	75.187774
2718.000000	75.206483
2717.000000	75.224129
2716.000000	75.242061
2715.000000	75.260462
2714.000000	75.279798
2713.000000	75.301319
2712.000000	75.325475
2711.000000	75.351769
2710.000000	75.380805
2709.000000	75.414405
2708.000000	75.452791
2707.000000	75.493408
2706.000000	75.533239
2705.000000	75.570328
2704.000000	75.602417
2703.000000	75.626440
2702.000000	75.640561
2701.000000	75.644846
2700.000000	75.639594
2699.000000	75.624876
2698.000000	75.602601
2697.000000	75.577287
2696.000000	75.553470
2695.000000	75.533911
2694.000000	75.520438
2693.000000	75.513957
2692.000000	75.512795
2691.000000	75.513264
2690.000000	75.513038
2689.000000	75.512516
2688.000000	75.512518
2687.000000	75.512823
2686.000000	75.513880
2685.000000	75.517578
2684.000000	75.525226
2683.000000	75.536853
2682.000000	75.553199
2681.000000	75.576422
2680.000000	75.607527
2679.000000	75.644688
2678.000000	75.684953
2677.000000	75.725583
2676.000000	75.763217
2675.000000	75.794120
2674.000000	75.816508
2673.000000	75.831219
2672.000000	75.839633
2671.000000	75.842835
2670.000000	75.843523
2669.000000	75.846586
2668.000000	75.856500
2667.000000	75.875450
2666.000000	75.904273
2665.000000	75.942776
2664.000000	75.988061
2663.000000	76.034626
2662.000000	76.077246
2661.000000	76.112527
2660.000000	76.137790
2659.000000	76.150968
2658.000000	76.152606
2657.000000	76.146285
2656.000000	76.136131
2655.000000	76.125452
2654.000000	76.118247
2653.000000	76.119431
2652.000000	76.132278
2651.000000	76.157172
2650.000000	76.193205
2649.000000	76.238731
2648.000000	76.289961
2647.000000	76.341324
2646.000000	76.388578
2645.000000	76.430507
2644.000000	76.467246
2643.000000	76.499471
2642.000000	76.529862
2641.000000	76.562909
2640.000000	76.601829
2639.000000	76.646769
2638.000000	76.696167
2637.000000	76.747698
2636.000000	76.797368
2635.000000	76.840181
2634.000000	76.873272
2633.000000	76.897088
2632.000000	76.913232
2631.000000	76.923323
2630.000000	76.930245
2629.000000	76.938154
2628.000000	76.949604
2627.000000	76.963919
2626.000000	76.979091
2625.000000	76.993202
2624.000000	77.003829
2623.000000	77.008505
2622.000000	77.007026
2621.000000	77.001813
2620.000000	76.995015
2619.000000	76.987018
2618.000000	76.978105
2617.000000	76.969141
2616.000000	76.959712
2615.000000	76.947307
2614.000000	76.929613
2613.000000	76.906060
2612.000000	76.876634
2611.000000	76.841671
2610.000000	76.803851
2609.000000	76.768481
2608.000000	76.740587
2607.000000	76.723073
2606.000000	76.717832
2605.000000	76.726584
2604.000000	76.749300
2603.000000	76.783428
2602.000000	76.825948
2601.000000	76.874051
2600.000000	76.923863
2599.000000	76.970713
2598.000000	77.011597
2597.000000	77.046264
2596.000000	77.075387
2595.000000	77.099800
2594.000000	77.121974
2593.000000	77.145853
2592.000000	77.173997
2591.000000	77.206363
2590.000000	77.242058
2589.000000	77.280020
2588.000000	77.317407
2587.000000	77.349655
2586.000000	77.373586
2585.000000	77.389185
2584.000000	77.398260
2583.000000	77.403689
2582.000000	77.410589
2581.000000	77.425577
2580.000000	77.453340
2579.000000	77.494975
2578.000000	77.549516
2577.000000	77.615012
2576.000000	77.687344
2575.000000	77.760718
2574.000000	77.830874
2573.000000	77.896189
2572.000000	77.955714
2571.000000	78.008383
2570.000000	78.054875
2569.000000	78.097947
2568.000000	78.139855
2567.000000	78.181155
2566.000000	78.222592
2565.000000	78.265858
2564.000000	78.311142
2563.000000	78.356191
2562.000000	78.398825
2561.000000	78.438666
2560.000000	78.475603
2559.000000	78.508543
2558.000000	78.537164
2557.000000	78.563098
2556.000000	78.588334
2555.000000	78.613995
2554.000000	78.641467
2553.000000	78.672851
2552.000000	78.709017
2551.000000	78.748626
2550.000000	78.789972
2549.000000	78.832256
2548.000000	78.874250
2547.000000	78.913582
2546.000000	78.948548
2545.000000	78.979418
2544.000000	79.006983
2543.000000	79.031296
2542.000000	79.052426
2541.000000	79.070746
2540.000000	79.085806
2539.000000	79.095984
2538.000000	79.100263
2537.000000	79.098930
2536.000000	79.091782
2535.000000	79.077777
2534.000000	79.056756
2533.000000	79.030187
2532.000000	78.999438
2531.000000	78.964682
2530.000000	78.926667
2529.000000	78.887613
2528.000000	78.849682
2527.000000	78.814075
2526.000000	78.782126
2525.000000	78.755499
2524.000000	78.734167
2523.000000	78.715639
2522.000000	78.696906
2521.000000	78.675708
2520.000000	78.649606
2519.000000	78.615860
2518.000000	78.573403
2517.000000	78.523581
2516.000000	78.468150
2515.000000	78.408447
2514.000000	78.346921
2513.000000	78.287591
2512.000000	78.234059
2511.000000	78.188709
2510.000000	78.154115
2509.000000	78.133157
2508.000000	78.126789
2507.000000	78.132998
2506.000000	78.149414
2505.000000	78.174599
2504.000000	78.206568
2503.000000	78.242469
2502.000000	78.280105
2501.000000	78.318671
2500.000000	78.356985
2499.000000	78.392875
2498.000000	78.425147
2497.000000	78.454064
2496.000000	78.479300
2495.000000	78.499459
2494.000000	78.514205
2493.000000	78.524767
2492.000000	78.531870
2491.000000	78.535045
2490.000000	78.534956
2489.000000	78.534512
2488.000000	78.536632
2487.000000	78.542768
2486.000000	78.554060
2485.000000	78.571606
2484.000000	78.594462
2483.000000	78.619406
2482.000000	78.643666
2481.000000	78.666378
2480.000000	78.687003
2479.000000	78.704547
2478.000000	78.719615
2477.000000	78.735132
2476.000000	78.754128
2475.000000	78.778408
2474.000000	78.809768
2473.000000	78.850334
2472.000000	78.900095
2471.000000	78.956010
2470.000000	79.014622
2469.000000	79.073801
2468.000000	79.131530
2467.000000	79.185080
2466.000000	79.232816
2465.000000	79.275302
2464.000000	79.313726
2463.000000	79.348642
2462.000000	79.380977
2461.000000	79.412308
2460.000000	79.442848
2459.000000	79.470943
2458.000000	79.495091
2457.000000	79.515108
2456.000000	79.530716
2455.000000	79.540820
2454.000000	79.545639
2453.000000	79.547799
2452.000000	79.550474
2451.000000	79.555714
2450.000000	79.565081
2449.000000	79.579944
2448.000000	79.600168
2447.000000	79.624192
2446.000000	79.651283
2445.000000	79.682377
2444.000000	79.717849
2443.000000	79.756370
2442.000000	79.796645
2441.000000	79.838277
2440.000000	79.880217
2439.000000	79.920090
2438.000000	79.956212
2437.000000	79.988682
2436.000000	80.017753
2435.000000	80.042592
2434.000000	80.062574
2433.000000	80.077940
2432.000000	80.088259
2431.000000	80.092299
2430.000000	80.089855
2429.000000	80.082260
2428.000000	80.070019
2427.000000	80.051644
2426.000000	80.026240
2425.000000	79.994983
2424.000000	79.959482
2423.000000	79.920594
2422.000000	79.880098
2421.000000	79.841840
2420.000000	79.809606
2419.000000	79.785311
2418.000000	79.769961
2417.000000	79.764403
2416.000000	79.767535
2415.000000	79.775666
2414.000000	79.784848
2413.000000	79.792226
2412.000000	79.794322
2411.000000	79.786347
2410.000000	79.764860
2409.000000	79.729726
2408.000000	79.682651
2407.000000	79.625517
2406.000000	79.561901
2405.000000	79.497721
2404.000000	79.438403
2403.000000	79.386748
2402.000000	79.344649
2401.000000	79.314696
2400.000000	79.298044
2399.000000	79.292275
2398.000000	79.292803
2397.000000	79.295043
2396.000000	79.293946
2395.000000	79.283882
2394.000000	79.261309
2393.000000	79.226985
2392.000000	79.183979
2391.000000	79.135779
2390.000000	79.087710
2389.000000	79.046849
2388.000000	79.019928
2387.000000	79.010155
2386.000000	79.019111
2385.000000	79.049772
2384.000000	79.103078
2383.000000	79.177032
2382.000000	79.267092
2381.000000	79.368432
2380.000000	79.475258
2379.000000	79.577090
2378.000000	79.662486
2377.000000	79.725032
2376.000000	79.762331
2375.000000	79.773311
2374.000000	79.760763
2373.000000	79.732995
2372.000000	79.699779
2371.000000	79.666157
2370.000000	79.630780
2369.000000	79.597882
2368.000000	79.576559
2367.000000	79.570994
2366.000000	79.578473
2365.000000	79.602679
2364.000000	79.659104
2363.000000	79.739238
2362.000000	79.830690
2361.000000	79.937442
2360.000000	80.044943
2359.000000	80.144388
2358.000000	80.213453
2357.000000	80.241678
2356.000000	80.234228
2355.000000	80.182138
2354.000000	80.108297
2353.000000	80.052531
2352.000000	80.077054
2351.000000	80.181310
2350.000000	80.271806
2349.000000	80.286749
2348.000000	80.228794
2347.000000	80.198239
2346.000000	80.251742
2345.000000	80.352046
2344.000000	80.431665
2343.000000	80.439205
2342.000000	80.419107
2341.000000	80.398610
2340.000000	80.385268
2339.000000	80.369705
2338.000000	80.356170
2337.000000	80.349606
2336.000000	80.356396
2335.000000	80.369863
2334.000000	80.395629
2333.000000	80.416638
2332.000000	80.418738
2331.000000	80.387303
2330.000000	80.310533
2329.000000	80.223355
2328.000000	80.130377
2327.000000	80.060626
2326.000000	80.018233
2325.000000	80.005545
2324.000000	80.020083
2323.000000	80.029943
2322.000000	80.030489
2321.000000	80.004428
2320.000000	79.963745
2319.000000	79.911217
2318.000000	79.861643
2317.000000	79.821886
2316.000000	79.792119
2315.000000	79.767779
2314.000000	79.737756
2313.000000	79.694253
2312.000000	79.626042
2311.000000	79.535894
2310.000000	79.429798
2309.000000	79.318456
2308.000000	79.203197
2307.000000	79.083623
2306.000000	78.960334
2305.000000	78.833629
2304.000000	78.704647
2303.000000	78.572544
2302.000000	78.440310
2301.000000	78.311917
2300.000000	78.189257
2299.000000	78.076472
2298.000000	77.976266
2297.000000	77.893731
2296.000000	77.826292
2295.000000	77.773575
2294.000000	77.733733
2293.000000	77.707851
2292.000000	77.693563
2291.000000	77.689855
2290.000000	77.698307
2289.000000	77.721659
2288.000000	77.761439
2287.000000	77.818076
2286.000000	77.893514
2285.000000	77.986852
2284.000000	78.092387
2283.000000	78.200281
2282.000000	78.302979
2281.000000	78.394405
2280.000000	78.470083
2279.000000	78.527564
2278.000000	78.570417
2277.000000	78.605717
2276.000000	78.640254
2275.000000	78.680314
2274.000000	78.731714
2273.000000	78.798734
2272.000000	78.880486
2271.000000	78.973206
2270.000000	79.073899
2269.000000	79.180286
2268.000000	79.289152
2267.000000	79.397389
2266.000000	79.504158
2265.000000	79.611205
2264.000000	79.719287
2263.000000	79.829636
2262.000000	79.944216
2261.000000	80.063772
2260.000000	80.186160
2259.000000	80.306472
2258.000000	80.421409
2257.000000	80.527405
2256.000000	80.620614
2255.000000	80.698196
2254.000000	80.761648
2253.000000	80.815773
2252.000000	80.865173
2251.000000	80.914449
2250.000000	80.968909
2249.000000	81.032751
2248.000000	81.105900
2247.000000	81.185319
2246.000000	81.266956
2245.000000	81.346459
2244.000000	81.417930
2243.000000	81.475911
2242.000000	81.518361
2241.000000	81.546585
2240.000000	81.562818
2239.000000	81.569789
2238.000000	81.571885
2237.000000	81.574006
2236.000000	81.579469
2235.000000	81.589820
2234.000000	81.606188
2233.000000	81.628459
2232.000000	81.653918
2231.000000	81.678605
2230.000000	81.699858
2229.000000	81.716281
2228.000000	81.726559
2227.000000	81.730602
2226.000000	81.731322
2225.000000	81.733183
2224.000000	81.738996
2223.000000	81.749500
2222.000000	81.764926
2221.000000	81.784937
2220.000000	81.807416
2219.000000	81.829476
2218.000000	81.849459
2217.000000	81.866832
2216.000000	81.881138
2215.000000	81.892975
2214.000000	81.905369
2213.000000	81.922171
2212.000000	81.945426
2211.000000	81.975325
2210.000000	82.011533
2209.000000	82.052566
2208.000000	82.094866
2207.000000	82.134594
2206.000000	82.169748
2205.000000	82.199074
2204.000000	82.220031
2203.000000	82.230131
2202.000000	82.229598
2201.000000	82.220892
2200.000000	82.206403
2199.000000	82.188501
2198.000000	82.170985
2197.000000	82.158029
2196.000000	82.152034
2195.000000	82.154032
2194.000000	82.165470
2193.000000	82.187339
2192.000000	82.217998
2191.000000	82.253882
2190.000000	82.291957
2189.000000	82.330080
2188.000000	82.366047
2187.000000	82.398781
2186.000000	82.429974
2185.000000	82.462619
2184.000000	82.498116
2183.000000	82.536146
2182.000000	82.576402
2181.000000	82.618276
2180.000000	82.659499
2179.000000	82.697010
2178.000000	82.728912
2177.000000	82.754271
2176.000000	82.771962
2175.000000	82.781654
2174.000000	82.785167
2173.000000	82.785120
2172.000000	82.782811
2171.000000	82.778903
2170.000000	82.775139
2169.000000	82.773316
2168.000000	82.773218
2167.000000	82.773382
2166.000000	82.773287
2165.000000	82.772974
2164.000000	82.771384
2163.000000	82.767291
2162.000000	82.761440
2161.000000	82.756116
2160.000000	82.753254
2159.000000	82.754548
2158.000000	82.762352
2157.000000	82.778165
2156.000000	82.800690
2155.000000	82.827030
2154.000000	82.854999
2153.000000	82.882569
2152.000000	82.906500
2151.000000	82.924034
2150.000000	82.935618
2149.000000	82.944091
2148.000000	82.951747
2147.000000	82.959985
2146.000000	82.970557
2145.000000	82.984693
2144.000000	83.001430
2143.000000	83.018544
2142.000000	83.034468
2141.000000	83.047897
2140.000000	83.056707
2139.000000	83.059382
2138.000000	83.056868
2137.000000	83.051344
2136.000000	83.044001
2135.000000	83.035628
2134.000000	83.028151
2133.000000	83.023199
2132.000000	83.019719
2131.000000	83.014921
2130.000000	83.006940
2129.000000	82.994924
2128.000000	82.977762
2127.000000	82.955190
2126.000000	82.929644
2125.000000	82.905034
2124.000000	82.884196
2123.000000	82.869441
2122.000000	82.864410
2121.000000	82.872843
2120.000000	82.895822
2119.000000	82.931587
2118.000000	82.976826
2117.000000	83.026197
2116.000000	83.072047
2115.000000	83.107545
2114.000000	83.130412
2113.000000	83.142388
2112.000000	83.146206
2111.000000	83.144995
2110.000000	83.143096
2109.000000	83.144644
2108.000000	83.151255
2107.000000	83.162498
2106.000000	83.177855
2105.000000	83.196314
2104.000000	83.214857
2103.000000	83.229517
2102.000000	83.237523
2101.000000	83.237067
2100.000000	83.226210
2099.000000	83.204127
2098.000000	83.173116
2097.000000	83.137467
2096.000000	83.100891
2095.000000	83.067017
2094.000000	83.040795
2093.000000	83.026508
2092.000000	83.024901
2091.000000	83.033995
2090.000000	83.051986
2089.000000	83.077560
2088.000000	83.108446
2087.000000	83.142151
2086.000000	83.177326
2085.000000	83.212478
2084.000000	83.244720
2083.000000	83.271720
2082.000000	83.293427
2081.000000	83.310143
2080.000000	83.320214
2079.000000	83.321507
2078.000000	83.314063
2077.000000	83.298806
2076.000000	83.275143
2075.000000	83.242506
2074.000000	83.202389
2073.000000	83.156940
2072.000000	83.106581
2071.000000	83.050974
2070.000000	82.991952
2069.000000	82.932527
2068.000000	82.873208
2067.000000	82.811504
2066.000000	82.744941
2065.000000	82.673108
2064.000000	82.596966
2063.000000	82.518323
2062.000000	82.439264
2061.000000	82.360156
2060.000000	82.279156
2059.000000	82.195326
2058.000000	82.111172
2057.000000	82.030134
2056.000000	81.953217
2055.000000	81.880294
2054.000000	81.812998
2053.000000	81.753742
2052.000000	81.702984
2051.000000	81.659693
2050.000000	81.623644
2049.000000	81.594988
2048.000000	81.571801
2047.000000	81.551248
2046.000000	81.533592
2045.000000	81.521447
2044.000000	81.515228
2043.000000	81.512791
2042.000000	81.513582
2041.000000	81.520120
2040.000000	81.534793
2039.000000	81.558487
2038.000000	81.592023
2037.000000	81.635371
2036.000000	81.686015
2035.000000	81.740924
2034.000000	81.799833
2033.000000	81.863847
2032.000000	81.931903
2031.000000	82.001924
2030.000000	82.073878
2029.000000	82.148397
2028.000000	82.223424
2027.000000	82.295612
2026.000000	82.363989
2025.000000	82.429235
2024.000000	82.490340
2023.000000	82.545419
2022.000000	82.596370
2021.000000	82.648372
2020.000000	82.703670
2019.000000	82.759506
2018.000000	82.813128
2017.000000	82.865764
2016.000000	82.920991
2015.000000	82.981986
2014.000000	83.050264
2013.000000	83.123993
2012.000000	83.197300
2011.000000	83.264596
2010.000000	83.325799
2009.000000	83.384505
2008.000000	83.442572
2007.000000	83.500528
2006.000000	83.561159
2005.000000	83.628001
2004.000000	83.700626
2003.000000	83.774881
2002.000000	83.847496
2001.000000	83.915755
2000.000000	83.975458
1999.000000	84.023339
1998.000000	84.060061
1997.000000	84.090947
1996.000000	84.123196
1995.000000	84.161226
1994.000000	84.204653
1993.000000	84.250792
1992.000000	84.299384
1991.000000	84.354520
1990.000000	84.420040
1989.000000	84.493708
1988.000000	84.567431
1987.000000	84.632689
1986.000000	84.686222
1985.000000	84.730622
1984.000000	84.770446
1983.000000	84.809636
1982.000000	84.851942
1981.000000	84.901125
1980.000000	84.960596
1979.000000	85.031621
1978.000000	85.110768
1977.000000	85.191758
1976.000000	85.269420
1975.000000	85.340000
1974.000000	85.399524
1973.000000	85.445874
1972.000000	85.482558
1971.000000	85.516657
1970.000000	85.552156
1969.000000	85.587928
1968.000000	85.621348
1967.000000	85.651877
1966.000000	85.681605
1965.000000	85.712730
1964.000000	85.744309
1963.000000	85.770038
1962.000000	85.780295
1961.000000	85.769929
1960.000000	85.743131
1959.000000	85.708565
1958.000000	85.672209
1957.000000	85.637712
1956.000000	85.610807
1955.000000	85.597942
1954.000000	85.601244
1953.000000	85.618949
1952.000000	85.648209
1951.000000	85.685321
1950.000000	85.725175
1949.000000	85.761298
1948.000000	85.789238
1947.000000	85.809567
1946.000000	85.824862
1945.000000	85.834500
1944.000000	85.833879
1943.000000	85.820207
1942.000000	85.799636
1941.000000	85.784905
1940.000000	85.785611
1939.000000	85.802456
1938.000000	85.827357
1937.000000	85.849647
1936.000000	85.864273
1935.000000	85.871547
1934.000000	85.871123
1933.000000	85.861199
1932.000000	85.841160
1931.000000	85.814902
1930.000000	85.789581
1929.000000	85.768914
1928.000000	85.755025
1927.000000	85.753472
1926.000000	85.770434
1925.000000	85.802197
1924.000000	85.832515
1923.000000	85.850580
1922.000000	85.863348
1921.000000	85.880394
1920.000000	85.898132
1919.000000	85.905089
1918.000000	85.896722
1917.000000	85.879469
1916.000000	85.859871
1915.000000	85.842673
1914.000000	85.833490
1913.000000	85.832901
1912.000000	85.834808
1911.000000	85.835469
1910.000000	85.837733
1909.000000	85.842198
1908.000000	85.844819
1907.000000	85.844664
1906.000000	85.847573
1905.000000	85.855637
1904.000000	85.860995
1903.000000	85.862049
1902.000000	85.870203
1901.000000	85.893188
1900.000000	85.928362
1899.000000	85.974484
1898.000000	86.036466
1897.000000	86.111812
1896.000000	86.183411
1895.000000	86.239563
1894.000000	86.288158
1893.000000	86.338329
1892.000000	86.382855
1891.000000	86.408379
1890.000000	86.412549
1889.000000	86.406414
1888.000000	86.403096
1887.000000	86.412631
1886.000000	86.442663
1885.000000	86.489817
1884.000000	86.539883
1883.000000	86.586277
1882.000000	86.635136
1881.000000	86.686616
1880.000000	86.729366
1879.000000	86.756456
1878.000000	86.774215
1877.000000	86.791398
1876.000000	86.807595
1875.000000	86.822794
1874.000000	86.848340
1873.000000	86.894004
1872.000000	86.953370
1871.000000	87.012082
1870.000000	87.060319
1869.000000	87.093599
1868.000000	87.110830
1867.000000	87.119774
1866.000000	87.137365
1865.000000	87.171224
1864.000000	87.210397
1863.000000	87.243486
1862.000000	87.274658
1861.000000	87.311953
1860.000000	87.351408
1859.000000	87.387179
1858.000000	87.425157
1857.000000	87.471088
1856.000000	87.517234
1855.000000	87.555770
1854.000000	87.590592
1853.000000	87.624487
1852.000000	87.654804
1851.000000	87.683242
1850.000000	87.715603
1849.000000	87.752432
1848.000000	87.786121
1847.000000	87.813425
1846.000000	87.837767
1845.000000	87.858324
1844.000000	87.875024
1843.000000	87.896154
1842.000000	87.926597
1841.000000	87.966036
1840.000000	88.012882
1839.000000	88.058619
1838.000000	88.094118
1837.000000	88.117011
1836.000000	88.131063
1835.000000	88.146202
1834.000000	88.170975
1833.000000	88.204921
1832.000000	88.242565
1831.000000	88.272660
1830.000000	88.288706
1829.000000	88.305734
1828.000000	88.340913
1827.000000	88.391139
1826.000000	88.441329
1825.000000	88.480897
1824.000000	88.510077
1823.000000	88.533462
1822.000000	88.556595
1821.000000	88.585962
1820.000000	88.620537
1819.000000	88.650316
1818.000000	88.673772
1817.000000	88.701938
1816.000000	88.738946
1815.000000	88.777347
1814.000000	88.811197
1813.000000	88.839924
1812.000000	88.855433
1811.000000	88.844361
1810.000000	88.815976
1809.000000	88.793839
1808.000000	88.780327
1807.000000	88.764840
1806.000000	88.754192
1805.000000	88.763808
1804.000000	88.788843
1803.000000	88.808321
1802.000000	88.811397
1801.000000	88.808971
1800.000000	88.813491
1799.000000	88.825058
1798.000000	88.845165
1797.000000	88.872410
1796.000000	88.893208
1795.000000	88.898469
1794.000000	88.893634
1793.000000	88.890062
1792.000000	88.890908
1791.000000	88.892467
1790.000000	88.902149
1789.000000	88.931608
1788.000000	88.975249
1787.000000	89.013035
1786.000000	89.034438
1785.000000	89.043526
1784.000000	89.044944
1783.000000	89.040420
1782.000000	89.030476
1781.000000	89.018569
1780.000000	89.011703
1779.000000	89.016827
1778.000000	89.039931
1777.000000	89.080632
1776.000000	89.133594
1775.000000	89.192014
1774.000000	89.240638
1773.000000	89.266806
1772.000000	89.283733
1771.000000	89.305069
1770.000000	89.326462
1769.000000	89.352796
1768.000000	89.394317
1767.000000	89.443821
1766.000000	89.488799
1765.000000	89.533896
1764.000000	89.589787
1763.000000	89.642415
1762.000000	89.666017
1761.000000	89.669849
1760.000000	89.678349
1759.000000	89.692170
1758.000000	89.698445
1757.000000	89.691294
1756.000000	89.691212
1755.000000	89.710796
1754.000000	89.736165
1753.000000	89.761297
1752.000000	89.794563
1751.000000	89.836911
1750.000000	89.872371
1749.000000	89.891452
1748.000000	89.914458
1747.000000	89.963497
1746.000000	90.024221
1745.000000	90.073441
1744.000000	90.109107
1743.000000	90.132511
1742.000000	90.139539
1741.000000	90.137292
1740.000000	90.146764
1739.000000	90.177776
1738.000000	90.212707
1737.000000	90.242396
1736.000000	90.273432
1735.000000	90.291755
1734.000000	90.294521
1733.000000	90.302631
1732.000000	90.301620
1731.000000	90.282345
1730.000000	90.266192
1729.000000	90.254532
1728.000000	90.247785
1727.000000	90.249525
1726.000000	90.256923
1725.000000	90.262794
1724.000000	90.263456
1723.000000	90.264982
1722.000000	90.281906
1721.000000	90.319712
1720.000000	90.369421
1719.000000	90.400931
1718.000000	90.394984
1717.000000	90.381095
1716.000000	90.364194
1715.000000	90.326446
1714.000000	90.303345
1713.000000	90.323444
1712.000000	90.361578
1711.000000	90.394012
1710.000000	90.431861
1709.000000	90.485246
1708.000000	90.540153
1707.000000	90.580160
1706.000000	90.614553
1705.000000	90.663897
1704.000000	90.711630
1703.000000	90.740877
1702.000000	90.760630
1701.000000	90.784999
1700.000000	90.828719
1699.000000	90.867223
1698.000000	90.880461
1697.000000	90.910859
1696.000000	90.981881
1695.000000	91.066332
1694.000000	91.126384
1693.000000	91.151296
1692.000000	91.174336
1691.000000	91.208607
1690.000000	91.236936
1689.000000	91.246746
1688.000000	91.252345
1687.000000	91.275160
1686.000000	91.307880
1685.000000	91.306299
1684.000000	91.277213
1683.000000	91.289107
1682.000000	91.321243
1681.000000	91.325849
1680.000000	91.321940
1679.000000	91.322456
1678.000000	91.318713
1677.000000	91.286927
1676.000000	91.228611
1675.000000	91.178077
1674.000000	91.143496
1673.000000	91.093922
1672.000000	91.033298
1671.000000	90.990213
1670.000000	90.967677
1669.000000	90.950169
1668.000000	90.935525
1667.000000	90.928348
1666.000000	90.918224
1665.000000	90.885309
1664.000000	90.815126
1663.000000	90.721729
1662.000000	90.628354
1661.000000	90.523895
1660.000000	90.403335
1659.000000	90.294340
1658.000000	90.211649
1657.000000	90.137924
1656.000000	90.059409
1655.000000	89.948949
1654.000000	89.687386
1653.000000	89.263115
1652.000000	88.850749
1651.000000	88.434613
1650.000000	87.926207
1649.000000	87.295899
1648.000000	86.380097
1647.000000	85.048831
1646.000000	83.383760
1645.000000	81.535868
1644.000000	79.475231
1643.000000	77.090901
1642.000000	74.316716
1641.000000	71.213469
1640.000000	68.024840
1639.000000	65.041295
1638.000000	62.415601
1637.000000	60.188220
1636.000000	58.552064
1635.000000	57.864769
1634.000000	58.163727
1633.000000	59.140002
1632.000000	60.525546
1631.000000	62.173035
1630.000000	63.993066
1629.000000	65.919217
1628.000000	67.877137
1627.000000	69.755133
1626.000000	71.478907
1625.000000	73.096982
1624.000000	74.697950
1623.000000	76.252780
1622.000000	77.622283
1621.000000	78.739799
1620.000000	79.681502
1619.000000	80.557266
1618.000000	81.421040
1617.000000	82.275490
1616.000000	83.078043
1615.000000	83.745052
1614.000000	84.242116
1613.000000	84.626970
1612.000000	84.960482
1611.000000	85.236628
1610.000000	85.404844
1609.000000	85.447719
1608.000000	85.391748
1607.000000	85.244332
1606.000000	84.968413
1605.000000	84.525728
1604.000000	83.906069
1603.000000	83.087430
1602.000000	82.042469
1601.000000	80.809074
1600.000000	79.502624
1599.000000	78.247258
1598.000000	77.116814
1597.000000	76.148930
1596.000000	75.367358
1595.000000	74.761183
1594.000000	74.268253
1593.000000	73.816770
1592.000000	73.372174
1591.000000	72.918519
1590.000000	72.426562
1589.000000	71.870665
1588.000000	71.252689
1587.000000	70.571795
1586.000000	69.796049
1585.000000	68.898187
1584.000000	67.905041
1583.000000	66.863799
1582.000000	65.782884
1581.000000	64.666098
1580.000000	63.552877
1579.000000	62.432002
1578.000000	61.124734
1577.000000	59.353022
1576.000000	57.138399
1575.000000	54.957409
1574.000000	53.156122
1573.000000	51.651368
1572.000000	50.252377
1571.000000	48.866020
1570.000000	47.541527
1569.000000	46.442828
1568.000000	45.728407
1567.000000	45.435556
1566.000000	45.475488
1565.000000	45.718747
1564.000000	46.115568
1563.000000	46.692479
1562.000000	47.468885
1561.000000	48.429977
1560.000000	49.632480
1559.000000	51.146574
1558.000000	52.733567
1557.000000	54.043311
1556.000000	55.073025
1555.000000	56.015515
1554.000000	56.915148
1553.000000	57.710387
1552.000000	58.385375
1551.000000	59.027788
1550.000000	59.718374
1549.000000	60.470889
1548.000000	61.284391
1547.000000	62.199063
1546.000000	63.241548
1545.000000	64.352871
1544.000000	65.436753
1543.000000	66.464464
1542.000000	67.475506
1541.000000	68.485963
1540.000000	69.469957
1539.000000	70.415270
1538.000000	71.272012
1537.000000	71.998196
1536.000000	72.663322
1535.000000	73.361281
1534.000000	74.107848
1533.000000	74.835443
1532.000000	75.491158
1531.000000	76.087470
1530.000000	76.661211
1529.000000	77.215898
1528.000000	77.732128
1527.000000	78.212424
1526.000000	78.668221
1525.000000	79.097249
1524.000000	79.506772
1523.000000	79.920853
1522.000000	80.331371
1521.000000	80.695567
1520.000000	80.998053
1519.000000	81.261261
1518.000000	81.505234
1517.000000	81.720074
1516.000000	81.904109
1515.000000	82.092556
1514.000000	82.306217
1513.000000	82.545808
1512.000000	82.808328
1511.000000	83.089335
1510.000000	83.378095
1509.000000	83.655006
1508.000000	83.875433
1507.000000	84.004058
1506.000000	84.143859
1505.000000	84.351871
1504.000000	84.542517
1503.000000	84.711965
1502.000000	84.887598
1501.000000	85.063143
1500.000000	85.233367
1499.000000	85.408222
1498.000000	85.584713
1497.000000	85.754799
1496.000000	85.928327
1495.000000	86.107190
1494.000000	86.270484
1493.000000	86.406584
1492.000000	86.525894
1491.000000	86.633238
1490.000000	86.712262
1489.000000	86.760059
1488.000000	86.800490
1487.000000	86.854740
1486.000000	86.917336
1485.000000	86.944528
1484.000000	86.906967
1483.000000	86.797937
1482.000000	86.586217
1481.000000	86.236476
1480.000000	85.749735
1479.000000	85.115230
1478.000000	84.238202
1477.000000	83.014382
1476.000000	81.458142
1475.000000	79.658398
1474.000000	77.618320
1473.000000	75.361173
1472.000000	73.200534
1471.000000	71.523435
1470.000000	70.401051
1469.000000	69.706892
1468.000000	69.369998
1467.000000	69.410684
1466.000000	69.882698
1465.000000	70.772180
1464.000000	71.910360
1463.000000	73.021600
1462.000000	73.900124
1461.000000	74.476675
1460.000000	74.729480
1459.000000	74.593460
1458.000000	73.941099
1457.000000	72.858537
1456.000000	71.815800
1455.000000	71.140860
1454.000000	70.764471
1453.000000	70.553014
1452.000000	70.439444
1451.000000	70.399854
1450.000000	70.434048
1449.000000	70.566498
1448.000000	70.814857
1447.000000	71.152733
1446.000000	71.534687
1445.000000	71.956246
1444.000000	72.455205
1443.000000	73.059581
1442.000000	73.782618
1441.000000	74.639177
1440.000000	75.638323
1439.000000	76.773618
1438.000000	78.032085
1437.000000	79.357408
1436.000000	80.590555
1435.000000	81.568735
1434.000000	82.294771
1433.000000	82.890138
1432.000000	83.428647
1431.000000	83.904443
1430.000000	84.304423
1429.000000	84.652771
1428.000000	84.969929
1427.000000	85.252108
1426.000000	85.492919
1425.000000	85.692966
1424.000000	85.866028
1423.000000	86.029203
1422.000000	86.199879
1421.000000	86.385349
1420.000000	86.567450
1419.000000	86.712869
1418.000000	86.821675
1417.000000	86.937365
1416.000000	87.084645
1415.000000	87.249726
1414.000000	87.406331
1413.000000	87.544801
1412.000000	87.668093
1411.000000	87.773982
1410.000000	87.863953
1409.000000	87.958746
1408.000000	88.074021
1407.000000	88.203265
1406.000000	88.331306
1405.000000	88.450259
1404.000000	88.561268
1403.000000	88.651136
1402.000000	88.685300
1401.000000	88.613094
1400.000000	88.380841
1399.000000	87.995075
1398.000000	87.570780
1397.000000	87.260899
1396.000000	87.153847
1395.000000	87.243769
1394.000000	87.443468
1393.000000	87.658327
1392.000000	87.864786
1391.000000	88.098212
1390.000000	88.396246
1389.000000	88.762237
1388.000000	89.160860
1387.000000	89.539330
1386.000000	89.860013
1385.000000	90.112269
1384.000000	90.302133
1383.000000	90.439002
1382.000000	90.540414
1381.000000	90.629423
1380.000000	90.712763
1379.000000	90.774643
1378.000000	90.786135
1377.000000	90.695997
1376.000000	90.386874
1375.000000	89.642399
1374.000000	88.184450
1373.000000	85.810150
1372.000000	82.536990
1371.000000	78.694956
1370.000000	74.962540
1369.000000	72.232112
1368.000000	71.182476
1367.000000	71.804039
1366.000000	73.431507
1365.000000	75.210763
1364.000000	76.447242
1363.000000	76.744750
1362.000000	76.137221
1361.000000	75.132795
1360.000000	74.470073
1359.000000	74.734324
1358.000000	76.085446
1357.000000	78.209481
1356.000000	80.548562
1355.000000	82.637252
1354.000000	84.286281
1353.000000	85.535843
1352.000000	86.497284
1351.000000	87.260580
1350.000000	87.885241
1349.000000	88.402689
1348.000000	88.825954
1347.000000	89.166159
1346.000000	89.441201
1345.000000	89.666417
1344.000000	89.853481
1343.000000	90.016772
1342.000000	90.174321
1341.000000	90.333572
1340.000000	90.487169
1339.000000	90.632303
1338.000000	90.778385
1337.000000	90.930285
1336.000000	91.074809
1335.000000	91.186411
1334.000000	91.235041
1333.000000	91.174248
1332.000000	90.932332
1331.000000	90.430000
1330.000000	89.613877
1329.000000	88.478670
1328.000000	87.042873
1327.000000	85.307807
1326.000000	83.265372
1325.000000	80.998906
1324.000000	78.812813
1323.000000	77.180739
1322.000000	76.455280
1321.000000	76.607126
1320.000000	77.272508
1319.000000	78.043640
1318.000000	78.716135
1317.000000	79.292689
1316.000000	79.837530
1315.000000	80.390640
1314.000000	80.980674
1313.000000	81.657726
1312.000000	82.477333
1311.000000	83.449797
1310.000000	84.508537
1309.000000	85.527377
1308.000000	86.371263
1307.000000	86.949435
1306.000000	87.237377
1305.000000	87.247420
1304.000000	86.995887
1303.000000	86.491463
1302.000000	85.742278
1301.000000	84.782167
1300.000000	83.707047
1299.000000	82.691247
1298.000000	81.931945
1297.000000	81.539117
1296.000000	81.465468
1295.000000	81.531690
1294.000000	81.514187
1293.000000	81.225326
1292.000000	80.554277
1291.000000	79.469919
1290.000000	77.987998
1289.000000	76.152768
1288.000000	74.086956
1287.000000	72.064952
1286.000000	70.474201
1285.000000	69.637273
1284.000000	69.644694
1283.000000	70.349438
1282.000000	71.521499
1281.000000	72.988382
1280.000000	74.632608
1279.000000	76.290793
1278.000000	77.718718
1277.000000	78.692889
1276.000000	79.129705
1275.000000	79.106474
1274.000000	78.804480
1273.000000	78.455014
1272.000000	78.304234
1271.000000	78.557147
1270.000000	79.294714
1269.000000	80.432252
1268.000000	81.770038
1267.000000	83.099982
1266.000000	84.287725
1265.000000	85.291079
1264.000000	86.128989
1263.000000	86.839407
1262.000000	87.453710
1261.000000	87.990071
1260.000000	88.454704
1259.000000	88.847123
1258.000000	89.170904
1257.000000	89.434214
1256.000000	89.646007
1255.000000	89.817186
1254.000000	89.962781
1253.000000	90.100538
1252.000000	90.243246
1251.000000	90.396777
1250.000000	90.563077
1249.000000	90.739445
1248.000000	90.916904
1247.000000	91.083055
1246.000000	91.227753
1245.000000	91.345194
1244.000000	91.432207
1243.000000	91.490345
1242.000000	91.528422
1241.000000	91.558390
1240.000000	91.588395
1239.000000	91.621357
1238.000000	91.658520
1237.000000	91.698155
1236.000000	91.731678
1235.000000	91.746771
1234.000000	91.733676
1233.000000	91.686825
1232.000000	91.601693
1231.000000	91.475357
1230.000000	91.311096
1229.000000	91.114723
1228.000000	90.887921
1227.000000	90.625882
1226.000000	90.317186
1225.000000	89.943641
1224.000000	89.473071
1223.000000	88.862091
1222.000000	88.064223
1221.000000	87.033991
1220.000000	85.742320
1219.000000	84.188666
1218.000000	82.408892
1217.000000	80.472464
1216.000000	78.475835
1215.000000	76.540642
1214.000000	74.807057
1213.000000	73.417163
1212.000000	72.489954
1211.000000	72.089548
1210.000000	72.180646
1209.000000	72.629514
1208.000000	73.248074
1207.000000	73.841570
1206.000000	74.249777
1205.000000	74.367841
1204.000000	74.151825
1203.000000	73.613346
1202.000000	72.816327
1201.000000	71.882463
1200.000000	70.992584
1199.000000	70.355932
1198.000000	70.143298
1197.000000	70.423805
1196.000000	71.157734
1195.000000	72.227462
1194.000000	73.489347
1193.000000	74.823975
1192.000000	76.152554
1191.000000	77.433733
1190.000000	78.647390
1189.000000	79.786741
1188.000000	80.854718
1187.000000	81.856688
1186.000000	82.794592
1185.000000	83.669243
1184.000000	84.481384
1183.000000	85.224307
1182.000000	85.884552
1181.000000	86.444598
1180.000000	86.891153
1179.000000	87.224004
1178.000000	87.455205
1177.000000	87.606350
1176.000000	87.697801
1175.000000	87.743971
1174.000000	87.754551
1173.000000	87.725996
1172.000000	87.636625
1171.000000	87.441347
1170.000000	87.075933
1169.000000	86.471360
1168.000000	85.568554
1167.000000	84.352895
1166.000000	82.887638
1165.000000	81.326038
1164.000000	79.887774
1163.000000	78.801760
1162.000000	78.228900
1161.000000	78.214739
1160.000000	78.695085
1159.000000	79.527276
1158.000000	80.544451
1157.000000	81.594595
1156.000000	82.561590
1155.000000	83.369832
1154.000000	83.978812
1153.000000	84.378441
1152.000000	84.580945
1151.000000	84.611335
1150.000000	84.495928
1149.000000	84.260027
1148.000000	83.910641
1147.000000	83.427293
1146.000000	82.761695
1145.000000	81.832222
1144.000000	80.541166
1143.000000	78.787875
1142.000000	76.508192
1141.000000	73.732251
1140.000000	70.615657
1139.000000	67.420397
1138.000000	64.411754
1137.000000	61.740400
1136.000000	59.395273
1135.000000	57.264839
1134.000000	55.261910
1133.000000	53.471748
1132.000000	52.209217
1131.000000	51.889909
1130.000000	52.817711
1129.000000	54.987787
1128.000000	58.068423
1127.000000	61.524167
1126.000000	64.782058
1125.000000	67.375782
1124.000000	69.001871
1123.000000	69.507021
1122.000000	68.863748
1121.000000	67.166457
1120.000000	64.577398
1119.000000	61.313931
1118.000000	57.706951
1117.000000	54.291177
1116.000000	51.782882
1115.000000	50.842385
1114.000000	51.730952
1113.000000	54.146371
1112.000000	57.362868
1111.000000	60.511929
1110.000000	62.907053
1109.000000	64.288517
1108.000000	64.883696
1107.000000	65.224277
1106.000000	65.804886
1105.000000	66.814707
1104.000000	68.101182
1103.000000	69.308038
1102.000000	70.018257
1101.000000	69.893620
1100.000000	68.819105
1099.000000	67.042130
1098.000000	65.185577
1097.000000	64.029910
1096.000000	64.146305
1095.000000	65.619593
1094.000000	68.048333
1093.000000	70.812906
1092.000000	73.405901
1091.000000	75.576492
1090.000000	77.292629
1089.000000	78.630382
1088.000000	79.687573
1087.000000	80.548012
1086.000000	81.278956
1085.000000	81.930541
1084.000000	82.530470
1083.000000	83.092263
1082.000000	83.617463
1081.000000	84.101360
1080.000000	84.533393
1079.000000	84.894642
1078.000000	85.166883
1077.000000	85.330423
1076.000000	85.360642
1075.000000	85.227985
1074.000000	84.892125
1073.000000	84.307305
1072.000000	83.394417
1071.000000	82.024176
1070.000000	80.015458
1069.000000	77.119964
1068.000000	73.092727
1067.000000	67.830024
1066.000000	61.583677
1065.000000	55.093086
1064.000000	49.431564
1063.000000	45.521169
1062.000000	43.571760
1061.000000	42.893023
1060.000000	42.308655
1059.000000	40.946424
1058.000000	38.795344
1057.000000	36.716020
1056.000000	35.886914
1055.000000	37.042550
1054.000000	40.107336
1053.000000	44.363218
1052.000000	48.948053
1051.000000	53.252070
1050.000000	56.994076
1049.000000	60.140109
1048.000000	62.781417
1047.000000	65.041803
1046.000000	67.012582
1045.000000	68.746602
1044.000000	70.271111
1043.000000	71.611312
1042.000000	72.792760
1041.000000	73.828193
1040.000000	74.727878
1039.000000	75.498508
1038.000000	76.143620
1037.000000	76.665861
1036.000000	77.069974
1035.000000	77.373142
1034.000000	77.599603
1033.000000	77.774603
1032.000000	77.923937
1031.000000	78.071653
1030.000000	78.236802
1029.000000	78.425573
1028.000000	78.628742
1027.000000	78.825070
1026.000000	78.984042
1025.000000	79.073458
1024.000000	79.066770
1023.000000	78.948919
1022.000000	78.719707
1021.000000	78.385420
1020.000000	77.954491
1019.000000	77.427683
1018.000000	76.785369
1017.000000	75.986299
1016.000000	74.970446
1015.000000	73.689605
1014.000000	72.147887
1013.000000	70.438682
1012.000000	68.750021
1011.000000	67.303497
1010.000000	66.238608
1009.000000	65.516877
1008.000000	64.945538
1007.000000	64.331250
1006.000000	63.683428
1005.000000	63.280905
1004.000000	63.516317
1003.000000	64.614669
1002.000000	66.443284
1001.000000	68.593758
1000.000000	70.615114
999.000000	72.197218
998.000000	73.211337
997.000000	73.663029
996.000000	73.649153
995.000000	73.341791
994.000000	72.975076
993.000000	72.801218
992.000000	73.020644
991.000000	73.703844
990.000000	74.759670
989.000000	75.992519
988.000000	77.214045
987.000000	78.312343
986.000000	79.254217
985.000000	80.050757
984.000000	80.727753
983.000000	81.310662
982.000000	81.818464
981.000000	82.260861
980.000000	82.642493
979.000000	82.972289
978.000000	83.260578
977.000000	83.516431
976.000000	83.748048
975.000000	83.965004
974.000000	84.178069
973.000000	84.393537
972.000000	84.612340
971.000000	84.832599
970.000000	85.050235
969.000000	85.258248
968.000000	85.447434
967.000000	85.610895
966.000000	85.747160
965.000000	85.859147
964.000000	85.953500
963.000000	86.040686
962.000000	86.133499
961.000000	86.242564
960.000000	86.372895
959.000000	86.524202
958.000000	86.691475
957.000000	86.864535
956.000000	87.029796
955.000000	87.175284
954.000000	87.294650
953.000000	87.386676
952.000000	87.454255
951.000000	87.506123
950.000000	87.556741
949.000000	87.621240
948.000000	87.709530
947.000000	87.824891
946.000000	87.964878
945.000000	88.120905
944.000000	88.278945
943.000000	88.424578
942.000000	88.548302
941.000000	88.645819
940.000000	88.716005
939.000000	88.762742
938.000000	88.796756
937.000000	88.831429
936.000000	88.876880
935.000000	88.939142
934.000000	89.022042
933.000000	89.125322
932.000000	89.241964
931.000000	89.361248
930.000000	89.474344
929.000000	89.574912
928.000000	89.657108
927.000000	89.717957
926.000000	89.761360
925.000000	89.795107
924.000000	89.824933
923.000000	89.854851
922.000000	89.891119
921.000000	89.940450
920.000000	90.004536
919.000000	90.080489
918.000000	90.165553
917.000000	90.256625
916.000000	90.346413
915.000000	90.426135
914.000000	90.491871
913.000000	90.543552
912.000000	90.577301
911.000000	90.586246
910.000000	90.565511
909.000000	90.507672
908.000000	90.393372
907.000000	90.187995
906.000000	89.853115
905.000000	89.352929
904.000000	88.663649
903.000000	87.808271
902.000000	86.901025
901.000000	86.145489
900.000000	85.754989
899.000000	85.836531
898.000000	86.326889
897.000000	87.042695
896.000000	87.788243
895.000000	88.441140
894.000000	88.971467
893.000000	89.401246
892.000000	89.762423
891.000000	90.076326
890.000000	90.353631
889.000000	90.594181
888.000000	90.787883
887.000000	90.912508
886.000000	90.934057
885.000000	90.810574
884.000000	90.509261
883.000000	90.047288
882.000000	89.510143
881.000000	89.010383
880.000000	88.607149
879.000000	88.269521
878.000000	87.933655
877.000000	87.599455
876.000000	87.368372
875.000000	87.372439
874.000000	87.666475
873.000000	88.179003
872.000000	88.763215
871.000000	89.291184
870.000000	89.710442
869.000000	90.035829
868.000000	90.305768
867.000000	90.552346
866.000000	90.792202
865.000000	91.026444
864.000000	91.240346
863.000000	91.413063
862.000000	91.531469
861.000000	91.594760
860.000000	91.610738
859.000000	91.593491
858.000000	91.565770
857.000000	91.553991
856.000000	91.576876
855.000000	91.640955
854.000000	91.743633
853.000000	91.873848
852.000000	92.009994
851.000000	92.125440
850.000000	92.200761
849.000000	92.229022
848.000000	92.212548
847.000000	92.162292
846.000000	92.100148
845.000000	92.053821
844.000000	92.045105
843.000000	92.084271
842.000000	92.171709
841.000000	92.297447
840.000000	92.438810
839.000000	92.566769
838.000000	92.658395
837.000000	92.701785
836.000000	92.692864
835.000000	92.637779
834.000000	92.558484
833.000000	92.486562
832.000000	92.447775
831.000000	92.456179
830.000000	92.518973
829.000000	92.635572
828.000000	92.789528
827.000000	92.950471
826.000000	93.089378
825.000000	93.187556
824.000000	93.233708
823.000000	93.224915
822.000000	93.174919
821.000000	93.111047
820.000000	93.059114
819.000000	93.035714
818.000000	93.051828
817.000000	93.111703
816.000000	93.204501
815.000000	93.305308
814.000000	93.387687
813.000000	93.429249
812.000000	93.407941
811.000000	93.304802
810.000000	93.115894
809.000000	92.853756
808.000000	92.531695
807.000000	92.155937
806.000000	91.727803
805.000000	91.241511
804.000000	90.675361
803.000000	89.986911
802.000000	89.125579
801.000000	88.039412
800.000000	86.678612
799.000000	85.012298
798.000000	83.044279
797.000000	80.821457
796.000000	78.423137
795.000000	75.953814
794.000000	73.538014
793.000000	71.309823
792.000000	69.398128
791.000000	67.913795
790.000000	66.941343
789.000000	66.519477
788.000000	66.630832
787.000000	67.194511
786.000000	68.084709
785.000000	69.162699
784.000000	70.294005
783.000000	71.362640
782.000000	72.279699
781.000000	72.991876
780.000000	73.476570
779.000000	73.738008
778.000000	73.806979
777.000000	73.731825
776.000000	73.553439
775.000000	73.287228
774.000000	72.940110
773.000000	72.544125
772.000000	72.179239
771.000000	71.963435
770.000000	72.019617
769.000000	72.428090
768.000000	73.192685
767.000000	74.243106
766.000000	75.474718
765.000000	76.793752
764.000000	78.130120
763.000000	79.433462
762.000000	80.669098
761.000000	81.814227
760.000000	82.847260
759.000000	83.747117
758.000000	84.507510
757.000000	85.142694
756.000000	85.676279
755.000000	86.132590
754.000000	86.543865
753.000000	86.948246
752.000000	87.371429
751.000000	87.816602
750.000000	88.273661
749.000000	88.727254
748.000000	89.150804
747.000000	89.509135
746.000000	89.779645
745.000000	89.963735
744.000000	90.075200
743.000000	90.130813
742.000000	90.156928
741.000000	90.188930
740.000000	90.252301
739.000000	90.352155
738.000000	90.482808
737.000000	90.632106
736.000000	90.771052
735.000000	90.857207
734.000000	90.861369
733.000000	90.781798
732.000000	90.631156
731.000000	90.428201
730.000000	90.206354
729.000000	90.006305
728.000000	89.850198
727.000000	89.731100
726.000000	89.627007
725.000000	89.514074
724.000000	89.358635
723.000000	89.107963
722.000000	88.695206
721.000000	88.050423
720.000000	87.117203
719.000000	85.889639
718.000000	84.446748
717.000000	82.943345
716.000000	81.561571
715.000000	80.464442
714.000000	79.774744
713.000000	79.553608
712.000000	79.774485
711.000000	80.331361
710.000000	81.097430
709.000000	81.973164
708.000000	82.884571
707.000000	83.774561
706.000000	84.615398
705.000000	85.413367
704.000000	86.178690
703.000000	86.901885
702.000000	87.573637
701.000000	88.201132
700.000000	88.782529
699.000000	89.296553
698.000000	89.731383
697.000000	90.104282
696.000000	90.434669
695.000000	90.718391
694.000000	90.958005
693.000000	91.184277
692.000000	91.418767
691.000000	91.648849
690.000000	91.857625
689.000000	92.053606
688.000000	92.242326
687.000000	92.398479
686.000000	92.508314
685.000000	92.598180
684.000000	92.685795
683.000000	92.749693
682.000000	92.781679
681.000000	92.820016
680.000000	92.888551
679.000000	92.958017
678.000000	93.007305
677.000000	93.048761
676.000000	93.087480
675.000000	93.112318
674.000000	93.136365
673.000000	93.237319
672.000000	93.538097
671.000000	94.124657
670.000000	94.951017
669.000000	95.692949
668.000000	95.738155
667.000000	95.004378
666.000000	94.163955
665.000000	93.579484
664.000000	93.260774
663.000000	93.143059
662.000000	93.146692
661.000000	93.198140
660.000000	93.249824
659.000000	93.296236
658.000000	93.346583
657.000000	93.378982
656.000000	93.368008
655.000000	93.336773
654.000000	93.306058
653.000000	93.252550
652.000000	93.170383
651.000000	93.104171
650.000000	93.081876
649.000000	93.069931
648.000000	93.038978
647.000000	93.011511
646.000000	93.003994
645.000000	92.986509
644.000000	92.928878
643.000000	92.836448
642.000000	92.719376
641.000000	92.564344
640.000000	92.372028
639.000000	92.184237
638.000000	92.037693
637.000000	91.927820
636.000000	91.845596
635.000000	91.802313
634.000000	91.792748
633.000000	91.774952
632.000000	91.710802
631.000000	91.596268
630.000000	91.433045
629.000000	91.207812
628.000000	90.926267
627.000000	90.632605
626.000000	90.364856
625.000000	90.128464
624.000000	89.925429
623.000000	89.772785
622.000000	89.670385
621.000000	89.580730
620.000000	89.460970
619.000000	89.280944
618.000000	89.002736
617.000000	88.585930
616.000000	88.041249
615.000000	87.440002
614.000000	86.844175
613.000000	86.262080
612.000000	85.686091
611.000000	85.126238
610.000000	84.575723
609.000000	83.981016
608.000000	83.284039
607.000000	82.462707
606.000000	81.501720
605.000000	80.374386
604.000000	79.082790
603.000000	77.680799
602.000000	76.218004
601.000000	74.700372
600.000000	73.136012
599.000000	71.573275
598.000000	70.044488
597.000000	68.520468
596.000000	66.973850
595.000000	65.434722
594.000000	63.936862
593.000000	62.462883
592.000000	61.009452
591.000000	59.643545
590.000000	58.428218
589.000000	57.348721
588.000000	56.366604
587.000000	55.476017
586.000000	54.640334
585.000000	53.751098
584.000000	52.727022
583.000000	51.599925
582.000000	50.450778
581.000000	49.343903
580.000000	48.381429
579.000000	47.742221
578.000000	47.560080
577.000000	47.833203
576.000000	48.489205
575.000000	49.436105
574.000000	50.517453
573.000000	51.520376
572.000000	52.322645
571.000000	52.987902
570.000000	53.681527
569.000000	54.532946
568.000000	55.593694
567.000000	56.840434
566.000000	58.158343
565.000000	59.392130
564.000000	60.462730
563.000000	61.395961
562.000000	62.229871
561.000000	62.959843
560.000000	63.593496
559.000000	64.181854
558.000000	64.758272
557.000000	65.305669
556.000000	65.814458
555.000000	66.323613
554.000000	66.865823
553.000000	67.427273
552.000000	67.992657
551.000000	68.577183
550.000000	69.182636
549.000000	69.770617
548.000000	70.313605
547.000000	70.826501
546.000000	71.320979
545.000000	71.774927
544.000000	72.177860
543.000000	72.560241
542.000000	72.950290
541.000000	73.340209
540.000000	73.722923
539.000000	74.118817
538.000000	74.536911
537.000000	74.947999
536.000000	75.320923
535.000000	75.655409
534.000000	75.952051
533.000000	76.193919
532.000000	76.371058
531.000000	76.499884
530.000000	76.597043
529.000000	76.653658
528.000000	76.648709
527.000000	76.575288
526.000000	76.423872
525.000000	76.169115
524.000000	75.803642
523.000000	75.356707
522.000000	74.874742
521.000000	74.396502
520.000000	73.944707
519.000000	73.493245
518.000000	72.906315
517.000000	71.970030
516.000000	70.538692
515.000000	68.655839
514.000000	66.532177
513.000000	64.460834
512.000000	62.757405
511.000000	61.699599
510.000000	61.419085
509.000000	61.862212
508.000000	62.889597
507.000000	64.339793
506.000000	66.009512
505.000000	67.690881
504.000000	69.270306
503.000000	70.742087
502.000000	72.106557
501.000000	73.331413
500.000000	74.411951
499.000000	75.399794
498.000000	76.335390
497.000000	77.208867
496.000000	77.996074
495.000000	78.690515
494.000000	79.292046
493.000000	79.787153
492.000000	80.177000
491.000000	80.504308
490.000000	80.817075
489.000000	81.139613
488.000000	81.483065
487.000000	81.865999
486.000000	82.294900
485.000000	82.737953
484.000000	83.146592
483.000000	83.494057
482.000000	83.771441
481.000000	83.962824
480.000000	84.060881
479.000000	84.094433
478.000000	84.098747
477.000000	84.083556
476.000000	84.044855
475.000000	83.972111
474.000000	83.814375
473.000000	83.467515
472.000000	82.854918
471.000000	82.028654
470.000000	81.123050
469.000000	80.270447
468.000000	79.599560
467.000000	79.198800
466.000000	78.991471
465.000000	78.733462
464.000000	78.196617
463.000000	77.354830
462.000000	76.428781
461.000000	75.757205
460.000000	75.654261
459.000000	76.305516
458.000000	77.625767
457.000000	79.213856
456.000000	80.647658
455.000000	81.792794
454.000000	82.702817
453.000000	83.420113
452.000000	83.958900
451.000000	84.366407
450.000000	84.661820
449.000000	84.777184
448.000000	84.609733
447.000000	84.109988
446.000000	83.311872
445.000000	82.324529
444.000000	81.347659
443.000000	80.648929
442.000000	80.419405
441.000000	80.645539
440.000000	81.195873
439.000000	81.940097
438.000000	82.746733
437.000000	83.470729
436.000000	84.013408
435.000000	84.370156
434.000000	84.573309
433.000000	84.630494
432.000000	84.552103
431.000000	84.396679
430.000000	84.243144
429.000000	84.127412
428.000000	84.059734
427.000000	84.064650
426.000000	84.137423
425.000000	84.194389
424.000000	84.143085
423.000000	83.992233
422.000000	83.799783
421.000000	83.548772
420.000000	83.180007
419.000000	82.775304
418.000000	82.545564
417.000000	82.523523
416.000000	82.603484
415.000000	82.754610
414.000000	82.976638
413.000000	83.211174
412.000000	83.392710
411.000000	83.507284
410.000000	83.556260
409.000000	83.496507
408.000000	83.324029
407.000000	83.151257
406.000000	83.095800
405.000000	83.146412
404.000000	83.261151
403.000000	83.485354
402.000000	83.858695
401.000000	84.286566
400.000000	84.617789
