PE IR       SUBTECH     SPECTRUM    ASCII       PEDS        4.00        
   -1
23ms062-cis.asc
24/10/22
16:15:59.00
24/10/22
16:15:59.00
Administrator
Sample 1336 By Administrator Date Tuesday, October 22 2024
400.000000
#HDR
-1
-1
#GR
cm-1
%T
1.0
0.0
4000.000000
-1.000000
3601
8
90.378887
5.316513
#DATA
4000.000000	66.070231
3999.000000	66.053448
3998.000000	66.040464
3997.000000	66.029793
3996.000000	66.020337
3995.000000	66.012615
3994.000000	66.007976
3993.000000	66.006567
3992.000000	66.006580
3991.000000	66.006222
3990.000000	66.005967
3989.000000	66.008239
3988.000000	66.015348
3987.000000	66.028280
3986.000000	66.047229
3985.000000	66.072056
3984.000000	66.101918
3983.000000	66.135430
3982.000000	66.171749
3981.000000	66.211336
3980.000000	66.255364
3979.000000	66.304253
3978.000000	66.356961
3977.000000	66.411500
3976.000000	66.466191
3975.000000	66.519859
3974.000000	66.571796
3973.000000	66.621901
3972.000000	66.670196
3971.000000	66.716569
3970.000000	66.761098
3969.000000	66.805393
3968.000000	66.851991
3967.000000	66.902870
3966.000000	66.958235
3965.000000	67.016520
3964.000000	67.075551
3963.000000	67.133772
3962.000000	67.191866
3961.000000	67.252259
3960.000000	67.316517
3959.000000	67.383812
3958.000000	67.451855
3957.000000	67.520241
3956.000000	67.590045
3955.000000	67.662231
3954.000000	67.736255
3953.000000	67.808915
3952.000000	67.875276
3951.000000	67.930688
3950.000000	67.974956
3949.000000	68.013623
3948.000000	68.055316
3947.000000	68.107155
3946.000000	68.168851
3945.000000	68.230210
3944.000000	68.278522
3943.000000	68.311117
3942.000000	68.339351
3941.000000	68.376444
3940.000000	68.426321
3939.000000	68.485845
3938.000000	68.550014
3937.000000	68.616494
3936.000000	68.683315
3935.000000	68.745205
3934.000000	68.795873
3933.000000	68.832751
3932.000000	68.861505
3931.000000	68.889791
3930.000000	68.921373
3929.000000	68.958983
3928.000000	69.003657
3927.000000	69.049429
3926.000000	69.082276
3925.000000	69.096217
3924.000000	69.103436
3923.000000	69.117829
3922.000000	69.138909
3921.000000	69.158555
3920.000000	69.173898
3919.000000	69.187563
3918.000000	69.199048
3917.000000	69.207815
3916.000000	69.219834
3915.000000	69.241091
3914.000000	69.270747
3913.000000	69.305014
3912.000000	69.342553
3911.000000	69.386031
3910.000000	69.433990
3909.000000	69.485982
3908.000000	69.542224
3907.000000	69.596874
3906.000000	69.633329
3905.000000	69.637081
3904.000000	69.620729
3903.000000	69.613810
3902.000000	69.630461
3901.000000	69.662442
3900.000000	69.698099
3899.000000	69.738012
3898.000000	69.788114
3897.000000	69.847252
3896.000000	69.912553
3895.000000	69.985776
3894.000000	70.063506
3893.000000	70.134982
3892.000000	70.187635
3891.000000	70.224427
3890.000000	70.257975
3889.000000	70.304337
3888.000000	70.371349
3887.000000	70.444473
3886.000000	70.506211
3885.000000	70.560024
3884.000000	70.610690
3883.000000	70.652307
3882.000000	70.674525
3881.000000	70.675815
3880.000000	70.674042
3879.000000	70.686629
3878.000000	70.716850
3877.000000	70.762427
3876.000000	70.807909
3875.000000	70.830101
3874.000000	70.829554
3873.000000	70.834857
3872.000000	70.862180
3871.000000	70.892442
3870.000000	70.912843
3869.000000	70.941708
3868.000000	70.988056
3867.000000	71.040108
3866.000000	71.080164
3865.000000	71.104779
3864.000000	71.127662
3863.000000	71.153821
3862.000000	71.180613
3861.000000	71.219171
3860.000000	71.272147
3859.000000	71.332811
3858.000000	71.405032
3857.000000	71.509164
3856.000000	71.635280
3855.000000	71.708891
3854.000000	71.712808
3853.000000	71.733232
3852.000000	71.777312
3851.000000	71.780983
3850.000000	71.743328
3849.000000	71.710885
3848.000000	71.714387
3847.000000	71.751423
3846.000000	71.803615
3845.000000	71.858068
3844.000000	71.905457
3843.000000	71.939687
3842.000000	71.967837
3841.000000	72.003483
3840.000000	72.044225
3839.000000	72.090085
3838.000000	72.147453
3837.000000	72.206973
3836.000000	72.246122
3835.000000	72.260780
3834.000000	72.271624
3833.000000	72.294168
3832.000000	72.326247
3831.000000	72.363500
3830.000000	72.406543
3829.000000	72.456408
3828.000000	72.505214
3827.000000	72.541270
3826.000000	72.566332
3825.000000	72.602938
3824.000000	72.667154
3823.000000	72.741161
3822.000000	72.789504
3821.000000	72.811659
3820.000000	72.831367
3819.000000	72.864332
3818.000000	72.918725
3817.000000	72.981439
3816.000000	73.040431
3815.000000	73.095636
3814.000000	73.136043
3813.000000	73.148375
3812.000000	73.142144
3811.000000	73.146117
3810.000000	73.184605
3809.000000	73.252187
3808.000000	73.320109
3807.000000	73.371986
3806.000000	73.412336
3805.000000	73.453785
3804.000000	73.507429
3803.000000	73.567679
3802.000000	73.617754
3801.000000	73.664972
3800.000000	73.705215
3799.000000	73.718759
3798.000000	73.710953
3797.000000	73.701633
3796.000000	73.710434
3795.000000	73.741816
3794.000000	73.785719
3793.000000	73.828992
3792.000000	73.869660
3791.000000	73.913342
3790.000000	73.960959
3789.000000	74.007225
3788.000000	74.048828
3787.000000	74.086236
3786.000000	74.119163
3785.000000	74.145213
3784.000000	74.167365
3783.000000	74.195039
3782.000000	74.230839
3781.000000	74.264146
3780.000000	74.285302
3779.000000	74.303438
3778.000000	74.332516
3777.000000	74.373324
3776.000000	74.414153
3775.000000	74.449291
3774.000000	74.486592
3773.000000	74.534300
3772.000000	74.585012
3771.000000	74.627056
3770.000000	74.665932
3769.000000	74.712626
3768.000000	74.763462
3767.000000	74.811459
3766.000000	74.856161
3765.000000	74.900236
3764.000000	74.949772
3763.000000	75.010990
3762.000000	75.079421
3761.000000	75.140791
3760.000000	75.190095
3759.000000	75.238091
3758.000000	75.285286
3757.000000	75.328078
3756.000000	75.376178
3755.000000	75.443034
3754.000000	75.524569
3753.000000	75.597310
3752.000000	75.657718
3751.000000	75.732909
3750.000000	75.822167
3749.000000	75.887692
3748.000000	75.926141
3747.000000	75.979814
3746.000000	76.049825
3745.000000	76.115996
3744.000000	76.203749
3743.000000	76.293751
3742.000000	76.325759
3741.000000	76.310073
3740.000000	76.308067
3739.000000	76.366238
3738.000000	76.464944
3737.000000	76.541505
3736.000000	76.567155
3735.000000	76.568790
3734.000000	76.587720
3733.000000	76.639964
3732.000000	76.715912
3731.000000	76.789062
3730.000000	76.839229
3729.000000	76.872665
3728.000000	76.901229
3727.000000	76.925045
3726.000000	76.946255
3725.000000	76.968133
3724.000000	76.988270
3723.000000	77.003838
3722.000000	77.020325
3721.000000	77.045627
3720.000000	77.081995
3719.000000	77.129935
3718.000000	77.182445
3717.000000	77.236908
3716.000000	77.297614
3715.000000	77.364369
3714.000000	77.429875
3713.000000	77.487383
3712.000000	77.543371
3711.000000	77.606690
3710.000000	77.675840
3709.000000	77.748649
3708.000000	77.821358
3707.000000	77.887969
3706.000000	77.950353
3705.000000	78.012862
3704.000000	78.072993
3703.000000	78.121204
3702.000000	78.158734
3701.000000	78.197453
3700.000000	78.241745
3699.000000	78.288651
3698.000000	78.333638
3697.000000	78.376276
3696.000000	78.421638
3695.000000	78.470455
3694.000000	78.515135
3693.000000	78.551253
3692.000000	78.577346
3691.000000	78.593606
3690.000000	78.613951
3689.000000	78.669000
3688.000000	78.758257
3687.000000	78.832124
3686.000000	78.857894
3685.000000	78.849341
3684.000000	78.837870
3683.000000	78.847259
3682.000000	78.880720
3681.000000	78.917724
3680.000000	78.942108
3679.000000	78.964556
3678.000000	79.006803
3677.000000	79.053075
3676.000000	79.089924
3675.000000	79.140584
3674.000000	79.192894
3673.000000	79.225774
3672.000000	79.248997
3671.000000	79.266831
3670.000000	79.288822
3669.000000	79.325304
3668.000000	79.357310
3667.000000	79.369846
3666.000000	79.371967
3665.000000	79.377781
3664.000000	79.393913
3663.000000	79.419904
3662.000000	79.445355
3661.000000	79.459379
3660.000000	79.466548
3659.000000	79.478256
3658.000000	79.497970
3657.000000	79.521629
3656.000000	79.553911
3655.000000	79.592795
3654.000000	79.624675
3653.000000	79.645113
3652.000000	79.652076
3651.000000	79.637659
3650.000000	79.615958
3649.000000	79.617532
3648.000000	79.646228
3647.000000	79.680672
3646.000000	79.702715
3645.000000	79.711447
3644.000000	79.716815
3643.000000	79.726404
3642.000000	79.737467
3641.000000	79.747552
3640.000000	79.757315
3639.000000	79.765464
3638.000000	79.770358
3637.000000	79.772852
3636.000000	79.775470
3635.000000	79.772210
3634.000000	79.755187
3633.000000	79.727451
3632.000000	79.699067
3631.000000	79.661672
3630.000000	79.594509
3629.000000	79.530158
3628.000000	79.511177
3627.000000	79.499225
3626.000000	79.443234
3625.000000	79.349861
3624.000000	79.250740
3623.000000	79.162669
3622.000000	79.076191
3621.000000	78.967584
3620.000000	78.827027
3619.000000	78.671135
3618.000000	78.516406
3617.000000	78.363073
3616.000000	78.207195
3615.000000	78.041801
3614.000000	77.862119
3613.000000	77.677381
3612.000000	77.501972
3611.000000	77.337645
3610.000000	77.175423
3609.000000	77.009184
3608.000000	76.839770
3607.000000	76.667209
3606.000000	76.487683
3605.000000	76.301261
3604.000000	76.112399
3603.000000	75.922276
3602.000000	75.731038
3601.000000	75.544729
3600.000000	75.371952
3599.000000	75.210717
3598.000000	75.048985
3597.000000	74.878771
3596.000000	74.700612
3595.000000	74.515137
3594.000000	74.325656
3593.000000	74.137918
3592.000000	73.956284
3591.000000	73.784259
3590.000000	73.622548
3589.000000	73.470463
3588.000000	73.335717
3587.000000	73.230604
3586.000000	73.151116
3585.000000	73.078312
3584.000000	72.996003
3583.000000	72.896832
3582.000000	72.780409
3581.000000	72.651017
3580.000000	72.513889
3579.000000	72.370427
3578.000000	72.220692
3577.000000	72.067940
3576.000000	71.916557
3575.000000	71.768055
3574.000000	71.620457
3573.000000	71.471817
3572.000000	71.318512
3571.000000	71.155593
3570.000000	70.977075
3569.000000	70.777477
3568.000000	70.559914
3567.000000	70.341419
3566.000000	70.136099
3565.000000	69.940870
3564.000000	69.745340
3563.000000	69.541853
3562.000000	69.326609
3561.000000	69.099787
3560.000000	68.864522
3559.000000	68.623957
3558.000000	68.379611
3557.000000	68.132602
3556.000000	67.882303
3555.000000	67.624428
3554.000000	67.353744
3553.000000	67.071792
3552.000000	66.786658
3551.000000	66.501716
3550.000000	66.210561
3549.000000	65.904858
3548.000000	65.581657
3547.000000	65.243994
3546.000000	64.897629
3545.000000	64.549175
3544.000000	64.202645
3543.000000	63.855607
3542.000000	63.500896
3541.000000	63.133075
3540.000000	62.749627
3539.000000	62.347029
3538.000000	61.921334
3537.000000	61.474977
3536.000000	61.017069
3535.000000	60.552950
3534.000000	60.079806
3533.000000	59.591942
3532.000000	59.086407
3531.000000	58.560397
3530.000000	58.009391
3529.000000	57.432062
3528.000000	56.832666
3527.000000	56.215172
3526.000000	55.578394
3525.000000	54.920619
3524.000000	54.244886
3523.000000	53.555887
3522.000000	52.854331
3521.000000	52.137540
3520.000000	51.402192
3519.000000	50.644699
3518.000000	49.862968
3517.000000	49.059759
3516.000000	48.241108
3515.000000	47.410561
3514.000000	46.568861
3513.000000	45.716414
3512.000000	44.851647
3511.000000	43.968925
3510.000000	43.064871
3509.000000	42.146804
3508.000000	41.227574
3507.000000	40.310783
3506.000000	39.387200
3505.000000	38.447323
3504.000000	37.492833
3503.000000	36.534217
3502.000000	35.581904
3501.000000	34.641982
3500.000000	33.714960
3499.000000	32.795521
3498.000000	31.877992
3497.000000	30.963746
3496.000000	30.059902
3495.000000	29.171123
3494.000000	28.298231
3493.000000	27.444215
3492.000000	26.613399
3491.000000	25.804514
3490.000000	25.012311
3489.000000	24.237043
3488.000000	23.486885
3487.000000	22.769713
3486.000000	22.087657
3485.000000	21.439392
3484.000000	20.820066
3483.000000	20.220104
3482.000000	19.632561
3481.000000	19.062424
3480.000000	18.521916
3479.000000	18.015079
3478.000000	17.533936
3477.000000	17.069070
3476.000000	16.616088
3475.000000	16.172679
3474.000000	15.736784
3473.000000	15.309914
3472.000000	14.896775
3471.000000	14.501450
3470.000000	14.130696
3469.000000	13.798585
3468.000000	13.520236
3467.000000	13.300575
3466.000000	13.134296
3465.000000	13.016164
3464.000000	12.944010
3463.000000	12.914709
3462.000000	12.926760
3461.000000	12.985401
3460.000000	13.098021
3459.000000	13.263198
3458.000000	13.470092
3457.000000	13.707904
3456.000000	13.968151
3455.000000	14.240019
3454.000000	14.511247
3453.000000	14.772619
3452.000000	15.016162
3451.000000	15.229803
3450.000000	15.399359
3449.000000	15.516105
3448.000000	15.577115
3447.000000	15.579928
3446.000000	15.524275
3445.000000	15.415749
3444.000000	15.262586
3443.000000	15.070387
3442.000000	14.843713
3441.000000	14.592363
3440.000000	14.329287
3439.000000	14.064748
3438.000000	13.809290
3437.000000	13.579111
3436.000000	13.391001
3435.000000	13.252129
3434.000000	13.159571
3433.000000	13.108439
3432.000000	13.097513
3431.000000	13.128297
3430.000000	13.205996
3429.000000	13.340352
3428.000000	13.537884
3427.000000	13.797278
3426.000000	14.114440
3425.000000	14.490367
3424.000000	14.929953
3423.000000	15.433428
3422.000000	15.998168
3421.000000	16.623655
3420.000000	17.308679
3419.000000	18.046810
3418.000000	18.827535
3417.000000	19.642921
3416.000000	20.487128
3415.000000	21.352638
3414.000000	22.233527
3413.000000	23.127922
3412.000000	24.033154
3411.000000	24.940666
3410.000000	25.840509
3409.000000	26.728692
3408.000000	27.604219
3407.000000	28.461231
3406.000000	29.290317
3405.000000	30.086087
3404.000000	30.848832
3403.000000	31.581955
3402.000000	32.292574
3401.000000	32.991680
3400.000000	33.686881
3399.000000	34.374187
3398.000000	35.042271
3397.000000	35.683393
3396.000000	36.295979
3395.000000	36.881024
3394.000000	37.442045
3393.000000	37.988194
3392.000000	38.530388
3391.000000	39.072624
3390.000000	39.611527
3389.000000	40.142615
3388.000000	40.663597
3387.000000	41.173119
3386.000000	41.671056
3385.000000	42.160385
3384.000000	42.644554
3383.000000	43.124062
3382.000000	43.598682
3381.000000	44.070874
3380.000000	44.543570
3379.000000	45.016200
3378.000000	45.486936
3377.000000	45.956861
3376.000000	46.427387
3375.000000	46.895477
3374.000000	47.355781
3373.000000	47.806818
3372.000000	48.251636
3371.000000	48.693826
3370.000000	49.136529
3369.000000	49.583273
3368.000000	50.035493
3367.000000	50.490049
3366.000000	50.942058
3365.000000	51.388975
3364.000000	51.829711
3363.000000	52.262536
3362.000000	52.687513
3361.000000	53.108685
3360.000000	53.530045
3359.000000	53.950536
3358.000000	54.366276
3357.000000	54.775947
3356.000000	55.180077
3355.000000	55.577267
3354.000000	55.965350
3353.000000	56.345497
3352.000000	56.721718
3351.000000	57.096408
3350.000000	57.469081
3349.000000	57.838289
3348.000000	58.201747
3347.000000	58.556073
3346.000000	58.899288
3345.000000	59.233038
3344.000000	59.559889
3343.000000	59.879045
3342.000000	60.187990
3341.000000	60.486623
3340.000000	60.777129
3339.000000	61.060791
3338.000000	61.337023
3337.000000	61.605068
3336.000000	61.863327
3335.000000	62.108145
3334.000000	62.336040
3333.000000	62.545688
3332.000000	62.736480
3331.000000	62.905405
3330.000000	63.048056
3329.000000	63.162483
3328.000000	63.248493
3327.000000	63.305179
3326.000000	63.330147
3325.000000	63.320164
3324.000000	63.271545
3323.000000	63.178371
3322.000000	63.035131
3321.000000	62.838821
3320.000000	62.586022
3319.000000	62.271587
3318.000000	61.888697
3317.000000	61.432250
3316.000000	60.897322
3315.000000	60.274428
3314.000000	59.552866
3313.000000	58.722625
3312.000000	57.774808
3311.000000	56.701218
3310.000000	55.493919
3309.000000	54.152132
3308.000000	52.678380
3307.000000	51.074144
3306.000000	49.341425
3305.000000	47.481489
3304.000000	45.497093
3303.000000	43.388830
3302.000000	41.159971
3301.000000	38.824481
3300.000000	36.404382
3299.000000	33.928843
3298.000000	31.437170
3297.000000	28.981289
3296.000000	26.617014
3295.000000	24.392644
3294.000000	22.345310
3293.000000	20.504548
3292.000000	18.887738
3291.000000	17.488419
3290.000000	16.283528
3289.000000	15.240911
3288.000000	14.325008
3287.000000	13.501435
3286.000000	12.740772
3285.000000	12.028497
3284.000000	11.358762
3283.000000	10.728658
3282.000000	10.142827
3281.000000	9.614662
3280.000000	9.161515
3279.000000	8.795837
3278.000000	8.527535
3277.000000	8.369837
3276.000000	8.331535
3275.000000	8.410557
3274.000000	8.596153
3273.000000	8.873159
3272.000000	9.220622
3271.000000	9.606127
3270.000000	9.991082
3269.000000	10.338627
3268.000000	10.614213
3267.000000	10.787058
3266.000000	10.839672
3265.000000	10.773550
3264.000000	10.603435
3263.000000	10.350575
3262.000000	10.041876
3261.000000	9.711839
3260.000000	9.393923
3259.000000	9.112014
3258.000000	8.884328
3257.000000	8.728190
3256.000000	8.654434
3255.000000	8.661336
3254.000000	8.739093
3253.000000	8.875752
3252.000000	9.057660
3251.000000	9.266949
3250.000000	9.488120
3249.000000	9.714850
3248.000000	9.944161
3247.000000	10.169753
3246.000000	10.382803
3245.000000	10.575581
3244.000000	10.740053
3243.000000	10.867855
3242.000000	10.956081
3241.000000	11.010407
3240.000000	11.038360
3239.000000	11.042460
3238.000000	11.024785
3237.000000	10.991185
3236.000000	10.948157
3235.000000	10.900204
3234.000000	10.852714
3233.000000	10.812606
3232.000000	10.779553
3231.000000	10.742025
3230.000000	10.687222
3229.000000	10.609796
3228.000000	10.508405
3227.000000	10.379566
3226.000000	10.221024
3225.000000	10.036483
3224.000000	9.830412
3223.000000	9.603547
3222.000000	9.357715
3221.000000	9.100892
3220.000000	8.842643
3219.000000	8.587816
3218.000000	8.339523
3217.000000	8.102698
3216.000000	7.879728
3215.000000	7.667167
3214.000000	7.461523
3213.000000	7.263668
3212.000000	7.073686
3211.000000	6.886895
3210.000000	6.699628
3209.000000	6.514668
3208.000000	6.336050
3207.000000	6.163908
3206.000000	5.999135
3205.000000	5.847074
3204.000000	5.712413
3203.000000	5.594768
3202.000000	5.493935
3201.000000	5.414528
3200.000000	5.359870
3199.000000	5.327839
3198.000000	5.316513
3197.000000	5.328872
3196.000000	5.367837
3195.000000	5.430544
3194.000000	5.513884
3193.000000	5.619085
3192.000000	5.746470
3191.000000	5.892135
3190.000000	6.052617
3189.000000	6.229171
3188.000000	6.422412
3187.000000	6.627793
3186.000000	6.841605
3185.000000	7.064960
3184.000000	7.298562
3183.000000	7.538635
3182.000000	7.782118
3181.000000	8.030979
3180.000000	8.286390
3179.000000	8.544477
3178.000000	8.801683
3177.000000	9.058899
3176.000000	9.316444
3175.000000	9.570283
3174.000000	9.817524
3173.000000	10.060254
3172.000000	10.300051
3171.000000	10.533940
3170.000000	10.760003
3169.000000	10.981399
3168.000000	11.200473
3167.000000	11.414409
3166.000000	11.620304
3165.000000	11.819492
3164.000000	12.012533
3163.000000	12.195051
3162.000000	12.363330
3161.000000	12.518440
3160.000000	12.661541
3159.000000	12.790124
3158.000000	12.902470
3157.000000	13.001688
3156.000000	13.090836
3155.000000	13.169683
3154.000000	13.240170
3153.000000	13.309463
3152.000000	13.383766
3151.000000	13.463186
3150.000000	13.546464
3149.000000	13.635686
3148.000000	13.732411
3147.000000	13.834254
3146.000000	13.939304
3145.000000	14.049097
3144.000000	14.163621
3143.000000	14.278486
3142.000000	14.390500
3141.000000	14.501266
3140.000000	14.611607
3139.000000	14.717631
3138.000000	14.815744
3137.000000	14.906438
3136.000000	14.989197
3135.000000	15.058440
3134.000000	15.108679
3133.000000	15.137787
3132.000000	15.142496
3131.000000	15.115263
3130.000000	15.049109
3129.000000	14.942431
3128.000000	14.794697
3127.000000	14.604767
3126.000000	14.376571
3125.000000	14.120953
3124.000000	13.849671
3123.000000	13.570701
3122.000000	13.292948
3121.000000	13.028530
3120.000000	12.785468
3119.000000	12.563236
3118.000000	12.359026
3117.000000	12.173157
3116.000000	12.004555
3115.000000	11.847284
3114.000000	11.695564
3113.000000	11.547998
3112.000000	11.403463
3111.000000	11.258657
3110.000000	11.113987
3109.000000	10.975721
3108.000000	10.848929
3107.000000	10.733461
3106.000000	10.629813
3105.000000	10.543879
3104.000000	10.481159
3103.000000	10.442788
3102.000000	10.431302
3101.000000	10.453630
3100.000000	10.515834
3099.000000	10.618116
3098.000000	10.759623
3097.000000	10.942731
3096.000000	11.167319
3095.000000	11.428851
3094.000000	11.723800
3093.000000	12.052908
3092.000000	12.416220
3091.000000	12.808689
3090.000000	13.225670
3089.000000	13.665175
3088.000000	14.122576
3087.000000	14.589734
3086.000000	15.061763
3085.000000	15.540397
3084.000000	16.026327
3083.000000	16.514331
3082.000000	16.999591
3081.000000	17.482781
3080.000000	17.965902
3079.000000	18.447966
3078.000000	18.928135
3077.000000	19.407567
3076.000000	19.884762
3075.000000	20.354029
3074.000000	20.811706
3073.000000	21.259358
3072.000000	21.698104
3071.000000	22.125398
3070.000000	22.540184
3069.000000	22.946143
3068.000000	23.346643
3067.000000	23.740439
3066.000000	24.125755
3065.000000	24.503779
3064.000000	24.875296
3063.000000	25.238564
3062.000000	25.592843
3061.000000	25.940370
3060.000000	26.282082
3059.000000	26.615748
3058.000000	26.940928
3057.000000	27.260914
3056.000000	27.577748
3055.000000	27.889514
3054.000000	28.195075
3053.000000	28.497260
3052.000000	28.798450
3051.000000	29.097317
3050.000000	29.392132
3049.000000	29.683247
3048.000000	29.970283
3047.000000	30.250892
3046.000000	30.524946
3045.000000	30.795969
3044.000000	31.066404
3043.000000	31.335616
3042.000000	31.603890
3041.000000	31.873651
3040.000000	32.144351
3039.000000	32.410872
3038.000000	32.669899
3037.000000	32.923860
3036.000000	33.176671
3035.000000	33.429625
3034.000000	33.683312
3033.000000	33.939098
3032.000000	34.196122
3031.000000	34.451140
3030.000000	34.703402
3029.000000	34.955375
3028.000000	35.207111
3027.000000	35.454695
3026.000000	35.696206
3025.000000	35.934388
3024.000000	36.170614
3023.000000	36.400955
3022.000000	36.620605
3021.000000	36.827397
3020.000000	37.018548
3019.000000	37.187220
3018.000000	37.326122
3017.000000	37.431238
3016.000000	37.500522
3015.000000	37.534461
3014.000000	37.541177
3013.000000	37.539033
3012.000000	37.550696
3011.000000	37.596406
3010.000000	37.691969
3009.000000	37.845972
3008.000000	38.054112
3007.000000	38.298534
3006.000000	38.554933
3005.000000	38.798084
3004.000000	38.999731
3003.000000	39.126760
3002.000000	39.146824
3001.000000	39.035633
3000.000000	38.784255
2999.000000	38.408462
2998.000000	37.959602
2997.000000	37.522346
2996.000000	37.192945
2995.000000	37.050592
2994.000000	37.134789
2993.000000	37.435812
2992.000000	37.897366
2991.000000	38.438994
2990.000000	38.987124
2989.000000	39.494663
2988.000000	39.940727
2987.000000	40.320743
2986.000000	40.640042
2985.000000	40.907237
2984.000000	41.127418
2983.000000	41.300150
2982.000000	41.425775
2981.000000	41.508242
2980.000000	41.550196
2979.000000	41.548460
2978.000000	41.496953
2977.000000	41.393937
2976.000000	41.245010
2975.000000	41.065942
2974.000000	40.883913
2973.000000	40.731123
2972.000000	40.631464
2971.000000	40.590062
2970.000000	40.592017
2969.000000	40.603402
2968.000000	40.572423
2967.000000	40.442051
2966.000000	40.175127
2965.000000	39.773940
2964.000000	39.278277
2963.000000	38.747933
2962.000000	38.245480
2961.000000	37.823395
2960.000000	37.517692
2959.000000	37.348557
2958.000000	37.326694
2957.000000	37.451833
2956.000000	37.704629
2955.000000	38.047121
2954.000000	38.434548
2953.000000	38.826040
2952.000000	39.183693
2951.000000	39.474647
2950.000000	39.680808
2949.000000	39.807143
2948.000000	39.875710
2947.000000	39.908464
2946.000000	39.908427
2945.000000	39.842590
2944.000000	39.642675
2943.000000	39.239619
2942.000000	38.626503
2941.000000	37.902982
2940.000000	37.261187
2939.000000	36.912278
2938.000000	36.994075
2937.000000	37.514798
2936.000000	38.359269
2935.000000	39.353982
2934.000000	40.344230
2933.000000	41.237245
2932.000000	41.999303
2931.000000	42.634609
2930.000000	43.167701
2929.000000	43.628297
2928.000000	44.040018
2927.000000	44.415660
2926.000000	44.762917
2925.000000	45.088411
2924.000000	45.395550
2923.000000	45.683590
2922.000000	45.952013
2921.000000	46.202361
2920.000000	46.433967
2919.000000	46.643197
2918.000000	46.828100
2917.000000	46.990692
2916.000000	47.133264
2915.000000	47.256201
2914.000000	47.360981
2913.000000	47.451105
2912.000000	47.528241
2911.000000	47.590751
2910.000000	47.636547
2909.000000	47.663695
2908.000000	47.666601
2907.000000	47.634091
2906.000000	47.552819
2905.000000	47.408630
2904.000000	47.183837
2903.000000	46.860435
2902.000000	46.429969
2901.000000	45.901603
2900.000000	45.304764
2899.000000	44.688804
2898.000000	44.119796
2897.000000	43.668688
2896.000000	43.389513
2895.000000	43.303940
2894.000000	43.402617
2893.000000	43.653505
2892.000000	44.011240
2891.000000	44.427322
2890.000000	44.862395
2889.000000	45.290497
2888.000000	45.695023
2887.000000	46.064857
2886.000000	46.394766
2885.000000	46.685432
2884.000000	46.938489
2883.000000	47.155014
2882.000000	47.338722
2881.000000	47.496987
2880.000000	47.637047
2879.000000	47.763785
2878.000000	47.881912
2877.000000	47.996326
2876.000000	48.108873
2875.000000	48.217662
2874.000000	48.321465
2873.000000	48.421792
2872.000000	48.520466
2871.000000	48.619479
2870.000000	48.724399
2869.000000	48.843976
2868.000000	48.983808
2867.000000	49.142569
2866.000000	49.314929
2865.000000	49.494346
2864.000000	49.672285
2863.000000	49.839807
2862.000000	49.992694
2861.000000	50.132545
2860.000000	50.262021
2859.000000	50.382288
2858.000000	50.496086
2857.000000	50.609105
2856.000000	50.726256
2855.000000	50.849527
2854.000000	50.980315
2853.000000	51.119662
2852.000000	51.264309
2851.000000	51.406062
2850.000000	51.537259
2849.000000	51.654733
2848.000000	51.758386
2847.000000	51.849938
2846.000000	51.934402
2845.000000	52.018937
2844.000000	52.108003
2843.000000	52.201662
2842.000000	52.299392
2841.000000	52.402671
2840.000000	52.512716
2839.000000	52.628818
2838.000000	52.750141
2837.000000	52.876442
2836.000000	53.006235
2835.000000	53.137087
2834.000000	53.268588
2833.000000	53.402355
2832.000000	53.538421
2831.000000	53.674432
2830.000000	53.809097
2829.000000	53.943286
2828.000000	54.076833
2827.000000	54.207375
2826.000000	54.333332
2825.000000	54.455176
2824.000000	54.572958
2823.000000	54.685455
2822.000000	54.792832
2821.000000	54.897242
2820.000000	54.999669
2819.000000	55.098864
2818.000000	55.194178
2817.000000	55.286585
2816.000000	55.376003
2815.000000	55.460434
2814.000000	55.538972
2813.000000	55.613080
2812.000000	55.684021
2811.000000	55.751757
2810.000000	55.817151
2809.000000	55.882355
2808.000000	55.947901
2807.000000	56.012072
2806.000000	56.074145
2805.000000	56.135571
2804.000000	56.196985
2803.000000	56.256919
2802.000000	56.314616
2801.000000	56.371505
2800.000000	56.428776
2799.000000	56.485924
2798.000000	56.542628
2797.000000	56.599503
2796.000000	56.656041
2795.000000	56.710315
2794.000000	56.761637
2793.000000	56.811110
2792.000000	56.858946
2791.000000	56.903990
2790.000000	56.946618
2789.000000	56.989119
2788.000000	57.032116
2787.000000	57.073336
2786.000000	57.111076
2785.000000	57.146532
2784.000000	57.181888
2783.000000	57.219050
2782.000000	57.261196
2781.000000	57.312356
2780.000000	57.373764
2779.000000	57.442712
2778.000000	57.516028
2777.000000	57.592550
2776.000000	57.671345
2775.000000	57.750253
2774.000000	57.827557
2773.000000	57.902876
2772.000000	57.975539
2771.000000	58.044338
2770.000000	58.109614
2769.000000	58.173254
2768.000000	58.235766
2767.000000	58.295523
2766.000000	58.351626
2765.000000	58.404947
2764.000000	58.455572
2763.000000	58.501898
2762.000000	58.543171
2761.000000	58.580671
2760.000000	58.615493
2759.000000	58.647379
2758.000000	58.676624
2757.000000	58.704525
2756.000000	58.731017
2755.000000	58.754267
2754.000000	58.773595
2753.000000	58.791010
2752.000000	58.809385
2751.000000	58.831262
2750.000000	58.859611
2749.000000	58.896496
2748.000000	58.939639
2747.000000	58.982674
2746.000000	59.020096
2745.000000	59.050480
2744.000000	59.075027
2743.000000	59.095902
2742.000000	59.116384
2741.000000	59.139351
2740.000000	59.163911
2739.000000	59.185807
2738.000000	59.202675
2737.000000	59.217802
2736.000000	59.238525
2735.000000	59.273143
2734.000000	59.329071
2733.000000	59.409568
2732.000000	59.510270
2731.000000	59.620866
2730.000000	59.731318
2729.000000	59.835774
2728.000000	59.931212
2727.000000	60.016026
2726.000000	60.091199
2725.000000	60.159804
2724.000000	60.223433
2723.000000	60.280867
2722.000000	60.330521
2721.000000	60.371841
2720.000000	60.404224
2719.000000	60.427138
2718.000000	60.442650
2717.000000	60.455798
2716.000000	60.471227
2715.000000	60.491410
2714.000000	60.518222
2713.000000	60.553339
2712.000000	60.596171
2711.000000	60.643790
2710.000000	60.693838
2709.000000	60.745471
2708.000000	60.797024
2707.000000	60.845351
2706.000000	60.888508
2705.000000	60.926732
2704.000000	60.959793
2703.000000	60.985708
2702.000000	61.002935
2701.000000	61.011272
2700.000000	61.010145
2699.000000	60.998329
2698.000000	60.976620
2697.000000	60.949157
2696.000000	60.920895
2695.000000	60.895630
2694.000000	60.876476
2693.000000	60.865295
2692.000000	60.860663
2691.000000	60.858704
2690.000000	60.857028
2689.000000	60.856209
2688.000000	60.857285
2687.000000	60.860292
2686.000000	60.866059
2685.000000	60.876635
2684.000000	60.892854
2683.000000	60.913886
2682.000000	60.939776
2681.000000	60.972348
2680.000000	61.012568
2679.000000	61.058982
2678.000000	61.109438
2677.000000	61.161756
2676.000000	61.212339
2675.000000	61.256803
2674.000000	61.293044
2673.000000	61.321773
2672.000000	61.343701
2671.000000	61.358626
2670.000000	61.368132
2669.000000	61.376882
2668.000000	61.390150
2667.000000	61.411861
2666.000000	61.445116
2665.000000	61.491519
2664.000000	61.548560
2663.000000	61.609812
2662.000000	61.668627
2661.000000	61.720191
2660.000000	61.760390
2659.000000	61.785801
2658.000000	61.795970
2657.000000	61.793934
2656.000000	61.783837
2655.000000	61.769958
2654.000000	61.758427
2653.000000	61.756757
2652.000000	61.770311
2651.000000	61.800744
2650.000000	61.847772
2649.000000	61.909523
2648.000000	61.980950
2647.000000	62.054684
2646.000000	62.124911
2645.000000	62.189275
2644.000000	62.246968
2643.000000	62.298166
2642.000000	62.345906
2641.000000	62.395434
2640.000000	62.450126
2639.000000	62.509461
2638.000000	62.571199
2637.000000	62.633211
2636.000000	62.692807
2635.000000	62.746923
2634.000000	62.794254
2633.000000	62.835286
2632.000000	62.869788
2631.000000	62.896703
2630.000000	62.916717
2629.000000	62.932804
2628.000000	62.947242
2627.000000	62.960135
2626.000000	62.971485
2625.000000	62.981849
2624.000000	62.990596
2623.000000	62.996039
2622.000000	62.998307
2621.000000	62.999974
2620.000000	63.002604
2619.000000	63.004768
2618.000000	63.003853
2617.000000	62.997424
2616.000000	62.982448
2615.000000	62.955636
2614.000000	62.916427
2613.000000	62.868054
2612.000000	62.814924
2611.000000	62.761059
2610.000000	62.711179
2609.000000	62.670596
2608.000000	62.642706
2607.000000	62.628400
2606.000000	62.628157
2605.000000	62.642926
2604.000000	62.672158
2603.000000	62.713067
2602.000000	62.763087
2601.000000	62.820146
2600.000000	62.880761
2599.000000	62.940351
2598.000000	62.996126
2597.000000	63.048130
2596.000000	63.096767
2595.000000	63.141885
2594.000000	63.184775
2593.000000	63.228375
2592.000000	63.274345
2591.000000	63.321799
2590.000000	63.369241
2589.000000	63.415462
2588.000000	63.458126
2587.000000	63.493920
2586.000000	63.521453
2585.000000	63.542452
2584.000000	63.559936
2583.000000	63.577519
2582.000000	63.600738
2581.000000	63.636089
2580.000000	63.687284
2579.000000	63.753794
2578.000000	63.832763
2577.000000	63.920572
2576.000000	64.012311
2575.000000	64.102963
2574.000000	64.190637
2573.000000	64.276490
2572.000000	64.361387
2571.000000	64.444317
2570.000000	64.524139
2569.000000	64.600386
2568.000000	64.671879
2567.000000	64.736868
2566.000000	64.795505
2565.000000	64.850352
2564.000000	64.903655
2563.000000	64.956152
2562.000000	65.008435
2561.000000	65.061180
2560.000000	65.113590
2559.000000	65.163685
2558.000000	65.210956
2557.000000	65.256658
2556.000000	65.301350
2555.000000	65.344456
2554.000000	65.386660
2553.000000	65.430424
2552.000000	65.477544
2551.000000	65.528272
2550.000000	65.582996
2549.000000	65.642142
2548.000000	65.703603
2547.000000	65.762719
2546.000000	65.815807
2545.000000	65.862086
2544.000000	65.901758
2543.000000	65.934848
2542.000000	65.962586
2541.000000	65.987223
2540.000000	66.009384
2539.000000	66.026774
2538.000000	66.036591
2537.000000	66.037387
2536.000000	66.027821
2535.000000	66.006606
2534.000000	65.974282
2533.000000	65.933782
2532.000000	65.888286
2531.000000	65.839552
2530.000000	65.789287
2529.000000	65.739684
2528.000000	65.692143
2527.000000	65.647141
2526.000000	65.605673
2525.000000	65.568908
2524.000000	65.535712
2523.000000	65.502487
2522.000000	65.466151
2521.000000	65.425500
2520.000000	65.379535
2519.000000	65.326668
2518.000000	65.266223
2517.000000	65.198865
2516.000000	65.124751
2515.000000	65.043861
2514.000000	64.958655
2513.000000	64.874524
2512.000000	64.797033
2511.000000	64.730619
2510.000000	64.679711
2509.000000	64.648167
2508.000000	64.636765
2507.000000	64.642675
2506.000000	64.663047
2505.000000	64.696157
2504.000000	64.739311
2503.000000	64.788782
2502.000000	64.841820
2501.000000	64.897319
2500.000000	64.953221
2499.000000	65.005794
2498.000000	65.052258
2497.000000	65.091696
2496.000000	65.123187
2495.000000	65.145513
2494.000000	65.159504
2493.000000	65.168100
2492.000000	65.173788
2491.000000	65.177804
2490.000000	65.182406
2489.000000	65.191237
2488.000000	65.206289
2487.000000	65.226672
2486.000000	65.250883
2485.000000	65.278019
2484.000000	65.306245
2483.000000	65.332902
2482.000000	65.357178
2481.000000	65.380858
2480.000000	65.405818
2479.000000	65.432630
2478.000000	65.462148
2477.000000	65.495859
2476.000000	65.534161
2475.000000	65.576622
2474.000000	65.624263
2473.000000	65.679620
2472.000000	65.743609
2471.000000	65.814629
2470.000000	65.891098
2469.000000	65.971953
2468.000000	66.054441
2467.000000	66.133924
2466.000000	66.207131
2465.000000	66.273625
2464.000000	66.333601
2463.000000	66.386566
2462.000000	66.433041
2461.000000	66.475275
2460.000000	66.514955
2459.000000	66.552294
2458.000000	66.587357
2457.000000	66.620269
2456.000000	66.649537
2455.000000	66.672283
2454.000000	66.687561
2453.000000	66.697373
2452.000000	66.704287
2451.000000	66.710290
2450.000000	66.718505
2449.000000	66.733396
2448.000000	66.757937
2447.000000	66.792298
2446.000000	66.835727
2445.000000	66.887813
2444.000000	66.946727
2443.000000	67.008777
2442.000000	67.070756
2441.000000	67.131027
2440.000000	67.188094
2439.000000	67.240022
2438.000000	67.286218
2437.000000	67.327692
2436.000000	67.364963
2435.000000	67.397130
2434.000000	67.423653
2433.000000	67.444834
2432.000000	67.459756
2431.000000	67.466355
2430.000000	67.463709
2429.000000	67.452812
2428.000000	67.434191
2427.000000	67.406508
2426.000000	67.368938
2425.000000	67.322420
2424.000000	67.268605
2423.000000	67.209568
2422.000000	67.149446
2421.000000	67.094509
2420.000000	67.050215
2419.000000	67.019632
2418.000000	67.004381
2417.000000	67.004654
2416.000000	67.016800
2415.000000	67.033489
2414.000000	67.047211
2413.000000	67.052342
2412.000000	67.043945
2411.000000	67.017773
2410.000000	66.972896
2409.000000	66.912349
2408.000000	66.840622
2407.000000	66.761654
2406.000000	66.680121
2405.000000	66.601193
2404.000000	66.527770
2403.000000	66.460102
2402.000000	66.399052
2401.000000	66.347492
2400.000000	66.307234
2399.000000	66.277016
2398.000000	66.254191
2397.000000	66.236324
2396.000000	66.219550
2395.000000	66.198099
2394.000000	66.167075
2393.000000	66.124635
2392.000000	66.070698
2391.000000	66.006653
2390.000000	65.937869
2389.000000	65.873517
2388.000000	65.823949
2387.000000	65.797739
2386.000000	65.802595
2385.000000	65.845948
2384.000000	65.930084
2383.000000	66.051157
2382.000000	66.200179
2381.000000	66.364436
2380.000000	66.527217
2379.000000	66.667784
2378.000000	66.769141
2377.000000	66.824372
2376.000000	66.834072
2375.000000	66.802963
2374.000000	66.741772
2373.000000	66.666873
2372.000000	66.594448
2371.000000	66.532820
2370.000000	66.482627
2369.000000	66.449380
2368.000000	66.442640
2367.000000	66.464122
2366.000000	66.507642
2365.000000	66.577022
2364.000000	66.683041
2363.000000	66.813441
2362.000000	66.959651
2361.000000	67.116254
2360.000000	67.261497
2359.000000	67.380402
2358.000000	67.449520
2357.000000	67.467440
2356.000000	67.441232
2355.000000	67.373495
2354.000000	67.299919
2353.000000	67.268136
2352.000000	67.339490
2351.000000	67.481854
2350.000000	67.591141
2349.000000	67.607705
2348.000000	67.555253
2347.000000	67.541412
2346.000000	67.597499
2345.000000	67.677285
2344.000000	67.721569
2343.000000	67.709984
2342.000000	67.696004
2341.000000	67.690826
2340.000000	67.695648
2339.000000	67.693910
2338.000000	67.686928
2337.000000	67.680281
2336.000000	67.682403
2335.000000	67.698374
2334.000000	67.730037
2333.000000	67.755681
2332.000000	67.750508
2331.000000	67.692135
2330.000000	67.576153
2329.000000	67.451455
2328.000000	67.331522
2327.000000	67.259335
2326.000000	67.224470
2325.000000	67.230721
2324.000000	67.252015
2323.000000	67.256253
2322.000000	67.232931
2321.000000	67.172393
2320.000000	67.093043
2319.000000	67.004086
2318.000000	66.928573
2317.000000	66.880467
2316.000000	66.858978
2315.000000	66.851847
2314.000000	66.830310
2313.000000	66.780138
2312.000000	66.683756
2311.000000	66.552634
2310.000000	66.391252
2309.000000	66.218846
2308.000000	66.033649
2307.000000	65.844372
2306.000000	65.651572
2305.000000	65.466048
2304.000000	65.288408
2303.000000	65.120251
2302.000000	64.957306
2301.000000	64.800425
2300.000000	64.644568
2299.000000	64.492230
2298.000000	64.343043
2297.000000	64.205713
2296.000000	64.080080
2295.000000	63.973545
2294.000000	63.889232
2293.000000	63.836927
2292.000000	63.817178
2291.000000	63.830243
2290.000000	63.872273
2289.000000	63.939595
2288.000000	64.024837
2287.000000	64.121025
2286.000000	64.225611
2285.000000	64.338442
2284.000000	64.458426
2283.000000	64.581539
2282.000000	64.705812
2281.000000	64.828816
2280.000000	64.947238
2279.000000	65.055957
2278.000000	65.154026
2277.000000	65.243017
2276.000000	65.325303
2275.000000	65.403608
2274.000000	65.482618
2273.000000	65.568679
2272.000000	65.665382
2271.000000	65.774633
2270.000000	65.898404
2269.000000	66.038586
2268.000000	66.194175
2267.000000	66.361717
2266.000000	66.537523
2265.000000	66.718546
2264.000000	66.899811
2263.000000	67.077557
2262.000000	67.250689
2261.000000	67.419972
2260.000000	67.584344
2259.000000	67.739982
2258.000000	67.884756
2257.000000	68.017385
2256.000000	68.137803
2255.000000	68.246421
2254.000000	68.347050
2253.000000	68.445380
2252.000000	68.545514
2251.000000	68.649484
2250.000000	68.757640
2249.000000	68.868818
2248.000000	68.979131
2247.000000	69.083846
2246.000000	69.179910
2245.000000	69.266675
2244.000000	69.343776
2243.000000	69.411453
2242.000000	69.471504
2241.000000	69.526595
2240.000000	69.577805
2239.000000	69.624368
2238.000000	69.665089
2237.000000	69.698207
2236.000000	69.721220
2235.000000	69.732522
2234.000000	69.734168
2233.000000	69.731431
2232.000000	69.730577
2231.000000	69.737529
2230.000000	69.756972
2229.000000	69.789630
2228.000000	69.830559
2227.000000	69.871952
2226.000000	69.907762
2225.000000	69.935078
2224.000000	69.952947
2223.000000	69.962680
2222.000000	69.968426
2221.000000	69.975024
2220.000000	69.984820
2219.000000	69.998044
2218.000000	70.015133
2217.000000	70.036816
2216.000000	70.062699
2215.000000	70.092129
2214.000000	70.126156
2213.000000	70.166360
2212.000000	70.212268
2211.000000	70.261674
2210.000000	70.313148
2209.000000	70.365989
2208.000000	70.418264
2207.000000	70.466928
2206.000000	70.509525
2205.000000	70.544096
2204.000000	70.567862
2203.000000	70.578482
2202.000000	70.576701
2201.000000	70.566501
2200.000000	70.552838
2199.000000	70.540413
2198.000000	70.533436
2197.000000	70.533965
2196.000000	70.540659
2195.000000	70.550861
2194.000000	70.564109
2193.000000	70.582354
2192.000000	70.607685
2191.000000	70.641648
2190.000000	70.685660
2189.000000	70.739797
2188.000000	70.801241
2187.000000	70.865913
2186.000000	70.931124
2185.000000	70.995269
2184.000000	71.056063
2183.000000	71.111221
2182.000000	71.160539
2181.000000	71.205254
2180.000000	71.246082
2179.000000	71.283438
2178.000000	71.318793
2177.000000	71.353573
2176.000000	71.386885
2175.000000	71.416038
2174.000000	71.438710
2173.000000	71.453239
2172.000000	71.457961
2171.000000	71.452741
2170.000000	71.440995
2169.000000	71.428243
2168.000000	71.418575
2167.000000	71.413568
2166.000000	71.413453
2165.000000	71.417034
2164.000000	71.421079
2163.000000	71.422452
2162.000000	71.421075
2161.000000	71.419641
2160.000000	71.420979
2159.000000	71.427295
2158.000000	71.441028
2157.000000	71.463874
2156.000000	71.494848
2155.000000	71.530742
2154.000000	71.568205
2153.000000	71.604113
2152.000000	71.635238
2151.000000	71.659865
2150.000000	71.679532
2149.000000	71.697497
2148.000000	71.715746
2147.000000	71.734913
2146.000000	71.755670
2145.000000	71.777908
2144.000000	71.799188
2143.000000	71.816001
2142.000000	71.826498
2141.000000	71.831120
2140.000000	71.831399
2139.000000	71.829692
2138.000000	71.829085
2137.000000	71.831501
2136.000000	71.835969
2135.000000	71.839781
2134.000000	71.840597
2133.000000	71.836173
2132.000000	71.823651
2131.000000	71.801404
2130.000000	71.771144
2129.000000	71.736653
2128.000000	71.701256
2127.000000	71.667981
2126.000000	71.640675
2125.000000	71.622451
2124.000000	71.613403
2123.000000	71.611873
2122.000000	71.617250
2121.000000	71.629947
2120.000000	71.649943
2119.000000	71.677350
2118.000000	71.713228
2117.000000	71.757550
2116.000000	71.806928
2115.000000	71.856084
2114.000000	71.900885
2113.000000	71.938230
2112.000000	71.964725
2111.000000	71.978352
2110.000000	71.981112
2109.000000	71.978086
2108.000000	71.974259
2107.000000	71.973359
2106.000000	71.978493
2105.000000	71.991147
2104.000000	72.009478
2103.000000	72.029346
2102.000000	72.046614
2101.000000	72.057246
2100.000000	72.056721
2099.000000	72.041503
2098.000000	72.011414
2097.000000	71.969176
2096.000000	71.918829
2095.000000	71.866761
2094.000000	71.822049
2093.000000	71.792556
2092.000000	71.780945
2091.000000	71.786038
2090.000000	71.806800
2089.000000	71.842701
2088.000000	71.891279
2087.000000	71.948542
2086.000000	72.011110
2085.000000	72.075467
2084.000000	72.136241
2083.000000	72.187508
2082.000000	72.225081
2081.000000	72.246444
2080.000000	72.250059
2079.000000	72.236866
2078.000000	72.211785
2077.000000	72.180698
2076.000000	72.146101
2075.000000	72.107494
2074.000000	72.063394
2073.000000	72.011789
2072.000000	71.949889
2071.000000	71.876055
2070.000000	71.792783
2069.000000	71.704701
2068.000000	71.613509
2067.000000	71.516930
2066.000000	71.412714
2065.000000	71.302191
2064.000000	71.189334
2063.000000	71.078131
2062.000000	70.970467
2061.000000	70.864579
2060.000000	70.755991
2059.000000	70.641630
2058.000000	70.522844
2057.000000	70.403557
2056.000000	70.287443
2055.000000	70.178634
2054.000000	70.082570
2053.000000	70.002850
2052.000000	69.937618
2051.000000	69.881372
2050.000000	69.830270
2049.000000	69.784025
2048.000000	69.743239
2047.000000	69.708817
2046.000000	69.684376
2045.000000	69.673936
2044.000000	69.676443
2043.000000	69.686106
2042.000000	69.698627
2041.000000	69.714742
2040.000000	69.737370
2039.000000	69.769260
2038.000000	69.813428
2037.000000	69.871910
2036.000000	69.943903
2035.000000	70.027209
2034.000000	70.121098
2033.000000	70.225141
2032.000000	70.336258
2031.000000	70.450207
2030.000000	70.564108
2029.000000	70.675312
2028.000000	70.779267
2027.000000	70.872877
2026.000000	70.958402
2025.000000	71.041430
2024.000000	71.125695
2023.000000	71.212057
2022.000000	71.302145
2021.000000	71.397271
2020.000000	71.493345
2019.000000	71.581972
2018.000000	71.658751
2017.000000	71.728171
2016.000000	71.799534
2015.000000	71.880704
2014.000000	71.975192
2013.000000	72.081353
2012.000000	72.192927
2011.000000	72.303477
2010.000000	72.410684
2009.000000	72.514769
2008.000000	72.614574
2007.000000	72.709210
2006.000000	72.800952
2005.000000	72.893207
2004.000000	72.986627
2003.000000	73.079221
2002.000000	73.170808
2001.000000	73.261169
2000.000000	73.348004
1999.000000	73.428526
1998.000000	73.501076
1997.000000	73.567420
1996.000000	73.632146
1995.000000	73.698069
1994.000000	73.763063
1993.000000	73.823986
1992.000000	73.884061
1991.000000	73.952785
1990.000000	74.035910
1989.000000	74.128689
1988.000000	74.221092
1987.000000	74.307356
1986.000000	74.389381
1985.000000	74.471957
1984.000000	74.557800
1983.000000	74.647431
1982.000000	74.741208
1981.000000	74.837736
1980.000000	74.934558
1979.000000	75.029636
1978.000000	75.120855
1977.000000	75.207431
1976.000000	75.291336
1975.000000	75.375261
1974.000000	75.459212
1973.000000	75.542104
1972.000000	75.625916
1971.000000	75.713887
1970.000000	75.803302
1969.000000	75.883983
1968.000000	75.945256
1967.000000	75.983884
1966.000000	76.005077
1965.000000	76.016314
1964.000000	76.021853
1963.000000	76.021844
1962.000000	76.014961
1961.000000	76.002607
1960.000000	75.988860
1959.000000	75.975302
1958.000000	75.958472
1957.000000	75.935013
1956.000000	75.908152
1955.000000	75.886964
1954.000000	75.879180
1953.000000	75.888547
1952.000000	75.914752
1951.000000	75.954151
1950.000000	76.001428
1949.000000	76.049053
1948.000000	76.091165
1947.000000	76.128360
1946.000000	76.163610
1945.000000	76.193581
1944.000000	76.207759
1943.000000	76.200798
1942.000000	76.183939
1941.000000	76.176742
1940.000000	76.189550
1939.000000	76.218088
1938.000000	76.249480
1937.000000	76.271847
1936.000000	76.280039
1935.000000	76.273440
1934.000000	76.252359
1933.000000	76.221218
1932.000000	76.188202
1931.000000	76.163163
1930.000000	76.153883
1929.000000	76.157367
1928.000000	76.166702
1927.000000	76.178751
1926.000000	76.194729
1925.000000	76.209950
1924.000000	76.211479
1923.000000	76.200151
1922.000000	76.198151
1921.000000	76.221846
1920.000000	76.261330
1919.000000	76.291858
1918.000000	76.302358
1917.000000	76.302512
1916.000000	76.300770
1915.000000	76.296859
1914.000000	76.288906
1913.000000	76.275471
1912.000000	76.254045
1911.000000	76.225677
1910.000000	76.198246
1909.000000	76.178675
1908.000000	76.170936
1907.000000	76.176046
1906.000000	76.195252
1905.000000	76.224309
1904.000000	76.250624
1903.000000	76.271716
1902.000000	76.300634
1901.000000	76.347518
1900.000000	76.412733
1899.000000	76.494480
1898.000000	76.591899
1897.000000	76.694659
1896.000000	76.780382
1895.000000	76.838893
1894.000000	76.885083
1893.000000	76.936607
1892.000000	76.992458
1891.000000	77.041547
1890.000000	77.082220
1889.000000	77.125075
1888.000000	77.176638
1887.000000	77.234078
1886.000000	77.292067
1885.000000	77.342967
1884.000000	77.380322
1883.000000	77.410378
1882.000000	77.447667
1881.000000	77.495462
1880.000000	77.546504
1879.000000	77.598204
1878.000000	77.656279
1877.000000	77.724526
1876.000000	77.794802
1875.000000	77.857150
1874.000000	77.913036
1873.000000	77.967366
1872.000000	78.016360
1871.000000	78.052067
1870.000000	78.072626
1869.000000	78.089548
1868.000000	78.120980
1867.000000	78.177395
1866.000000	78.258892
1865.000000	78.351956
1864.000000	78.433320
1863.000000	78.490622
1862.000000	78.533505
1861.000000	78.576557
1860.000000	78.623163
1859.000000	78.674118
1858.000000	78.736304
1857.000000	78.810298
1856.000000	78.883066
1855.000000	78.943626
1854.000000	78.995350
1853.000000	79.040419
1852.000000	79.080039
1851.000000	79.120907
1850.000000	79.167813
1849.000000	79.219059
1848.000000	79.271809
1847.000000	79.331525
1846.000000	79.400562
1845.000000	79.463314
1844.000000	79.508324
1843.000000	79.545655
1842.000000	79.585005
1841.000000	79.626595
1840.000000	79.669193
1839.000000	79.709500
1838.000000	79.750528
1837.000000	79.799558
1836.000000	79.857021
1835.000000	79.920199
1834.000000	79.985775
1833.000000	80.046031
1832.000000	80.092256
1831.000000	80.112228
1830.000000	80.110740
1829.000000	80.124034
1828.000000	80.177942
1827.000000	80.262451
1826.000000	80.348216
1825.000000	80.418898
1824.000000	80.480664
1823.000000	80.540587
1822.000000	80.596688
1821.000000	80.647369
1820.000000	80.693232
1819.000000	80.731427
1818.000000	80.765567
1817.000000	80.807289
1816.000000	80.859785
1815.000000	80.915541
1814.000000	80.962830
1813.000000	80.992894
1812.000000	80.996816
1811.000000	80.970297
1810.000000	80.932964
1809.000000	80.909137
1808.000000	80.899025
1807.000000	80.895484
1806.000000	80.907475
1805.000000	80.944187
1804.000000	80.987340
1803.000000	81.007273
1802.000000	80.991302
1801.000000	80.958772
1800.000000	80.936705
1799.000000	80.934629
1798.000000	80.953320
1797.000000	80.988090
1796.000000	81.029441
1795.000000	81.076451
1794.000000	81.127302
1793.000000	81.168134
1792.000000	81.183883
1791.000000	81.175945
1790.000000	81.164990
1789.000000	81.171559
1788.000000	81.195971
1787.000000	81.224152
1786.000000	81.249607
1785.000000	81.278558
1784.000000	81.312958
1783.000000	81.349215
1782.000000	81.371519
1781.000000	81.368685
1780.000000	81.351578
1779.000000	81.341621
1778.000000	81.352577
1777.000000	81.379289
1776.000000	81.419430
1775.000000	81.482522
1774.000000	81.563332
1773.000000	81.641771
1772.000000	81.721274
1771.000000	81.801877
1770.000000	81.864186
1769.000000	81.906860
1768.000000	81.943714
1767.000000	81.987040
1766.000000	82.042534
1765.000000	82.116151
1764.000000	82.204507
1763.000000	82.279824
1762.000000	82.313325
1761.000000	82.322638
1760.000000	82.334061
1759.000000	82.346176
1758.000000	82.344476
1757.000000	82.325396
1756.000000	82.324989
1755.000000	82.368137
1754.000000	82.436444
1753.000000	82.504776
1752.000000	82.561673
1751.000000	82.602717
1750.000000	82.627482
1749.000000	82.638417
1748.000000	82.655420
1747.000000	82.703943
1746.000000	82.773206
1745.000000	82.839264
1744.000000	82.897756
1743.000000	82.952927
1742.000000	83.004673
1741.000000	83.050065
1740.000000	83.083727
1739.000000	83.102473
1738.000000	83.106643
1737.000000	83.111221
1736.000000	83.130123
1735.000000	83.135791
1734.000000	83.135581
1733.000000	83.175787
1732.000000	83.221107
1731.000000	83.230167
1730.000000	83.210743
1729.000000	83.175021
1728.000000	83.138775
1727.000000	83.118046
1726.000000	83.109355
1725.000000	83.106997
1724.000000	83.109374
1723.000000	83.121180
1722.000000	83.152905
1721.000000	83.202987
1720.000000	83.250509
1719.000000	83.253716
1718.000000	83.208571
1717.000000	83.180938
1716.000000	83.181343
1715.000000	83.175654
1714.000000	83.187059
1713.000000	83.242431
1712.000000	83.315260
1711.000000	83.375280
1710.000000	83.425363
1709.000000	83.471575
1708.000000	83.504689
1707.000000	83.513007
1706.000000	83.511166
1705.000000	83.530039
1704.000000	83.572134
1703.000000	83.636787
1702.000000	83.733235
1701.000000	83.823107
1700.000000	83.892789
1699.000000	83.945727
1698.000000	83.976926
1697.000000	84.015170
1696.000000	84.067310
1695.000000	84.127315
1694.000000	84.180313
1693.000000	84.213542
1692.000000	84.245756
1691.000000	84.285978
1690.000000	84.315354
1689.000000	84.311712
1688.000000	84.292785
1687.000000	84.294895
1686.000000	84.314292
1685.000000	84.277949
1684.000000	84.200428
1683.000000	84.183197
1682.000000	84.195277
1681.000000	84.170114
1680.000000	84.116865
1679.000000	84.066959
1678.000000	84.020877
1677.000000	83.944308
1676.000000	83.813118
1675.000000	83.671982
1674.000000	83.562966
1673.000000	83.468710
1672.000000	83.379120
1671.000000	83.303182
1670.000000	83.233471
1669.000000	83.150153
1668.000000	83.049327
1667.000000	82.944375
1666.000000	82.836921
1665.000000	82.711038
1664.000000	82.548778
1663.000000	82.373671
1662.000000	82.220761
1661.000000	82.066972
1660.000000	81.885598
1659.000000	81.693756
1658.000000	81.495409
1657.000000	81.270999
1656.000000	81.015158
1655.000000	80.695737
1654.000000	80.166454
1653.000000	79.457625
1652.000000	78.795841
1651.000000	78.155604
1650.000000	77.421405
1649.000000	76.484068
1648.000000	75.119215
1647.000000	73.166862
1646.000000	70.735607
1645.000000	68.006178
1644.000000	64.991513
1643.000000	61.600876
1642.000000	57.786729
1641.000000	53.657222
1640.000000	49.540720
1639.000000	45.802452
1638.000000	42.626284
1637.000000	40.066681
1636.000000	38.320726
1635.000000	37.689097
1634.000000	38.125972
1633.000000	39.307301
1632.000000	40.978497
1631.000000	42.998566
1630.000000	45.265420
1629.000000	47.684480
1628.000000	50.148734
1627.000000	52.514349
1626.000000	54.690857
1625.000000	56.739139
1624.000000	58.772643
1623.000000	60.768137
1622.000000	62.559499
1621.000000	64.053201
1620.000000	65.332025
1619.000000	66.532712
1618.000000	67.731346
1617.000000	68.928659
1616.000000	70.049502
1615.000000	70.965077
1614.000000	71.633511
1613.000000	72.143799
1612.000000	72.595461
1611.000000	73.002203
1610.000000	73.303367
1609.000000	73.455990
1608.000000	73.454635
1607.000000	73.266809
1606.000000	72.811594
1605.000000	72.017724
1604.000000	70.863882
1603.000000	69.330817
1602.000000	67.412920
1601.000000	65.210811
1600.000000	62.951021
1599.000000	60.889021
1598.000000	59.187255
1597.000000	57.886172
1596.000000	56.941278
1595.000000	56.252739
1594.000000	55.685456
1593.000000	55.130538
1592.000000	54.556010
1591.000000	53.969935
1590.000000	53.366661
1589.000000	52.729275
1588.000000	52.051948
1587.000000	51.309168
1586.000000	50.437757
1585.000000	49.393379
1584.000000	48.216188
1583.000000	46.979847
1582.000000	45.703621
1581.000000	44.383404
1580.000000	43.052543
1579.000000	41.706003
1578.000000	40.177002
1577.000000	38.212317
1576.000000	35.851885
1575.000000	33.551673
1574.000000	31.640981
1573.000000	30.052447
1572.000000	28.623393
1571.000000	27.300501
1570.000000	26.142779
1569.000000	25.252163
1568.000000	24.708280
1567.000000	24.533825
1566.000000	24.662880
1565.000000	24.976102
1564.000000	25.410321
1563.000000	25.984233
1562.000000	26.735698
1561.000000	27.697948
1560.000000	28.978773
1559.000000	30.658684
1558.000000	32.428259
1557.000000	33.871348
1556.000000	35.010251
1555.000000	36.059369
1554.000000	37.069868
1553.000000	37.960078
1552.000000	38.713058
1551.000000	39.433535
1550.000000	40.227073
1549.000000	41.117526
1548.000000	42.104508
1547.000000	43.233019
1546.000000	44.531583
1545.000000	45.928676
1544.000000	47.313557
1543.000000	48.653046
1542.000000	49.993632
1541.000000	51.369430
1540.000000	52.762574
1539.000000	54.098760
1538.000000	55.257426
1537.000000	56.212690
1536.000000	57.082603
1535.000000	58.007395
1534.000000	59.016829
1533.000000	60.022155
1532.000000	60.937562
1531.000000	61.770060
1530.000000	62.570403
1529.000000	63.349427
1528.000000	64.093158
1527.000000	64.811179
1526.000000	65.503088
1525.000000	66.137979
1524.000000	66.711830
1523.000000	67.262564
1522.000000	67.796284
1521.000000	68.273086
1520.000000	68.682594
1519.000000	69.065880
1518.000000	69.456810
1517.000000	69.844430
1516.000000	70.216714
1515.000000	70.591650
1514.000000	70.973871
1513.000000	71.347327
1512.000000	71.697248
1511.000000	72.024830
1510.000000	72.336441
1509.000000	72.625279
1508.000000	72.872090
1507.000000	73.118303
1506.000000	73.481350
1505.000000	73.907550
1504.000000	74.267512
1503.000000	74.570946
1502.000000	74.857368
1501.000000	75.114864
1500.000000	75.334344
1499.000000	75.539155
1498.000000	75.747467
1497.000000	75.967052
1496.000000	76.211838
1495.000000	76.483469
1494.000000	76.751142
1493.000000	76.985011
1492.000000	77.180783
1491.000000	77.337962
1490.000000	77.447893
1489.000000	77.523002
1488.000000	77.595955
1487.000000	77.686818
1486.000000	77.772268
1485.000000	77.781503
1484.000000	77.676292
1483.000000	77.450582
1482.000000	77.062931
1481.000000	76.467522
1480.000000	75.669511
1479.000000	74.651174
1478.000000	73.272471
1477.000000	71.387312
1476.000000	69.034470
1475.000000	66.375936
1474.000000	63.466600
1473.000000	60.370357
1472.000000	57.469095
1471.000000	55.209525
1470.000000	53.670657
1469.000000	52.699550
1468.000000	52.211402
1467.000000	52.241086
1466.000000	52.859634
1465.000000	54.033411
1464.000000	55.520605
1463.000000	56.948283
1462.000000	58.036317
1461.000000	58.677333
1460.000000	58.844228
1459.000000	58.488972
1458.000000	57.531281
1457.000000	56.131228
1456.000000	54.817876
1455.000000	53.945944
1454.000000	53.441388
1453.000000	53.136728
1452.000000	52.946764
1451.000000	52.843884
1450.000000	52.829955
1449.000000	52.934122
1448.000000	53.185910
1447.000000	53.580488
1446.000000	54.090393
1445.000000	54.719683
1444.000000	55.505719
1443.000000	56.464538
1442.000000	57.589672
1441.000000	58.876993
1440.000000	60.326469
1439.000000	61.937611
1438.000000	63.715587
1437.000000	65.599563
1436.000000	67.379155
1435.000000	68.831723
1434.000000	69.953264
1433.000000	70.892570
1432.000000	71.737190
1431.000000	72.473342
1430.000000	73.082443
1429.000000	73.596496
1428.000000	74.043093
1427.000000	74.432198
1426.000000	74.780019
1425.000000	75.105869
1424.000000	75.424219
1423.000000	75.735004
1422.000000	76.043310
1421.000000	76.354570
1420.000000	76.640678
1419.000000	76.859531
1418.000000	77.027300
1417.000000	77.202809
1416.000000	77.411695
1415.000000	77.640956
1414.000000	77.874894
1413.000000	78.112632
1412.000000	78.352629
1411.000000	78.578047
1410.000000	78.779772
1409.000000	78.973136
1408.000000	79.162041
1407.000000	79.331159
1406.000000	79.472481
1405.000000	79.595479
1404.000000	79.711414
1403.000000	79.803542
1402.000000	79.826422
1401.000000	79.706084
1400.000000	79.356352
1399.000000	78.779896
1398.000000	78.142925
1397.000000	77.670509
1396.000000	77.493392
1395.000000	77.602949
1394.000000	77.873263
1393.000000	78.161203
1392.000000	78.416623
1391.000000	78.680097
1390.000000	79.007066
1389.000000	79.407923
1388.000000	79.839679
1387.000000	80.251408
1386.000000	80.633604
1385.000000	81.010576
1384.000000	81.404168
1383.000000	81.809454
1382.000000	82.204001
1381.000000	82.559060
1380.000000	82.836963
1379.000000	82.997522
1378.000000	83.008470
1377.000000	82.817283
1376.000000	82.272804
1375.000000	81.080011
1374.000000	78.862031
1373.000000	75.350911
1372.000000	70.593576
1371.000000	65.086038
1370.000000	59.794484
1369.000000	55.932461
1368.000000	54.379584
1367.000000	55.094264
1366.000000	57.186372
1365.000000	59.520176
1364.000000	61.171979
1363.000000	61.624618
1362.000000	60.922441
1361.000000	59.712329
1360.000000	58.951482
1359.000000	59.427146
1358.000000	61.381869
1357.000000	64.421741
1356.000000	67.803117
1355.000000	70.879178
1354.000000	73.359631
1353.000000	75.270711
1352.000000	76.751939
1351.000000	77.926611
1350.000000	78.878933
1349.000000	79.657379
1348.000000	80.285948
1347.000000	80.788009
1346.000000	81.200730
1345.000000	81.562396
1344.000000	81.900221
1343.000000	82.229740
1342.000000	82.557461
1341.000000	82.871864
1340.000000	83.145157
1339.000000	83.362477
1338.000000	83.535641
1337.000000	83.683374
1336.000000	83.808205
1335.000000	83.895438
1334.000000	83.916509
1333.000000	83.806883
1332.000000	83.452600
1331.000000	82.720530
1330.000000	81.514936
1329.000000	79.817798
1328.000000	77.655215
1327.000000	75.037801
1326.000000	71.971840
1325.000000	68.599326
1324.000000	65.366335
1323.000000	62.940037
1322.000000	61.806379
1321.000000	61.915095
1320.000000	62.748062
1319.000000	63.726061
1318.000000	64.562909
1317.000000	65.276565
1316.000000	65.977002
1315.000000	66.729270
1314.000000	67.566053
1313.000000	68.547672
1312.000000	69.752906
1311.000000	71.203903
1310.000000	72.808920
1309.000000	74.381766
1308.000000	75.720637
1307.000000	76.690847
1306.000000	77.254636
1305.000000	77.425376
1304.000000	77.215223
1303.000000	76.617718
1302.000000	75.623486
1301.000000	74.268259
1300.000000	72.690400
1299.000000	71.153009
1298.000000	69.957332
1297.000000	69.274822
1296.000000	69.041922
1295.000000	69.001987
1294.000000	68.844963
1293.000000	68.328123
1292.000000	67.322625
1291.000000	65.797494
1290.000000	63.766913
1289.000000	61.276085
1288.000000	58.480238
1287.000000	55.740858
1286.000000	53.565176
1285.000000	52.371393
1284.000000	52.279998
1283.000000	53.116003
1282.000000	54.605658
1281.000000	56.542409
1280.000000	58.771170
1279.000000	61.054727
1278.000000	63.030205
1277.000000	64.352731
1276.000000	64.877892
1275.000000	64.718756
1274.000000	64.175828
1273.000000	63.634478
1272.000000	63.474588
1271.000000	63.972468
1270.000000	65.203326
1269.000000	67.014130
1268.000000	69.107121
1267.000000	71.181922
1266.000000	73.039990
1265.000000	74.608386
1264.000000	75.901724
1263.000000	76.969381
1262.000000	77.861647
1261.000000	78.619169
1260.000000	79.270738
1259.000000	79.833923
1258.000000	80.324118
1257.000000	80.751502
1256.000000	81.118001
1255.000000	81.424954
1254.000000	81.681068
1253.000000	81.903620
1252.000000	82.108730
1251.000000	82.308157
1250.000000	82.511307
1249.000000	82.720652
1248.000000	82.928359
1247.000000	83.121882
1246.000000	83.293503
1245.000000	83.441761
1244.000000	83.566047
1243.000000	83.667632
1242.000000	83.752633
1241.000000	83.826974
1240.000000	83.889532
1239.000000	83.934125
1238.000000	83.957312
1237.000000	83.956313
1236.000000	83.922406
1235.000000	83.845508
1234.000000	83.722256
1233.000000	83.556571
1232.000000	83.353456
1231.000000	83.117652
1230.000000	82.856482
1229.000000	82.569913
1228.000000	82.241001
1227.000000	81.837092
1226.000000	81.316146
1225.000000	80.634936
1224.000000	79.745137
1223.000000	78.600601
1222.000000	77.164771
1221.000000	75.407446
1220.000000	73.318897
1219.000000	70.922420
1218.000000	68.282175
1217.000000	65.498236
1216.000000	62.698997
1215.000000	60.037543
1214.000000	57.681453
1213.000000	55.791235
1212.000000	54.494688
1211.000000	53.857911
1210.000000	53.835223
1209.000000	54.270962
1208.000000	54.949945
1207.000000	55.646248
1206.000000	56.164653
1205.000000	56.362118
1204.000000	56.162347
1203.000000	55.560991
1202.000000	54.626671
1201.000000	53.509358
1200.000000	52.438863
1199.000000	51.681978
1198.000000	51.454057
1197.000000	51.839497
1196.000000	52.788321
1195.000000	54.159090
1194.000000	55.783233
1193.000000	57.524843
1192.000000	59.298817
1191.000000	61.064043
1190.000000	62.796071
1189.000000	64.471516
1188.000000	66.067001
1187.000000	67.558240
1186.000000	68.920951
1185.000000	70.139967
1184.000000	71.214879
1183.000000	72.150099
1182.000000	72.951036
1181.000000	73.621356
1180.000000	74.171051
1179.000000	74.624365
1178.000000	75.008676
1177.000000	75.343650
1176.000000	75.628244
1175.000000	75.841927
1174.000000	75.954607
1173.000000	75.923571
1172.000000	75.700418
1171.000000	75.232961
1170.000000	74.470139
1169.000000	73.370541
1168.000000	71.907964
1167.000000	70.104398
1166.000000	68.063489
1165.000000	65.982178
1164.000000	64.125712
1163.000000	62.763009
1162.000000	62.071322
1161.000000	62.080368
1160.000000	62.687854
1159.000000	63.705688
1158.000000	64.929217
1157.000000	66.181777
1156.000000	67.337807
1155.000000	68.325935
1154.000000	69.113028
1153.000000	69.688594
1152.000000	70.052487
1151.000000	70.206839
1150.000000	70.146586
1149.000000	69.866205
1148.000000	69.349161
1147.000000	68.565887
1146.000000	67.472184
1145.000000	65.992501
1144.000000	64.037648
1143.000000	61.520929
1142.000000	58.404931
1141.000000	54.766046
1140.000000	50.823900
1139.000000	46.906407
1138.000000	43.318932
1137.000000	40.210370
1136.000000	37.537374
1135.000000	35.155619
1134.000000	32.955926
1133.000000	31.011485
1132.000000	29.625864
1131.000000	29.200058
1130.000000	30.030794
1129.000000	32.125864
1128.000000	35.185115
1127.000000	38.698412
1126.000000	42.072690
1125.000000	44.763139
1124.000000	46.365036
1123.000000	46.660996
1122.000000	45.645756
1121.000000	43.522905
1120.000000	40.605426
1119.000000	37.226942
1118.000000	33.744245
1117.000000	30.622379
1116.000000	28.458333
1115.000000	27.804986
1114.000000	28.873391
1113.000000	31.380030
1112.000000	34.654999
1111.000000	37.866525
1110.000000	40.315892
1109.000000	41.710601
1108.000000	42.271565
1107.000000	42.554570
1106.000000	43.073343
1105.000000	44.013839
1104.000000	45.226196
1103.000000	46.384031
1102.000000	47.104550
1101.000000	47.047833
1100.000000	46.062609
1099.000000	44.366005
1098.000000	42.590097
1097.000000	41.563918
1096.000000	41.914599
1095.000000	43.756844
1094.000000	46.677719
1093.000000	50.014668
1092.000000	53.212996
1091.000000	55.985749
1090.000000	58.277133
1089.000000	60.150923
1088.000000	61.703673
1087.000000	63.025311
1086.000000	64.187299
1085.000000	65.236593
1084.000000	66.193605
1083.000000	67.067423
1082.000000	67.855870
1081.000000	68.550684
1080.000000	69.144395
1079.000000	69.629660
1078.000000	70.004995
1077.000000	70.258879
1076.000000	70.362511
1075.000000	70.270181
1074.000000	69.906559
1073.000000	69.177959
1072.000000	67.949911
1071.000000	66.045670
1070.000000	63.255003
1069.000000	59.335535
1068.000000	54.123995
1067.000000	47.698591
1066.000000	40.540536
1065.000000	33.542610
1064.000000	27.752084
1063.000000	23.899800
1062.000000	21.982687
1061.000000	21.240458
1060.000000	20.609085
1059.000000	19.385088
1058.000000	17.587608
1057.000000	15.889277
1056.000000	15.180814
1055.000000	16.027964
1054.000000	18.439796
1053.000000	21.973995
1052.000000	26.052962
1051.000000	30.209887
1050.000000	34.143976
1049.000000	37.720652
1048.000000	40.930384
1047.000000	43.821934
1046.000000	46.435203
1045.000000	48.784798
1044.000000	50.873647
1043.000000	52.710075
1042.000000	54.309553
1041.000000	55.686624
1040.000000	56.870133
1039.000000	57.894448
1038.000000	58.789499
1037.000000	59.577204
1036.000000	60.268680
1035.000000	60.871629
1034.000000	61.385454
1033.000000	61.807286
1032.000000	62.146185
1031.000000	62.423709
1030.000000	62.667713
1029.000000	62.899940
1028.000000	63.130597
1027.000000	63.356918
1026.000000	63.558128
1025.000000	63.703115
1024.000000	63.761335
1023.000000	63.709804
1022.000000	63.535360
1021.000000	63.223975
1020.000000	62.761494
1019.000000	62.126045
1018.000000	61.277112
1017.000000	60.160976
1016.000000	58.718038
1015.000000	56.918134
1014.000000	54.800044
1013.000000	52.504817
1012.000000	50.274800
1011.000000	48.374068
1010.000000	46.950303
1009.000000	45.937038
1008.000000	45.107500
1007.000000	44.264334
1006.000000	43.460608
1005.000000	43.044704
1004.000000	43.461758
1003.000000	44.937380
1002.000000	47.278681
1001.000000	49.983476
1000.000000	52.508607
999.000000	54.474058
998.000000	55.713253
997.000000	56.231982
996.000000	56.170770
995.000000	55.780919
994.000000	55.385580
993.000000	55.306820
992.000000	55.776109
991.000000	56.852925
990.000000	58.400912
989.000000	60.166916
988.000000	61.916661
987.000000	63.514432
986.000000	64.921355
985.000000	66.151472
984.000000	67.232276
983.000000	68.185673
982.000000	69.024322
981.000000	69.754684
980.000000	70.385268
979.000000	70.935993
978.000000	71.429371
977.000000	71.884355
976.000000	72.314663
975.000000	72.727980
974.000000	73.126202
973.000000	73.502969
972.000000	73.850463
971.000000	74.166550
970.000000	74.454168
969.000000	74.718425
968.000000	74.965678
967.000000	75.205731
966.000000	75.449130
965.000000	75.700450
964.000000	75.957120
963.000000	76.212468
962.000000	76.458343
961.000000	76.686130
960.000000	76.889774
959.000000	77.071030
958.000000	77.239721
957.000000	77.408923
956.000000	77.590692
955.000000	77.793453
954.000000	78.017895
953.000000	78.252694
952.000000	78.478345
951.000000	78.679391
950.000000	78.852856
949.000000	79.006382
948.000000	79.152306
947.000000	79.304216
946.000000	79.473017
945.000000	79.660288
944.000000	79.856676
943.000000	80.048989
942.000000	80.228590
941.000000	80.392830
940.000000	80.542099
939.000000	80.679650
938.000000	80.811304
937.000000	80.941319
936.000000	81.070346
935.000000	81.199444
934.000000	81.333616
933.000000	81.477478
932.000000	81.628957
931.000000	81.780487
930.000000	81.923636
929.000000	82.050367
928.000000	82.154489
927.000000	82.238412
926.000000	82.317344
925.000000	82.410889
924.000000	82.529501
923.000000	82.669588
922.000000	82.817736
921.000000	82.955916
920.000000	83.067091
919.000000	83.145506
918.000000	83.203329
917.000000	83.261923
916.000000	83.336553
915.000000	83.430486
914.000000	83.537708
913.000000	83.645149
912.000000	83.732674
911.000000	83.782586
910.000000	83.785307
909.000000	83.727931
908.000000	83.576996
907.000000	83.272151
906.000000	82.743425
905.000000	81.927615
904.000000	80.793161
903.000000	79.396490
902.000000	77.938897
901.000000	76.748009
900.000000	76.149684
899.000000	76.295305
898.000000	77.073994
897.000000	78.198116
896.000000	79.369437
895.000000	80.404343
894.000000	81.253425
893.000000	81.935549
892.000000	82.477278
891.000000	82.893634
890.000000	83.201462
889.000000	83.429194
888.000000	83.609932
887.000000	83.753478
886.000000	83.822523
885.000000	83.737495
884.000000	83.420159
883.000000	82.866503
882.000000	82.173099
881.000000	81.478249
880.000000	80.854789
879.000000	80.265921
878.000000	79.646773
877.000000	79.038044
876.000000	78.630128
875.000000	78.645155
874.000000	79.166647
873.000000	80.069567
872.000000	81.108969
871.000000	82.070015
870.000000	82.851714
869.000000	83.453748
868.000000	83.916621
867.000000	84.281707
866.000000	84.578975
865.000000	84.828029
864.000000	85.039363
863.000000	85.220870
862.000000	85.381297
861.000000	85.525208
860.000000	85.651283
859.000000	85.756484
858.000000	85.843170
857.000000	85.918218
856.000000	85.988361
855.000000	86.060396
854.000000	86.140941
853.000000	86.231146
852.000000	86.322459
851.000000	86.401848
850.000000	86.461299
849.000000	86.500705
848.000000	86.526242
847.000000	86.549842
846.000000	86.586026
845.000000	86.643207
844.000000	86.717886
843.000000	86.799279
842.000000	86.876685
841.000000	86.939934
840.000000	86.979261
839.000000	86.992773
838.000000	86.993026
837.000000	87.000216
836.000000	87.028546
835.000000	87.081209
834.000000	87.153497
833.000000	87.234655
832.000000	87.309421
831.000000	87.365348
830.000000	87.400764
829.000000	87.423846
828.000000	87.446127
827.000000	87.479646
826.000000	87.535032
825.000000	87.614282
824.000000	87.706319
823.000000	87.795160
822.000000	87.871303
821.000000	87.931022
820.000000	87.969842
819.000000	87.983654
818.000000	87.972552
817.000000	87.938098
816.000000	87.878486
815.000000	87.792477
814.000000	87.682754
813.000000	87.545987
812.000000	87.364618
811.000000	87.114966
810.000000	86.784983
809.000000	86.378976
808.000000	85.903497
807.000000	85.358153
806.000000	84.730025
805.000000	83.988145
804.000000	83.082948
803.000000	81.949205
802.000000	80.520964
801.000000	78.737114
800.000000	76.552927
799.000000	73.965282
798.000000	71.023352
797.000000	67.824932
796.000000	64.496149
795.000000	61.177183
794.000000	58.011580
793.000000	55.141168
792.000000	52.701420
791.000000	50.812133
790.000000	49.562675
789.000000	48.989403
788.000000	49.073205
787.000000	49.732619
786.000000	50.833996
785.000000	52.218430
784.000000	53.722209
783.000000	55.197075
782.000000	56.517537
781.000000	57.588335
780.000000	58.346263
779.000000	58.764953
778.000000	58.860641
777.000000	58.687534
776.000000	58.315388
775.000000	57.805964
774.000000	57.217712
773.000000	56.631912
772.000000	56.175023
771.000000	56.004104
770.000000	56.260696
769.000000	57.014933
768.000000	58.237982
767.000000	59.817321
766.000000	61.606081
765.000000	63.474555
764.000000	65.326955
763.000000	67.098824
762.000000	68.751396
761.000000	70.267802
760.000000	71.644542
759.000000	72.886093
758.000000	74.006360
757.000000	75.024514
756.000000	75.955037
755.000000	76.804252
754.000000	77.581182
753.000000	78.302081
752.000000	78.982009
751.000000	79.627863
750.000000	80.238275
749.000000	80.803752
748.000000	81.303813
747.000000	81.715926
746.000000	82.036544
745.000000	82.289453
744.000000	82.512429
743.000000	82.738820
742.000000	82.987273
741.000000	83.254474
740.000000	83.510870
739.000000	83.714097
738.000000	83.834555
737.000000	83.866611
736.000000	83.818821
735.000000	83.704483
734.000000	83.542762
733.000000	83.355176
732.000000	83.155064
731.000000	82.949019
730.000000	82.748813
729.000000	82.567701
728.000000	82.403035
727.000000	82.226941
726.000000	81.996224
725.000000	81.673350
724.000000	81.235283
723.000000	80.660601
722.000000	79.904991
721.000000	78.893672
720.000000	77.553127
719.000000	75.868821
718.000000	73.919079
717.000000	71.865721
716.000000	69.923758
715.000000	68.324107
714.000000	67.269034
713.000000	66.877059
712.000000	67.142027
711.000000	67.943742
710.000000	69.112408
709.000000	70.487076
708.000000	71.932941
707.000000	73.347493
706.000000	74.673438
705.000000	75.898451
704.000000	77.025657
703.000000	78.051875
702.000000	78.982487
701.000000	79.841684
700.000000	80.650772
699.000000	81.414913
698.000000	82.132175
697.000000	82.798691
696.000000	83.393169
695.000000	83.876432
694.000000	84.235805
693.000000	84.510236
692.000000	84.758226
691.000000	85.021308
690.000000	85.320756
689.000000	85.663490
688.000000	86.022460
687.000000	86.333225
686.000000	86.546158
685.000000	86.664546
684.000000	86.720119
683.000000	86.744504
682.000000	86.776542
681.000000	86.858063
680.000000	86.986157
679.000000	87.112215
678.000000	87.199424
677.000000	87.246131
676.000000	87.272134
675.000000	87.281631
674.000000	87.297202
673.000000	87.419967
672.000000	87.811882
671.000000	88.567444
670.000000	89.589502
669.000000	90.378887
668.000000	90.127651
667.000000	89.043867
666.000000	88.153284
665.000000	87.683623
664.000000	87.422680
663.000000	87.232577
662.000000	87.071309
661.000000	86.954426
660.000000	86.904743
659.000000	86.955421
658.000000	87.099562
657.000000	87.250988
656.000000	87.322146
655.000000	87.297625
654.000000	87.203293
653.000000	87.066523
652.000000	86.935016
651.000000	86.869008
650.000000	86.870066
649.000000	86.861654
648.000000	86.782186
647.000000	86.651551
646.000000	86.518138
645.000000	86.396621
644.000000	86.278535
643.000000	86.155112
642.000000	86.002623
641.000000	85.782793
640.000000	85.498609
639.000000	85.221119
638.000000	85.024902
637.000000	84.921373
636.000000	84.871868
635.000000	84.820540
634.000000	84.697605
633.000000	84.440950
632.000000	84.054212
631.000000	83.624426
630.000000	83.253939
629.000000	82.985975
628.000000	82.806564
627.000000	82.672381
626.000000	82.510194
625.000000	82.243031
624.000000	81.849717
623.000000	81.383547
622.000000	80.917163
621.000000	80.487331
620.000000	80.095556
619.000000	79.715962
618.000000	79.287252
617.000000	78.744926
616.000000	78.093701
615.000000	77.405068
614.000000	76.717740
613.000000	75.984294
612.000000	75.136243
611.000000	74.157391
610.000000	73.064758
609.000000	71.866464
608.000000	70.584332
607.000000	69.265587
606.000000	67.916988
605.000000	66.469055
604.000000	64.846495
603.000000	63.043892
602.000000	61.094896
601.000000	59.023395
600.000000	56.876242
599.000000	54.747331
598.000000	52.697617
597.000000	50.698615
596.000000	48.713554
595.000000	46.773216
594.000000	44.916002
593.000000	43.120284
592.000000	41.377428
591.000000	39.758033
590.000000	38.329066
589.000000	37.075580
588.000000	35.963510
587.000000	34.993658
586.000000	34.116911
585.000000	33.191475
584.000000	32.119183
583.000000	30.950886
582.000000	29.796803
581.000000	28.729334
580.000000	27.842855
579.000000	27.308332
578.000000	27.249028
577.000000	27.644644
576.000000	28.408983
575.000000	29.449412
574.000000	30.604801
573.000000	31.645722
572.000000	32.445790
571.000000	33.095230
570.000000	33.795769
569.000000	34.699806
568.000000	35.873608
567.000000	37.304188
566.000000	38.861197
565.000000	40.339680
564.000000	41.613603
563.000000	42.698648
562.000000	43.650224
561.000000	44.484757
560.000000	45.232241
559.000000	45.968195
558.000000	46.734463
557.000000	47.496456
556.000000	48.222119
555.000000	48.941947
554.000000	49.683789
553.000000	50.421393
552.000000	51.132618
551.000000	51.840766
550.000000	52.555150
549.000000	53.235640
548.000000	53.863543
547.000000	54.485550
546.000000	55.141514
545.000000	55.803056
544.000000	56.425870
543.000000	57.005327
542.000000	57.545066
541.000000	58.028773
540.000000	58.467953
539.000000	58.922585
538.000000	59.429989
537.000000	59.953969
536.000000	60.435986
535.000000	60.854911
534.000000	61.204010
533.000000	61.468719
532.000000	61.659929
531.000000	61.829554
530.000000	62.011697
529.000000	62.172666
528.000000	62.243103
527.000000	62.176110
526.000000	61.937876
525.000000	61.493424
524.000000	60.849519
523.000000	60.078478
522.000000	59.279406
521.000000	58.522416
520.000000	57.833918
519.000000	57.172590
518.000000	56.369135
517.000000	55.160314
516.000000	53.363307
515.000000	51.029425
514.000000	48.420510
513.000000	45.893231
512.000000	43.819280
511.000000	42.521178
510.000000	42.155622
509.000000	42.671274
508.000000	43.926738
507.000000	45.751672
506.000000	47.903351
505.000000	50.106269
504.000000	52.190258
503.000000	54.128792
502.000000	55.921134
501.000000	57.537643
500.000000	58.984258
499.000000	60.321653
498.000000	61.571680
497.000000	62.682346
496.000000	63.610298
495.000000	64.384107
494.000000	65.069512
493.000000	65.705489
492.000000	66.314085
491.000000	66.922961
490.000000	67.532500
489.000000	68.108720
488.000000	68.625579
487.000000	69.093429
486.000000	69.523790
485.000000	69.897492
484.000000	70.197137
483.000000	70.434415
482.000000	70.621402
481.000000	70.753918
480.000000	70.853120
479.000000	70.975129
478.000000	71.126176
477.000000	71.218333
476.000000	71.143992
475.000000	70.840610
474.000000	70.257757
473.000000	69.337747
472.000000	68.116008
471.000000	66.791939
470.000000	65.601713
469.000000	64.695051
468.000000	64.158839
467.000000	63.995969
466.000000	63.997163
465.000000	63.778589
464.000000	63.046197
463.000000	61.833736
462.000000	60.515635
461.000000	59.599618
460.000000	59.532489
459.000000	60.570868
458.000000	62.590113
457.000000	65.021563
456.000000	67.251198
455.000000	69.048646
454.000000	70.450420
453.000000	71.486487
452.000000	72.171290
451.000000	72.604060
450.000000	72.876535
449.000000	72.953000
448.000000	72.722377
447.000000	72.110675
446.000000	71.121435
445.000000	69.849773
444.000000	68.549411
443.000000	67.616366
442.000000	67.352408
441.000000	67.749768
440.000000	68.606588
439.000000	69.719044
438.000000	70.885499
437.000000	71.885141
436.000000	72.579511
435.000000	72.994183
434.000000	73.220716
433.000000	73.306835
432.000000	73.297770
431.000000	73.288763
430.000000	73.343595
429.000000	73.414877
428.000000	73.438315
427.000000	73.425707
426.000000	73.382805
425.000000	73.224719
424.000000	72.900036
423.000000	72.526856
422.000000	72.244273
421.000000	72.032927
420.000000	71.829172
419.000000	71.736286
418.000000	71.876504
417.000000	72.094520
416.000000	72.189499
415.000000	72.171633
414.000000	72.109059
413.000000	71.988223
412.000000	71.832147
411.000000	71.803453
410.000000	72.032523
409.000000	72.410866
408.000000	72.751832
407.000000	73.030863
406.000000	73.282593
405.000000	73.419510
404.000000	73.392115
403.000000	73.355879
402.000000	73.489332
401.000000	73.732219
400.000000	73.937650
