PE IR       SUBTECH     SPECTRUM    ASCII       PEDS        4.00        
   -1
23MS145cis.asc
24/10/17
16:01:06.00
24/10/17
16:01:06.00
Administrator
Sample 1294 By Administrator Date Thursday, October 17 2024
400.000000
#HDR
-1
-1
#GR
cm-1
%T
1.0
0.0
4000.000000
-1.000000
3601
8
94.822863
17.310012
#DATA
4000.000000	78.486452
3999.000000	78.475285
3998.000000	78.469716
3997.000000	78.468839
3996.000000	78.470111
3995.000000	78.470714
3994.000000	78.469309
3993.000000	78.466724
3992.000000	78.465095
3991.000000	78.465753
3990.000000	78.467805
3989.000000	78.470034
3988.000000	78.473609
3987.000000	78.481608
3986.000000	78.496607
3985.000000	78.518820
3984.000000	78.546488
3983.000000	78.576933
3982.000000	78.607491
3981.000000	78.636563
3980.000000	78.663700
3979.000000	78.690150
3978.000000	78.718729
3977.000000	78.751431
3976.000000	78.787821
3975.000000	78.824646
3974.000000	78.858176
3973.000000	78.887253
3972.000000	78.913637
3971.000000	78.941060
3970.000000	78.971593
3969.000000	79.004280
3968.000000	79.036975
3967.000000	79.067903
3966.000000	79.096933
3965.000000	79.126181
3964.000000	79.159108
3963.000000	79.197439
3962.000000	79.240733
3961.000000	79.286356
3960.000000	79.331786
3959.000000	79.378276
3958.000000	79.427246
3957.000000	79.477980
3956.000000	79.528848
3955.000000	79.578302
3954.000000	79.625439
3953.000000	79.667143
3952.000000	79.698911
3951.000000	79.718536
3950.000000	79.728832
3949.000000	79.738111
3948.000000	79.755187
3947.000000	79.783629
3946.000000	79.821802
3945.000000	79.867906
3944.000000	79.919429
3943.000000	79.965671
3942.000000	79.996192
3941.000000	80.013498
3940.000000	80.030947
3939.000000	80.063667
3938.000000	80.110849
3937.000000	80.154319
3936.000000	80.179174
3935.000000	80.188498
3934.000000	80.202631
3933.000000	80.234727
3932.000000	80.279943
3931.000000	80.323929
3930.000000	80.353941
3929.000000	80.373207
3928.000000	80.392000
3927.000000	80.419438
3926.000000	80.455582
3925.000000	80.483441
3924.000000	80.485368
3923.000000	80.461773
3922.000000	80.427143
3921.000000	80.396973
3920.000000	80.378618
3919.000000	80.374842
3918.000000	80.389033
3917.000000	80.421645
3916.000000	80.465787
3915.000000	80.507653
3914.000000	80.542827
3913.000000	80.578689
3912.000000	80.620596
3911.000000	80.669114
3910.000000	80.716333
3909.000000	80.754691
3908.000000	80.784277
3907.000000	80.796988
3906.000000	80.776217
3905.000000	80.704018
3904.000000	80.587552
3903.000000	80.472930
3902.000000	80.410129
3901.000000	80.423390
3900.000000	80.501808
3899.000000	80.606078
3898.000000	80.702381
3897.000000	80.782781
3896.000000	80.853505
3895.000000	80.926376
3894.000000	81.003147
3893.000000	81.076914
3892.000000	81.132518
3891.000000	81.156539
3890.000000	81.142293
3889.000000	81.094008
3888.000000	81.050852
3887.000000	81.069810
3886.000000	81.157548
3885.000000	81.254599
3884.000000	81.302410
3883.000000	81.305072
3882.000000	81.307266
3881.000000	81.335342
3880.000000	81.375424
3879.000000	81.400627
3878.000000	81.403966
3877.000000	81.407922
3876.000000	81.445136
3875.000000	81.512369
3874.000000	81.553501
3873.000000	81.519702
3872.000000	81.436640
3871.000000	81.379548
3870.000000	81.387088
3869.000000	81.429722
3868.000000	81.455707
3867.000000	81.459262
3866.000000	81.482710
3865.000000	81.538248
3864.000000	81.588590
3863.000000	81.607786
3862.000000	81.610522
3861.000000	81.634833
3860.000000	81.705794
3859.000000	81.823951
3858.000000	81.979984
3857.000000	82.149648
3856.000000	82.286090
3855.000000	82.315913
3854.000000	82.203670
3853.000000	82.049953
3852.000000	81.972289
3851.000000	81.956853
3850.000000	81.952688
3849.000000	81.962360
3848.000000	81.994734
3847.000000	82.049268
3846.000000	82.115517
3845.000000	82.178829
3844.000000	82.228271
3843.000000	82.252138
3842.000000	82.244647
3841.000000	82.227723
3840.000000	82.217941
3839.000000	82.209694
3838.000000	82.206594
3837.000000	82.218449
3836.000000	82.243618
3835.000000	82.266953
3834.000000	82.286646
3833.000000	82.322016
3832.000000	82.380446
3831.000000	82.446306
3830.000000	82.505328
3829.000000	82.557751
3828.000000	82.614700
3827.000000	82.682125
3826.000000	82.734350
3825.000000	82.741376
3824.000000	82.708830
3823.000000	82.687255
3822.000000	82.717931
3821.000000	82.769130
3820.000000	82.780904
3819.000000	82.741510
3818.000000	82.701031
3817.000000	82.725093
3816.000000	82.821139
3815.000000	82.932539
3814.000000	83.015359
3813.000000	83.067732
3812.000000	83.104388
3811.000000	83.137418
3810.000000	83.168901
3809.000000	83.198561
3808.000000	83.233915
3807.000000	83.272686
3806.000000	83.290559
3805.000000	83.274809
3804.000000	83.243331
3803.000000	83.255049
3802.000000	83.322741
3801.000000	83.383970
3800.000000	83.390462
3799.000000	83.353792
3798.000000	83.324579
3797.000000	83.342998
3796.000000	83.404459
3795.000000	83.477486
3794.000000	83.546087
3793.000000	83.612973
3792.000000	83.680506
3791.000000	83.746787
3790.000000	83.805025
3789.000000	83.848072
3788.000000	83.876818
3787.000000	83.899143
3786.000000	83.922549
3785.000000	83.944591
3784.000000	83.952322
3783.000000	83.939986
3782.000000	83.921442
3781.000000	83.918174
3780.000000	83.934318
3779.000000	83.956297
3778.000000	83.974136
3777.000000	83.992873
3776.000000	84.022011
3775.000000	84.062960
3774.000000	84.102762
3773.000000	84.123374
3772.000000	84.125233
3771.000000	84.127928
3770.000000	84.137697
3769.000000	84.141396
3768.000000	84.133634
3767.000000	84.134924
3766.000000	84.175845
3765.000000	84.247114
3764.000000	84.305350
3763.000000	84.329685
3762.000000	84.343100
3761.000000	84.376471
3760.000000	84.418910
3759.000000	84.445730
3758.000000	84.459083
3757.000000	84.471025
3756.000000	84.484045
3755.000000	84.493923
3754.000000	84.506346
3753.000000	84.524766
3752.000000	84.528912
3751.000000	84.512361
3750.000000	84.509493
3749.000000	84.533182
3748.000000	84.545220
3747.000000	84.532074
3746.000000	84.543218
3745.000000	84.621630
3744.000000	84.741312
3743.000000	84.840226
3742.000000	84.873720
3741.000000	84.852093
3740.000000	84.817013
3739.000000	84.798416
3738.000000	84.815716
3737.000000	84.874332
3736.000000	84.956519
3735.000000	85.009439
3734.000000	85.018535
3733.000000	85.043458
3732.000000	85.127423
3731.000000	85.241186
3730.000000	85.325691
3729.000000	85.366955
3728.000000	85.405743
3727.000000	85.469784
3726.000000	85.538061
3725.000000	85.578252
3724.000000	85.594275
3723.000000	85.608141
3722.000000	85.626632
3721.000000	85.652832
3720.000000	85.686237
3719.000000	85.729921
3718.000000	85.783982
3717.000000	85.832928
3716.000000	85.862732
3715.000000	85.873629
3714.000000	85.885076
3713.000000	85.913987
3712.000000	85.946998
3711.000000	85.965748
3710.000000	85.982683
3709.000000	86.028587
3708.000000	86.111870
3707.000000	86.211988
3706.000000	86.306583
3705.000000	86.387032
3704.000000	86.458255
3703.000000	86.522185
3702.000000	86.574390
3701.000000	86.612860
3700.000000	86.638044
3699.000000	86.654059
3698.000000	86.680579
3697.000000	86.731238
3696.000000	86.790239
3695.000000	86.831333
3694.000000	86.848295
3693.000000	86.861450
3692.000000	86.875965
3691.000000	86.863905
3690.000000	86.802829
3689.000000	86.739144
3688.000000	86.742557
3687.000000	86.802022
3686.000000	86.862046
3685.000000	86.904474
3684.000000	86.941457
3683.000000	86.981605
3682.000000	87.031145
3681.000000	87.088081
3680.000000	87.136800
3679.000000	87.137244
3678.000000	87.075364
3677.000000	87.002309
3676.000000	86.970344
3675.000000	86.976249
3674.000000	86.963739
3673.000000	86.899523
3672.000000	86.833855
3671.000000	86.853775
3670.000000	86.956098
3669.000000	87.065636
3668.000000	87.147541
3667.000000	87.209928
3666.000000	87.266069
3665.000000	87.329960
3664.000000	87.400350
3663.000000	87.468802
3662.000000	87.524379
3661.000000	87.550049
3660.000000	87.540740
3659.000000	87.505164
3658.000000	87.468787
3657.000000	87.456210
3656.000000	87.464445
3655.000000	87.462683
3654.000000	87.411324
3653.000000	87.311157
3652.000000	87.214208
3651.000000	87.156833
3650.000000	87.112499
3649.000000	87.063266
3648.000000	87.063912
3647.000000	87.146217
3646.000000	87.261752
3645.000000	87.360905
3644.000000	87.445064
3643.000000	87.539604
3642.000000	87.641172
3641.000000	87.721153
3640.000000	87.768529
3639.000000	87.795032
3638.000000	87.807458
3637.000000	87.798984
3636.000000	87.776509
3635.000000	87.763625
3634.000000	87.759896
3633.000000	87.729805
3632.000000	87.642774
3631.000000	87.522299
3630.000000	87.426935
3629.000000	87.382707
3628.000000	87.371746
3627.000000	87.373534
3626.000000	87.368316
3625.000000	87.356613
3624.000000	87.349970
3623.000000	87.343750
3622.000000	87.325576
3621.000000	87.290425
3620.000000	87.229422
3619.000000	87.130560
3618.000000	87.000447
3617.000000	86.856468
3616.000000	86.715868
3615.000000	86.595221
3614.000000	86.494223
3613.000000	86.392270
3612.000000	86.273284
3611.000000	86.147084
3610.000000	86.048439
3609.000000	86.008119
3608.000000	86.008239
3607.000000	86.000595
3606.000000	85.958429
3605.000000	85.888420
3604.000000	85.813169
3603.000000	85.740972
3602.000000	85.665701
3601.000000	85.581626
3600.000000	85.485005
3599.000000	85.372224
3598.000000	85.248591
3597.000000	85.124508
3596.000000	85.009901
3595.000000	84.901529
3594.000000	84.783771
3593.000000	84.648786
3592.000000	84.495625
3591.000000	84.332956
3590.000000	84.188978
3589.000000	84.100421
3588.000000	84.069108
3587.000000	84.058932
3586.000000	84.042512
3585.000000	84.021628
3584.000000	84.005900
3583.000000	83.995906
3582.000000	83.986132
3581.000000	83.969763
3580.000000	83.940950
3579.000000	83.893765
3578.000000	83.827332
3577.000000	83.749014
3576.000000	83.665892
3575.000000	83.580990
3574.000000	83.490314
3573.000000	83.387139
3572.000000	83.261709
3571.000000	83.104508
3570.000000	82.921855
3569.000000	82.746037
3568.000000	82.605920
3567.000000	82.495689
3566.000000	82.390107
3565.000000	82.276679
3564.000000	82.158724
3563.000000	82.046180
3562.000000	81.942411
3561.000000	81.840327
3560.000000	81.727955
3559.000000	81.596742
3558.000000	81.446442
3557.000000	81.282914
3556.000000	81.111050
3555.000000	80.932145
3554.000000	80.745616
3553.000000	80.549483
3552.000000	80.340522
3551.000000	80.114001
3550.000000	79.867279
3549.000000	79.608885
3548.000000	79.353643
3547.000000	79.109281
3546.000000	78.869197
3545.000000	78.623476
3544.000000	78.369604
3543.000000	78.110935
3542.000000	77.849041
3541.000000	77.582434
3540.000000	77.306758
3539.000000	77.014162
3538.000000	76.698602
3537.000000	76.360028
3536.000000	76.003576
3535.000000	75.631497
3534.000000	75.242793
3533.000000	74.838967
3532.000000	74.422642
3531.000000	73.990730
3530.000000	73.532354
3529.000000	73.040615
3528.000000	72.519706
3527.000000	71.978748
3526.000000	71.424665
3525.000000	70.863400
3524.000000	70.298790
3523.000000	69.726396
3522.000000	69.135093
3521.000000	68.518363
3520.000000	67.879269
3519.000000	67.220508
3518.000000	66.538546
3517.000000	65.829915
3516.000000	65.098362
3515.000000	64.350254
3514.000000	63.587399
3513.000000	62.807848
3512.000000	62.008955
3511.000000	61.186758
3510.000000	60.338503
3509.000000	59.470233
3508.000000	58.594029
3507.000000	57.714836
3506.000000	56.825239
3505.000000	55.916063
3504.000000	54.987455
3503.000000	54.048914
3502.000000	53.112558
3501.000000	52.187641
3500.000000	51.276849
3499.000000	50.373979
3498.000000	49.469679
3497.000000	48.561019
3496.000000	47.653574
3495.000000	46.753777
3494.000000	45.864718
3493.000000	44.989859
3492.000000	44.133059
3491.000000	43.292502
3490.000000	42.462057
3489.000000	41.642113
3488.000000	40.843204
3487.000000	40.076506
3486.000000	39.346017
3485.000000	38.649741
3484.000000	37.980893
3483.000000	37.328262
3482.000000	36.684722
3481.000000	36.058597
3480.000000	35.468127
3479.000000	34.921366
3478.000000	34.408700
3477.000000	33.915319
3476.000000	33.432156
3475.000000	32.954853
3474.000000	32.481258
3473.000000	32.013971
3472.000000	31.560248
3471.000000	31.127472
3470.000000	30.724845
3469.000000	30.368204
3468.000000	30.075016
3467.000000	29.852803
3466.000000	29.697851
3465.000000	29.605184
3464.000000	29.572151
3463.000000	29.594694
3462.000000	29.670618
3461.000000	29.805672
3460.000000	30.008161
3459.000000	30.275218
3458.000000	30.590595
3457.000000	30.936102
3456.000000	31.297429
3455.000000	31.659466
3454.000000	32.005677
3453.000000	32.322283
3452.000000	32.597548
3451.000000	32.817563
3450.000000	32.966570
3449.000000	33.033397
3448.000000	33.013263
3447.000000	32.904621
3446.000000	32.712217
3445.000000	32.448625
3444.000000	32.127769
3443.000000	31.758737
3442.000000	31.348322
3441.000000	30.909907
3440.000000	30.463358
3439.000000	30.027979
3438.000000	29.622213
3437.000000	29.267316
3436.000000	28.983494
3435.000000	28.780473
3434.000000	28.656264
3433.000000	28.604769
3432.000000	28.623997
3431.000000	28.716973
3430.000000	28.890903
3429.000000	29.155876
3428.000000	29.516458
3427.000000	29.968983
3426.000000	30.506483
3425.000000	31.125385
3424.000000	31.825698
3423.000000	32.603382
3422.000000	33.451695
3421.000000	34.364595
3420.000000	35.334487
3419.000000	36.349782
3418.000000	37.396144
3417.000000	38.462097
3416.000000	39.538774
3415.000000	40.617049
3414.000000	41.689731
3413.000000	42.753034
3412.000000	43.802360
3411.000000	44.829126
3410.000000	45.825284
3409.000000	46.788458
3408.000000	47.718692
3407.000000	48.611313
3406.000000	49.458743
3405.000000	50.257915
3404.000000	51.011889
3403.000000	51.727089
3402.000000	52.412739
3401.000000	53.080468
3400.000000	53.738137
3399.000000	54.382136
3398.000000	55.000574
3397.000000	55.584537
3396.000000	56.133077
3395.000000	56.650755
3394.000000	57.144592
3393.000000	57.624023
3392.000000	58.098135
3391.000000	58.570361
3390.000000	59.039107
3389.000000	59.501534
3388.000000	59.954884
3387.000000	60.395770
3386.000000	60.822150
3385.000000	61.235828
3384.000000	61.639748
3383.000000	62.034587
3382.000000	62.421071
3381.000000	62.803192
3380.000000	63.185029
3379.000000	63.566092
3378.000000	63.943760
3377.000000	64.318806
3376.000000	64.693165
3375.000000	65.064077
3374.000000	65.425450
3373.000000	65.774924
3372.000000	66.115636
3371.000000	66.451549
3370.000000	66.785651
3369.000000	67.121364
3368.000000	67.461026
3367.000000	67.802581
3366.000000	68.141048
3365.000000	68.473152
3364.000000	68.798061
3363.000000	69.115406
3362.000000	69.426200
3361.000000	69.734187
3360.000000	70.042535
3359.000000	70.349617
3358.000000	70.651061
3357.000000	70.944910
3356.000000	71.231161
3355.000000	71.508671
3354.000000	71.776575
3353.000000	72.038229
3352.000000	72.299899
3351.000000	72.565150
3350.000000	72.832727
3349.000000	73.098875
3348.000000	73.358929
3347.000000	73.607831
3346.000000	73.843383
3345.000000	74.068826
3344.000000	74.289507
3343.000000	74.506961
3342.000000	74.718890
3341.000000	74.924108
3340.000000	75.124574
3339.000000	75.322951
3338.000000	75.520117
3337.000000	75.714811
3336.000000	75.903133
3335.000000	76.079425
3334.000000	76.240275
3333.000000	76.386711
3332.000000	76.521135
3331.000000	76.642741
3330.000000	76.748031
3329.000000	76.835002
3328.000000	76.903779
3327.000000	76.954693
3326.000000	76.987577
3325.000000	77.001654
3324.000000	76.994259
3323.000000	76.959348
3322.000000	76.890718
3321.000000	76.785518
3320.000000	76.642031
3319.000000	76.456983
3318.000000	76.224953
3317.000000	75.941512
3316.000000	75.602091
3315.000000	75.198628
3314.000000	74.721982
3313.000000	74.163732
3312.000000	73.515583
3311.000000	72.768507
3310.000000	71.913099
3309.000000	70.945535
3308.000000	69.863875
3307.000000	68.663840
3306.000000	67.340651
3305.000000	65.888118
3304.000000	64.300239
3303.000000	62.566323
3302.000000	60.675925
3301.000000	58.626922
3300.000000	56.423280
3299.000000	54.076505
3298.000000	51.612047
3297.000000	49.075330
3296.000000	46.526316
3295.000000	44.025116
3294.000000	41.628250
3293.000000	39.391298
3292.000000	37.360796
3291.000000	35.557023
3290.000000	33.974095
3289.000000	32.587218
3288.000000	31.361409
3287.000000	30.258035
3286.000000	29.240358
3285.000000	28.285504
3284.000000	27.380287
3283.000000	26.517216
3282.000000	25.700392
3281.000000	24.948003
3280.000000	24.287691
3279.000000	23.745390
3278.000000	23.345402
3277.000000	23.115672
3276.000000	23.077417
3275.000000	23.235209
3274.000000	23.576016
3273.000000	24.072936
3272.000000	24.686704
3271.000000	25.360518
3270.000000	26.026641
3269.000000	26.617245
3268.000000	27.069642
3267.000000	27.331728
3266.000000	27.374735
3265.000000	27.200300
3264.000000	26.834639
3263.000000	26.321243
3262.000000	25.715456
3261.000000	25.083990
3260.000000	24.492618
3259.000000	23.993738
3258.000000	23.627578
3257.000000	23.426755
3256.000000	23.409595
3255.000000	23.573464
3254.000000	23.900113
3253.000000	24.361652
3252.000000	24.924933
3251.000000	25.548938
3250.000000	26.191947
3249.000000	26.821189
3248.000000	27.410257
3247.000000	27.935900
3246.000000	28.380025
3245.000000	28.733486
3244.000000	28.993268
3243.000000	29.161298
3242.000000	29.246056
3241.000000	29.263841
3240.000000	29.231789
3239.000000	29.159641
3238.000000	29.055200
3237.000000	28.928175
3236.000000	28.787777
3235.000000	28.640552
3234.000000	28.492809
3233.000000	28.351302
3232.000000	28.213844
3231.000000	28.065460
3230.000000	27.889720
3229.000000	27.679085
3228.000000	27.431938
3227.000000	27.145061
3226.000000	26.816107
3225.000000	26.449126
3224.000000	26.049756
3223.000000	25.620615
3222.000000	25.165823
3221.000000	24.696674
3220.000000	24.227364
3219.000000	23.767416
3218.000000	23.323131
3217.000000	22.900465
3216.000000	22.500816
3215.000000	22.118262
3214.000000	21.746444
3213.000000	21.383550
3212.000000	21.026750
3211.000000	20.668084
3210.000000	20.301585
3209.000000	19.930364
3208.000000	19.561199
3207.000000	19.197837
3206.000000	18.845009
3205.000000	18.512534
3204.000000	18.210243
3203.000000	17.942861
3202.000000	17.714744
3201.000000	17.534536
3200.000000	17.407989
3199.000000	17.333792
3198.000000	17.310012
3197.000000	17.339311
3196.000000	17.423795
3195.000000	17.557924
3194.000000	17.735529
3193.000000	17.955451
3192.000000	18.215543
3191.000000	18.509185
3190.000000	18.830076
3189.000000	19.177653
3188.000000	19.551091
3187.000000	19.943317
3186.000000	20.347596
3185.000000	20.762867
3184.000000	21.189083
3183.000000	21.622295
3182.000000	22.059285
3181.000000	22.502030
3180.000000	22.951487
3179.000000	23.402827
3178.000000	23.851020
3177.000000	24.295945
3176.000000	24.737595
3175.000000	25.171603
3174.000000	25.594234
3173.000000	26.006389
3172.000000	26.408709
3171.000000	26.797398
3170.000000	27.169720
3169.000000	27.528155
3168.000000	27.874597
3167.000000	28.206465
3166.000000	28.521495
3165.000000	28.821582
3164.000000	29.107308
3163.000000	29.373722
3162.000000	29.616910
3161.000000	29.838310
3160.000000	30.039705
3159.000000	30.219238
3158.000000	30.375884
3157.000000	30.513887
3156.000000	30.637721
3155.000000	30.748976
3154.000000	30.852189
3153.000000	30.957445
3152.000000	31.072846
3151.000000	31.198429
3150.000000	31.331625
3149.000000	31.473407
3148.000000	31.625051
3147.000000	31.784385
3146.000000	31.949996
3145.000000	32.124171
3144.000000	32.307457
3143.000000	32.495517
3142.000000	32.684976
3141.000000	32.877435
3140.000000	33.073509
3139.000000	33.268051
3138.000000	33.455364
3137.000000	33.633893
3136.000000	33.801400
3135.000000	33.950314
3134.000000	34.072841
3133.000000	34.164729
3132.000000	34.220871
3131.000000	34.231615
3130.000000	34.187022
3129.000000	34.082335
3128.000000	33.913993
3127.000000	33.678801
3126.000000	33.380583
3125.000000	33.032278
3124.000000	32.649882
3123.000000	32.246354
3122.000000	31.835659
3121.000000	31.434632
3120.000000	31.055102
3119.000000	30.699363
3118.000000	30.366493
3117.000000	30.058165
3116.000000	29.774078
3115.000000	29.508495
3114.000000	29.255522
3113.000000	29.013355
3112.000000	28.779773
3111.000000	28.550055
3110.000000	28.324655
3109.000000	28.112175
3108.000000	27.921219
3107.000000	27.754772
3106.000000	27.615224
3105.000000	27.509957
3104.000000	27.445835
3103.000000	27.425455
3102.000000	27.453159
3101.000000	27.537202
3100.000000	27.684369
3099.000000	27.894552
3098.000000	28.165961
3097.000000	28.499756
3096.000000	28.893575
3095.000000	29.339942
3094.000000	29.832163
3093.000000	30.368010
3092.000000	30.944592
3091.000000	31.553483
3090.000000	32.186545
3089.000000	32.838568
3088.000000	33.502195
3087.000000	34.167066
3086.000000	34.826658
3085.000000	35.481496
3084.000000	36.131421
3083.000000	36.770842
3082.000000	37.394787
3081.000000	38.003910
3080.000000	38.600069
3079.000000	39.182114
3078.000000	39.749421
3077.000000	40.303217
3076.000000	40.842005
3075.000000	41.360215
3074.000000	41.854881
3073.000000	42.329030
3072.000000	42.785010
3071.000000	43.221153
3070.000000	43.637120
3069.000000	44.037659
3068.000000	44.427721
3067.000000	44.807387
3066.000000	45.175463
3065.000000	45.533126
3064.000000	45.881165
3063.000000	46.218238
3062.000000	46.544009
3061.000000	46.860803
3060.000000	47.169382
3059.000000	47.467290
3058.000000	47.754210
3057.000000	48.034057
3056.000000	48.309879
3055.000000	48.580350
3054.000000	48.843882
3053.000000	49.102569
3052.000000	49.358880
3051.000000	49.612695
3050.000000	49.863512
3049.000000	50.111877
3048.000000	50.356811
3047.000000	50.595466
3046.000000	50.827771
3045.000000	51.057534
3044.000000	51.286827
3043.000000	51.513732
3042.000000	51.737285
3041.000000	51.959936
3040.000000	52.182440
3039.000000	52.400602
3038.000000	52.610924
3037.000000	52.815593
3036.000000	53.019402
3035.000000	53.225138
3034.000000	53.433998
3033.000000	53.646611
3032.000000	53.860631
3031.000000	54.071348
3030.000000	54.277255
3029.000000	54.481174
3028.000000	54.684182
3027.000000	54.883079
3026.000000	55.076137
3025.000000	55.266506
3024.000000	55.456532
3023.000000	55.643080
3022.000000	55.821314
3021.000000	55.989017
3020.000000	56.144317
3019.000000	56.281711
3018.000000	56.393860
3017.000000	56.474577
3016.000000	56.518757
3015.000000	56.524477
3014.000000	56.498689
3013.000000	56.459979
3012.000000	56.432785
3011.000000	56.440408
3010.000000	56.501798
3009.000000	56.627775
3008.000000	56.815147
3007.000000	57.046325
3006.000000	57.297090
3005.000000	57.542879
3004.000000	57.757962
3003.000000	57.913476
3002.000000	57.980605
3001.000000	57.934296
3000.000000	57.758268
2999.000000	57.455709
2998.000000	57.063594
2997.000000	56.654710
2996.000000	56.319000
2995.000000	56.136560
2994.000000	56.154981
2993.000000	56.378019
2992.000000	56.764317
2991.000000	57.244876
2990.000000	57.750745
2989.000000	58.232862
2988.000000	58.664698
2987.000000	59.035723
2986.000000	59.347450
2985.000000	59.607788
2984.000000	59.823676
2983.000000	59.997129
2982.000000	60.129595
2981.000000	60.224057
2980.000000	60.280536
2979.000000	60.292650
2978.000000	60.251837
2977.000000	60.155247
2976.000000	60.008111
2975.000000	59.825038
2974.000000	59.630994
2973.000000	59.456935
2972.000000	59.329054
2971.000000	59.258948
2970.000000	59.240966
2969.000000	59.250688
2968.000000	59.243548
2967.000000	59.164556
2966.000000	58.972007
2965.000000	58.658518
2964.000000	58.253519
2963.000000	57.810138
2962.000000	57.389603
2961.000000	57.046219
2960.000000	56.816529
2959.000000	56.716562
2958.000000	56.748845
2957.000000	56.905769
2956.000000	57.166849
2955.000000	57.500402
2954.000000	57.871827
2953.000000	58.248760
2952.000000	58.596619
2951.000000	58.880508
2950.000000	59.077338
2949.000000	59.187244
2948.000000	59.229460
2947.000000	59.225600
2946.000000	59.180158
2945.000000	59.061407
2944.000000	58.799198
2943.000000	58.317588
2942.000000	57.600856
2941.000000	56.745818
2940.000000	55.953998
2939.000000	55.456585
2938.000000	55.412280
2937.000000	55.840879
2936.000000	56.625079
2935.000000	57.579287
2934.000000	58.534634
2933.000000	59.389016
2932.000000	60.106396
2931.000000	60.693162
2930.000000	61.176513
2929.000000	61.586915
2928.000000	61.947381
2927.000000	62.270223
2926.000000	62.563655
2925.000000	62.835387
2924.000000	63.089763
2923.000000	63.326315
2922.000000	63.544232
2921.000000	63.744623
2920.000000	63.927010
2919.000000	64.088919
2918.000000	64.229852
2917.000000	64.352220
2916.000000	64.457152
2915.000000	64.543577
2914.000000	64.612907
2913.000000	64.669951
2912.000000	64.717945
2911.000000	64.756365
2910.000000	64.784578
2909.000000	64.802830
2908.000000	64.807664
2907.000000	64.789359
2906.000000	64.735893
2905.000000	64.634578
2904.000000	64.469563
2903.000000	64.221832
2902.000000	63.881256
2901.000000	63.452610
2900.000000	62.957942
2899.000000	62.438697
2898.000000	61.953134
2897.000000	61.566592
2896.000000	61.329601
2895.000000	61.261840
2894.000000	61.352885
2893.000000	61.571214
2892.000000	61.874257
2891.000000	62.218669
2890.000000	62.571701
2889.000000	62.914064
2888.000000	63.234522
2887.000000	63.525678
2886.000000	63.784974
2885.000000	64.014870
2884.000000	64.217463
2883.000000	64.392757
2882.000000	64.542737
2881.000000	64.673271
2880.000000	64.790102
2879.000000	64.896237
2878.000000	64.994598
2877.000000	65.089159
2876.000000	65.181662
2875.000000	65.270527
2874.000000	65.355065
2873.000000	65.437210
2872.000000	65.518192
2871.000000	65.598054
2870.000000	65.680360
2869.000000	65.773263
2868.000000	65.883054
2867.000000	66.009398
2866.000000	66.148164
2865.000000	66.294735
2864.000000	66.442785
2863.000000	66.584713
2862.000000	66.716582
2861.000000	66.839936
2860.000000	66.956972
2859.000000	67.067131
2858.000000	67.170228
2857.000000	67.269115
2856.000000	67.366887
2855.000000	67.464594
2854.000000	67.563220
2853.000000	67.663996
2852.000000	67.764470
2851.000000	67.857800
2850.000000	67.938577
2849.000000	68.007044
2848.000000	68.066556
2847.000000	68.120237
2846.000000	68.171657
2845.000000	68.224964
2844.000000	68.281896
2843.000000	68.341045
2842.000000	68.401663
2841.000000	68.465801
2840.000000	68.535432
2839.000000	68.610339
2838.000000	68.690127
2837.000000	68.775508
2836.000000	68.866427
2835.000000	68.961596
2834.000000	69.060799
2833.000000	69.164874
2832.000000	69.272552
2831.000000	69.380242
2830.000000	69.485861
2829.000000	69.589806
2828.000000	69.691360
2827.000000	69.787703
2826.000000	69.877770
2825.000000	69.963953
2824.000000	70.048714
2823.000000	70.132405
2822.000000	70.215575
2821.000000	70.300064
2820.000000	70.386063
2819.000000	70.470873
2818.000000	70.551988
2817.000000	70.628964
2816.000000	70.701206
2815.000000	70.766799
2814.000000	70.824991
2813.000000	70.877469
2812.000000	70.926232
2811.000000	70.972696
2810.000000	71.019378
2809.000000	71.069314
2808.000000	71.122692
2807.000000	71.176753
2806.000000	71.229892
2805.000000	71.282971
2804.000000	71.335806
2803.000000	71.385706
2802.000000	71.430838
2801.000000	71.472245
2800.000000	71.511531
2799.000000	71.549352
2798.000000	71.587060
2797.000000	71.626739
2796.000000	71.668422
2795.000000	71.710044
2794.000000	71.750990
2793.000000	71.792856
2792.000000	71.836001
2791.000000	71.878542
2790.000000	71.919585
2789.000000	71.960020
2788.000000	71.998977
2787.000000	72.033011
2786.000000	72.060464
2785.000000	72.083910
2784.000000	72.107153
2783.000000	72.132899
2782.000000	72.164354
2781.000000	72.205376
2780.000000	72.256849
2779.000000	72.315325
2778.000000	72.376751
2777.000000	72.439368
2776.000000	72.502090
2775.000000	72.563033
2774.000000	72.621183
2773.000000	72.677105
2772.000000	72.730930
2771.000000	72.782034
2770.000000	72.831359
2769.000000	72.881293
2768.000000	72.932276
2767.000000	72.982061
2766.000000	73.029105
2765.000000	73.073885
2764.000000	73.116150
2763.000000	73.154046
2762.000000	73.187028
2761.000000	73.216892
2760.000000	73.244893
2759.000000	73.270517
2758.000000	73.293988
2757.000000	73.316935
2756.000000	73.339456
2755.000000	73.359339
2754.000000	73.375348
2753.000000	73.389041
2752.000000	73.402808
2751.000000	73.418837
2750.000000	73.440488
2749.000000	73.471059
2748.000000	73.509559
2747.000000	73.550296
2746.000000	73.587805
2745.000000	73.620019
2744.000000	73.646575
2743.000000	73.667467
2742.000000	73.684261
2741.000000	73.699329
2740.000000	73.712390
2739.000000	73.720478
2738.000000	73.722726
2737.000000	73.723239
2736.000000	73.728712
2735.000000	73.745889
2734.000000	73.781240
2733.000000	73.838485
2732.000000	73.914518
2731.000000	74.000199
2730.000000	74.086364
2729.000000	74.167586
2728.000000	74.240505
2727.000000	74.302682
2726.000000	74.354695
2725.000000	74.400156
2724.000000	74.441944
2723.000000	74.480696
2722.000000	74.517182
2721.000000	74.552820
2720.000000	74.586987
2719.000000	74.616716
2718.000000	74.640466
2717.000000	74.659793
2716.000000	74.676484
2715.000000	74.691140
2714.000000	74.705389
2713.000000	74.722421
2712.000000	74.744168
2711.000000	74.770537
2710.000000	74.802120
2709.000000	74.840684
2708.000000	74.885867
2707.000000	74.934084
2706.000000	74.981663
2705.000000	75.026308
2704.000000	75.064927
2703.000000	75.093469
2702.000000	75.110250
2701.000000	75.116607
2700.000000	75.113679
2699.000000	75.101328
2698.000000	75.081288
2697.000000	75.058577
2696.000000	75.038078
2695.000000	75.022122
2694.000000	75.011895
2693.000000	75.007973
2692.000000	75.008461
2691.000000	75.009473
2690.000000	75.008838
2689.000000	75.007267
2688.000000	75.005553
2687.000000	75.003471
2686.000000	75.002073
2685.000000	75.003876
2684.000000	75.009826
2683.000000	75.019131
2682.000000	75.032751
2681.000000	75.054134
2680.000000	75.085231
2679.000000	75.124294
2678.000000	75.168288
2677.000000	75.214300
2676.000000	75.258123
2675.000000	75.294920
2674.000000	75.322574
2673.000000	75.342053
2672.000000	75.354149
2671.000000	75.358889
2670.000000	75.358802
2669.000000	75.359531
2668.000000	75.366000
2667.000000	75.380618
2666.000000	75.405446
2665.000000	75.442196
2664.000000	75.488707
2663.000000	75.538699
2662.000000	75.586281
2661.000000	75.628178
2660.000000	75.661367
2659.000000	75.682321
2658.000000	75.690181
2657.000000	75.688047
2656.000000	75.679955
2655.000000	75.669224
2654.000000	75.660570
2653.000000	75.660256
2652.000000	75.672404
2651.000000	75.697473
2650.000000	75.734793
2649.000000	75.783357
2648.000000	75.839412
2647.000000	75.896461
2646.000000	75.949245
2645.000000	75.995807
2644.000000	76.035302
2643.000000	76.067351
2642.000000	76.094596
2641.000000	76.122717
2640.000000	76.156342
2639.000000	76.196808
2638.000000	76.244004
2637.000000	76.297010
2636.000000	76.352067
2635.000000	76.403161
2634.000000	76.446232
2633.000000	76.480702
2632.000000	76.506687
2631.000000	76.523977
2630.000000	76.534297
2629.000000	76.541522
2628.000000	76.548195
2627.000000	76.554276
2626.000000	76.560052
2625.000000	76.566937
2624.000000	76.574805
2623.000000	76.581569
2622.000000	76.586375
2621.000000	76.590537
2620.000000	76.594354
2619.000000	76.596098
2618.000000	76.594851
2617.000000	76.591163
2616.000000	76.584067
2615.000000	76.570309
2614.000000	76.547963
2613.000000	76.518210
2612.000000	76.482887
2611.000000	76.443666
2610.000000	76.404568
2609.000000	76.372035
2608.000000	76.350935
2607.000000	76.342745
2606.000000	76.347787
2605.000000	76.366274
2604.000000	76.396018
2603.000000	76.432213
2602.000000	76.471226
2601.000000	76.511593
2600.000000	76.551249
2599.000000	76.587006
2598.000000	76.617744
2597.000000	76.645551
2596.000000	76.672634
2595.000000	76.700029
2594.000000	76.729833
2593.000000	76.765169
2592.000000	76.806512
2591.000000	76.850667
2590.000000	76.894110
2589.000000	76.934563
2588.000000	76.968901
2587.000000	76.993041
2586.000000	77.005611
2585.000000	77.009316
2584.000000	77.008068
2583.000000	77.005764
2582.000000	77.008386
2581.000000	77.023463
2580.000000	77.055617
2579.000000	77.104578
2578.000000	77.167666
2577.000000	77.241424
2576.000000	77.320018
2575.000000	77.395903
2574.000000	77.464173
2573.000000	77.524002
2572.000000	77.575802
2571.000000	77.619971
2570.000000	77.659166
2569.000000	77.698461
2568.000000	77.741657
2567.000000	77.789531
2566.000000	77.842049
2565.000000	77.899253
2564.000000	77.958860
2563.000000	78.016139
2562.000000	78.067424
2561.000000	78.111577
2560.000000	78.147739
2559.000000	78.174701
2558.000000	78.193868
2557.000000	78.209869
2556.000000	78.227094
2555.000000	78.247868
2554.000000	78.274352
2553.000000	78.309066
2552.000000	78.352148
2551.000000	78.400549
2550.000000	78.450954
2549.000000	78.501320
2548.000000	78.549055
2547.000000	78.590702
2546.000000	78.624700
2545.000000	78.652342
2544.000000	78.675197
2543.000000	78.693918
2542.000000	78.709893
2541.000000	78.725171
2540.000000	78.740119
2539.000000	78.753132
2538.000000	78.763299
2537.000000	78.770806
2536.000000	78.774119
2535.000000	78.770031
2534.000000	78.756807
2533.000000	78.735169
2532.000000	78.705870
2531.000000	78.668951
2530.000000	78.626396
2529.000000	78.582247
2528.000000	78.539466
2527.000000	78.499226
2526.000000	78.463493
2525.000000	78.435260
2524.000000	78.415153
2523.000000	78.400411
2522.000000	78.387822
2521.000000	78.374993
2520.000000	78.358460
2519.000000	78.333832
2518.000000	78.299001
2517.000000	78.254861
2516.000000	78.202355
2515.000000	78.142040
2514.000000	78.076841
2513.000000	78.012121
2512.000000	77.952295
2511.000000	77.900071
2510.000000	77.859102
2509.000000	77.833811
2508.000000	77.825563
2507.000000	77.831615
2506.000000	77.849232
2505.000000	77.877161
2504.000000	77.912859
2503.000000	77.952048
2502.000000	77.991579
2501.000000	78.030521
2500.000000	78.067512
2499.000000	78.100242
2498.000000	78.128563
2497.000000	78.154759
2496.000000	78.179958
2495.000000	78.203152
2494.000000	78.224202
2493.000000	78.244459
2492.000000	78.263769
2491.000000	78.279897
2490.000000	78.291956
2489.000000	78.301579
2488.000000	78.309854
2487.000000	78.316295
2486.000000	78.321487
2485.000000	78.327735
2484.000000	78.336159
2483.000000	78.345978
2482.000000	78.357324
2481.000000	78.371859
2480.000000	78.389982
2479.000000	78.410357
2478.000000	78.433049
2477.000000	78.459921
2476.000000	78.491439
2475.000000	78.526079
2474.000000	78.563319
2473.000000	78.604393
2472.000000	78.649143
2471.000000	78.695247
2470.000000	78.741355
2469.000000	78.788056
2468.000000	78.835559
2467.000000	78.883247
2466.000000	78.931988
2465.000000	78.983649
2464.000000	79.037640
2463.000000	79.090819
2462.000000	79.141095
2461.000000	79.188013
2460.000000	79.229345
2459.000000	79.261014
2458.000000	79.280990
2457.000000	79.290642
2456.000000	79.291798
2455.000000	79.285666
2454.000000	79.275835
2453.000000	79.268617
2452.000000	79.269159
2451.000000	79.279473
2450.000000	79.300443
2449.000000	79.332177
2448.000000	79.371625
2447.000000	79.413160
2446.000000	79.452745
2445.000000	79.489484
2444.000000	79.522779
2443.000000	79.551560
2442.000000	79.577053
2441.000000	79.602992
2440.000000	79.632127
2439.000000	79.664916
2438.000000	79.701904
2437.000000	79.744014
2436.000000	79.789641
2435.000000	79.834342
2434.000000	79.874204
2433.000000	79.906830
2432.000000	79.928938
2431.000000	79.936920
2430.000000	79.930343
2429.000000	79.912404
2428.000000	79.886090
2427.000000	79.852663
2426.000000	79.814770
2425.000000	79.776857
2424.000000	79.741754
2423.000000	79.709628
2422.000000	79.680982
2421.000000	79.657708
2420.000000	79.640238
2419.000000	79.626939
2418.000000	79.617061
2417.000000	79.611282
2416.000000	79.608456
2415.000000	79.605322
2414.000000	79.600234
2413.000000	79.593996
2412.000000	79.586200
2411.000000	79.574047
2410.000000	79.555587
2409.000000	79.530937
2408.000000	79.499664
2407.000000	79.460177
2406.000000	79.413172
2405.000000	79.362359
2404.000000	79.310927
2403.000000	79.260435
2402.000000	79.213747
2401.000000	79.175407
2400.000000	79.147678
2399.000000	79.129212
2398.000000	79.118150
2397.000000	79.113275
2396.000000	79.111237
2395.000000	79.106676
2394.000000	79.096606
2393.000000	79.081657
2392.000000	79.062387
2391.000000	79.038562
2390.000000	79.013485
2389.000000	78.994738
2388.000000	78.990098
2387.000000	79.004376
2386.000000	79.042085
2385.000000	79.108928
2384.000000	79.206711
2383.000000	79.331774
2382.000000	79.477070
2381.000000	79.633833
2380.000000	79.789838
2379.000000	79.927989
2378.000000	80.033913
2377.000000	80.101834
2376.000000	80.131493
2375.000000	80.126414
2374.000000	80.095703
2373.000000	80.054802
2372.000000	80.018547
2371.000000	79.993055
2370.000000	79.978034
2369.000000	79.979400
2368.000000	80.005471
2367.000000	80.053485
2366.000000	80.114984
2365.000000	80.197278
2364.000000	80.307460
2363.000000	80.431435
2362.000000	80.564090
2361.000000	80.696977
2360.000000	80.815172
2359.000000	80.906415
2358.000000	80.947055
2357.000000	80.941243
2356.000000	80.889831
2355.000000	80.799162
2354.000000	80.700133
2353.000000	80.650249
2352.000000	80.713440
2351.000000	80.838696
2350.000000	80.921538
2349.000000	80.907293
2348.000000	80.840912
2347.000000	80.832625
2346.000000	80.897013
2345.000000	80.987589
2344.000000	81.031103
2343.000000	81.015498
2342.000000	80.985275
2341.000000	80.953850
2340.000000	80.930741
2339.000000	80.904488
2338.000000	80.882755
2337.000000	80.871015
2336.000000	80.881039
2335.000000	80.910123
2334.000000	80.953841
2333.000000	80.979998
2332.000000	80.975243
2331.000000	80.909761
2330.000000	80.799809
2329.000000	80.677345
2328.000000	80.560392
2327.000000	80.476706
2326.000000	80.414883
2325.000000	80.386796
2324.000000	80.369474
2323.000000	80.343952
2322.000000	80.299419
2321.000000	80.230216
2320.000000	80.155363
2319.000000	80.078976
2318.000000	80.023479
2317.000000	79.988545
2316.000000	79.973954
2315.000000	79.958328
2314.000000	79.926870
2313.000000	79.866725
2312.000000	79.775270
2311.000000	79.659314
2310.000000	79.529108
2309.000000	79.397290
2308.000000	79.264697
2307.000000	79.132219
2306.000000	78.998384
2305.000000	78.866029
2304.000000	78.734033
2303.000000	78.598838
2302.000000	78.460526
2301.000000	78.321716
2300.000000	78.186126
2299.000000	78.057266
2298.000000	77.940010
2297.000000	77.840490
2296.000000	77.758277
2295.000000	77.693205
2294.000000	77.642369
2293.000000	77.607553
2292.000000	77.584746
2291.000000	77.572552
2290.000000	77.569899
2289.000000	77.580217
2288.000000	77.604341
2287.000000	77.644055
2286.000000	77.702425
2285.000000	77.781856
2284.000000	77.878232
2283.000000	77.982646
2282.000000	78.087680
2281.000000	78.187580
2280.000000	78.276867
2279.000000	78.350643
2278.000000	78.410613
2277.000000	78.461821
2276.000000	78.509558
2275.000000	78.557477
2274.000000	78.610750
2273.000000	78.674343
2272.000000	78.748538
2271.000000	78.830777
2270.000000	78.919785
2269.000000	79.015871
2268.000000	79.117417
2267.000000	79.221510
2266.000000	79.327944
2265.000000	79.438721
2264.000000	79.553552
2263.000000	79.671516
2262.000000	79.792821
2261.000000	79.918617
2260.000000	80.045824
2259.000000	80.168289
2258.000000	80.282174
2257.000000	80.385733
2256.000000	80.477604
2255.000000	80.555821
2254.000000	80.622445
2253.000000	80.681884
2252.000000	80.738090
2251.000000	80.793792
2250.000000	80.853706
2249.000000	80.921750
2248.000000	80.997190
2247.000000	81.076356
2246.000000	81.155062
2245.000000	81.230389
2244.000000	81.297685
2243.000000	81.352332
2242.000000	81.393139
2241.000000	81.422386
2240.000000	81.442240
2239.000000	81.454673
2238.000000	81.463558
2237.000000	81.473155
2236.000000	81.484722
2235.000000	81.497332
2234.000000	81.511543
2233.000000	81.528598
2232.000000	81.546945
2231.000000	81.563055
2230.000000	81.575599
2229.000000	81.585577
2228.000000	81.593324
2227.000000	81.598880
2226.000000	81.604904
2225.000000	81.615364
2224.000000	81.631357
2223.000000	81.651120
2222.000000	81.673375
2221.000000	81.697321
2220.000000	81.720006
2219.000000	81.737631
2218.000000	81.749346
2217.000000	81.757071
2216.000000	81.762326
2215.000000	81.766678
2214.000000	81.774420
2213.000000	81.790896
2212.000000	81.818169
2211.000000	81.854989
2210.000000	81.899951
2209.000000	81.951052
2208.000000	82.003090
2207.000000	82.049465
2206.000000	82.086508
2205.000000	82.113366
2204.000000	82.128693
2203.000000	82.131277
2202.000000	82.123231
2201.000000	82.109021
2200.000000	82.091740
2199.000000	82.073430
2198.000000	82.058034
2197.000000	82.050042
2196.000000	82.050718
2195.000000	82.058957
2194.000000	82.075152
2193.000000	82.100311
2192.000000	82.132039
2191.000000	82.165414
2190.000000	82.197704
2189.000000	82.229029
2188.000000	82.259124
2187.000000	82.287442
2186.000000	82.316123
2185.000000	82.349106
2184.000000	82.388135
2183.000000	82.432332
2182.000000	82.480874
2181.000000	82.532549
2180.000000	82.583460
2179.000000	82.628648
2178.000000	82.665689
2177.000000	82.693968
2176.000000	82.711658
2175.000000	82.717227
2174.000000	82.713100
2173.000000	82.704389
2172.000000	82.694575
2171.000000	82.685499
2170.000000	82.680199
2169.000000	82.681530
2168.000000	82.688349
2167.000000	82.696656
2166.000000	82.704165
2165.000000	82.710414
2164.000000	82.713438
2163.000000	82.710445
2162.000000	82.701560
2161.000000	82.689680
2160.000000	82.677311
2159.000000	82.666820
2158.000000	82.662602
2157.000000	82.668830
2156.000000	82.685466
2155.000000	82.709609
2154.000000	82.739628
2153.000000	82.774305
2152.000000	82.809416
2151.000000	82.839599
2150.000000	82.863256
2149.000000	82.882023
2148.000000	82.896253
2147.000000	82.905227
2146.000000	82.910755
2145.000000	82.916237
2144.000000	82.922685
2143.000000	82.929278
2142.000000	82.936788
2141.000000	82.946763
2140.000000	82.958251
2139.000000	82.969004
2138.000000	82.979135
2137.000000	82.989930
2136.000000	82.999950
2135.000000	83.006112
2134.000000	83.007931
2133.000000	83.006788
2132.000000	83.001793
2131.000000	82.990189
2130.000000	82.971397
2129.000000	82.947274
2128.000000	82.919124
2127.000000	82.888170
2126.000000	82.858426
2125.000000	82.835270
2124.000000	82.821351
2123.000000	82.817144
2122.000000	82.824232
2121.000000	82.844187
2120.000000	82.875064
2119.000000	82.912404
2118.000000	82.952605
2117.000000	82.992192
2116.000000	83.025457
2115.000000	83.047083
2114.000000	83.057054
2113.000000	83.059989
2112.000000	83.060674
2111.000000	83.063085
2110.000000	83.071685
2109.000000	83.089419
2108.000000	83.114798
2107.000000	83.143769
2106.000000	83.173449
2105.000000	83.201273
2104.000000	83.222405
2103.000000	83.231936
2102.000000	83.228562
2101.000000	83.213447
2100.000000	83.187178
2099.000000	83.151161
2098.000000	83.110762
2097.000000	83.073049
2096.000000	83.042000
2095.000000	83.019327
2094.000000	83.007951
2093.000000	83.009928
2092.000000	83.022536
2091.000000	83.040339
2090.000000	83.060098
2089.000000	83.080633
2088.000000	83.100054
2087.000000	83.117605
2086.000000	83.136063
2085.000000	83.158240
2084.000000	83.183232
2083.000000	83.209377
2082.000000	83.237878
2081.000000	83.269394
2080.000000	83.299535
2079.000000	83.321960
2078.000000	83.334061
2077.000000	83.334811
2076.000000	83.320470
2075.000000	83.287887
2074.000000	83.239233
2073.000000	83.179470
2072.000000	83.111451
2071.000000	83.037300
2070.000000	82.962688
2069.000000	82.894697
2068.000000	82.835886
2067.000000	82.783875
2066.000000	82.734810
2065.000000	82.684003
2064.000000	82.625785
2063.000000	82.557962
2062.000000	82.483839
2061.000000	82.405652
2060.000000	82.319673
2059.000000	82.222259
2058.000000	82.117901
2057.000000	82.015618
2056.000000	81.920444
2055.000000	81.834098
2054.000000	81.760416
2053.000000	81.703659
2052.000000	81.662987
2051.000000	81.633301
2050.000000	81.610686
2049.000000	81.593292
2048.000000	81.577141
2047.000000	81.556430
2046.000000	81.529612
2045.000000	81.500442
2044.000000	81.472299
2043.000000	81.446146
2042.000000	81.424494
2041.000000	81.412244
2040.000000	81.412580
2039.000000	81.427224
2038.000000	81.459369
2037.000000	81.509954
2036.000000	81.572346
2035.000000	81.636572
2034.000000	81.698483
2033.000000	81.758910
2032.000000	81.816204
2031.000000	81.867206
2030.000000	81.914293
2029.000000	81.963808
2028.000000	82.017890
2027.000000	82.074368
2026.000000	82.133668
2025.000000	82.199321
2024.000000	82.270991
2023.000000	82.343404
2022.000000	82.414234
2021.000000	82.486844
2020.000000	82.562157
2019.000000	82.633841
2018.000000	82.694759
2017.000000	82.743201
2016.000000	82.782109
2015.000000	82.818312
2014.000000	82.862191
2013.000000	82.921261
2012.000000	82.992461
2011.000000	83.066470
2010.000000	83.140543
2009.000000	83.219039
2008.000000	83.301978
2007.000000	83.383686
2006.000000	83.462403
2005.000000	83.541796
2004.000000	83.621130
2003.000000	83.693685
2002.000000	83.756487
2001.000000	83.811722
2000.000000	83.859868
1999.000000	83.899565
1998.000000	83.932571
1997.000000	83.965448
1996.000000	84.006947
1995.000000	84.062679
1994.000000	84.131881
1993.000000	84.207658
1992.000000	84.280128
1991.000000	84.344594
1990.000000	84.405653
1989.000000	84.469149
1988.000000	84.533034
1987.000000	84.588279
1986.000000	84.629759
1985.000000	84.663687
1984.000000	84.700559
1983.000000	84.745669
1982.000000	84.799185
1981.000000	84.861756
1980.000000	84.936820
1979.000000	85.025394
1978.000000	85.119957
1977.000000	85.209029
1976.000000	85.287299
1975.000000	85.354376
1974.000000	85.407140
1973.000000	85.442219
1972.000000	85.465697
1971.000000	85.491253
1970.000000	85.527377
1969.000000	85.573290
1968.000000	85.624073
1967.000000	85.672744
1966.000000	85.712848
1965.000000	85.745606
1964.000000	85.779361
1963.000000	85.815583
1962.000000	85.839866
1961.000000	85.836118
1960.000000	85.806194
1959.000000	85.765451
1958.000000	85.723879
1957.000000	85.683663
1956.000000	85.651521
1955.000000	85.637391
1954.000000	85.642661
1953.000000	85.662518
1952.000000	85.694976
1951.000000	85.739294
1950.000000	85.789589
1949.000000	85.835992
1948.000000	85.872353
1947.000000	85.899076
1946.000000	85.917773
1945.000000	85.927762
1944.000000	85.927593
1943.000000	85.914937
1942.000000	85.888165
1941.000000	85.854300
1940.000000	85.831996
1939.000000	85.837787
1938.000000	85.868264
1937.000000	85.903335
1936.000000	85.929271
1935.000000	85.947439
1934.000000	85.959773
1933.000000	85.960909
1932.000000	85.944658
1931.000000	85.915403
1930.000000	85.885517
1929.000000	85.860626
1928.000000	85.838766
1927.000000	85.824390
1926.000000	85.832716
1925.000000	85.870065
1924.000000	85.917878
1923.000000	85.949064
1922.000000	85.957913
1921.000000	85.957795
1920.000000	85.958554
1919.000000	85.961879
1918.000000	85.965083
1917.000000	85.960432
1916.000000	85.940325
1915.000000	85.911877
1914.000000	85.894213
1913.000000	85.894604
1912.000000	85.900876
1911.000000	85.904446
1910.000000	85.912439
1909.000000	85.926645
1908.000000	85.934412
1907.000000	85.932127
1906.000000	85.937756
1905.000000	85.961430
1904.000000	85.983525
1903.000000	85.987792
1902.000000	85.989022
1901.000000	86.003309
1900.000000	86.024129
1899.000000	86.045901
1898.000000	86.084859
1897.000000	86.153299
1896.000000	86.230705
1895.000000	86.290319
1894.000000	86.338700
1893.000000	86.397118
1892.000000	86.463781
1891.000000	86.521431
1890.000000	86.559203
1889.000000	86.572611
1888.000000	86.561161
1887.000000	86.541055
1886.000000	86.542633
1885.000000	86.574777
1884.000000	86.611867
1883.000000	86.636664
1882.000000	86.668189
1881.000000	86.723036
1880.000000	86.785331
1879.000000	86.834187
1878.000000	86.874297
1877.000000	86.919015
1876.000000	86.959929
1875.000000	86.983170
1874.000000	87.000173
1873.000000	87.031323
1872.000000	87.073110
1871.000000	87.110720
1870.000000	87.147612
1869.000000	87.190071
1868.000000	87.216122
1867.000000	87.211833
1866.000000	87.211956
1865.000000	87.251351
1864.000000	87.318922
1863.000000	87.384258
1862.000000	87.441020
1861.000000	87.498517
1860.000000	87.546143
1859.000000	87.566591
1858.000000	87.571313
1857.000000	87.584117
1856.000000	87.602026
1855.000000	87.614540
1854.000000	87.633147
1853.000000	87.669232
1852.000000	87.715963
1851.000000	87.766757
1850.000000	87.830066
1849.000000	87.908511
1848.000000	87.980796
1847.000000	88.025268
1846.000000	88.042734
1845.000000	88.042000
1844.000000	88.022610
1843.000000	87.989711
1842.000000	87.965327
1841.000000	87.970961
1840.000000	88.013152
1839.000000	88.081187
1838.000000	88.155441
1837.000000	88.219587
1836.000000	88.266260
1835.000000	88.303768
1834.000000	88.345154
1833.000000	88.392036
1832.000000	88.442249
1831.000000	88.485107
1830.000000	88.494770
1829.000000	88.463548
1828.000000	88.426842
1827.000000	88.420959
1826.000000	88.454247
1825.000000	88.516861
1824.000000	88.583219
1823.000000	88.634540
1822.000000	88.677032
1821.000000	88.729604
1820.000000	88.791630
1819.000000	88.833774
1818.000000	88.843973
1817.000000	88.847762
1816.000000	88.862048
1815.000000	88.871905
1814.000000	88.870490
1813.000000	88.880413
1812.000000	88.909746
1811.000000	88.924047
1810.000000	88.910893
1809.000000	88.908938
1808.000000	88.931175
1807.000000	88.945224
1806.000000	88.942743
1805.000000	88.948889
1804.000000	88.965259
1803.000000	88.959432
1802.000000	88.917420
1801.000000	88.871738
1800.000000	88.847613
1799.000000	88.834944
1798.000000	88.839416
1797.000000	88.881585
1796.000000	88.944310
1795.000000	88.986930
1794.000000	88.997903
1793.000000	89.009160
1792.000000	89.033748
1791.000000	89.034766
1790.000000	89.009048
1789.000000	88.997555
1788.000000	89.009193
1787.000000	89.016333
1786.000000	89.009794
1785.000000	89.009447
1784.000000	89.024433
1783.000000	89.044647
1782.000000	89.063731
1781.000000	89.087673
1780.000000	89.112708
1779.000000	89.128822
1778.000000	89.144602
1777.000000	89.178804
1776.000000	89.235830
1775.000000	89.297781
1774.000000	89.330554
1773.000000	89.320572
1772.000000	89.293688
1771.000000	89.264211
1770.000000	89.233953
1769.000000	89.232314
1768.000000	89.293939
1767.000000	89.397349
1766.000000	89.489126
1765.000000	89.563288
1764.000000	89.648430
1763.000000	89.737687
1762.000000	89.773386
1761.000000	89.740459
1760.000000	89.691096
1759.000000	89.658869
1758.000000	89.634055
1757.000000	89.602081
1756.000000	89.583837
1755.000000	89.595395
1754.000000	89.606044
1753.000000	89.598746
1752.000000	89.612171
1751.000000	89.685752
1750.000000	89.784177
1749.000000	89.843216
1748.000000	89.871318
1747.000000	89.913300
1746.000000	89.963909
1745.000000	89.999504
1744.000000	90.032009
1743.000000	90.067463
1742.000000	90.080079
1741.000000	90.065874
1740.000000	90.070930
1739.000000	90.123085
1738.000000	90.184208
1737.000000	90.223615
1736.000000	90.239459
1735.000000	90.235221
1734.000000	90.224223
1733.000000	90.206663
1732.000000	90.177399
1731.000000	90.152246
1730.000000	90.149141
1729.000000	90.148618
1728.000000	90.139869
1727.000000	90.141462
1726.000000	90.157260
1725.000000	90.174909
1724.000000	90.180977
1723.000000	90.178026
1722.000000	90.187032
1721.000000	90.223920
1720.000000	90.281582
1719.000000	90.316322
1718.000000	90.286199
1717.000000	90.230110
1716.000000	90.174856
1715.000000	90.096553
1714.000000	90.043299
1713.000000	90.064079
1712.000000	90.118960
1711.000000	90.158959
1710.000000	90.193002
1709.000000	90.245141
1708.000000	90.307755
1707.000000	90.353879
1706.000000	90.391028
1705.000000	90.453921
1704.000000	90.527912
1703.000000	90.574366
1702.000000	90.574542
1701.000000	90.576250
1700.000000	90.619593
1699.000000	90.620389
1698.000000	90.565649
1697.000000	90.566396
1696.000000	90.647876
1695.000000	90.712329
1694.000000	90.707019
1693.000000	90.680437
1692.000000	90.687882
1691.000000	90.732721
1690.000000	90.777473
1689.000000	90.802135
1688.000000	90.828580
1687.000000	90.871381
1686.000000	90.899389
1685.000000	90.869908
1684.000000	90.786240
1683.000000	90.710630
1682.000000	90.673207
1681.000000	90.640928
1680.000000	90.617189
1679.000000	90.618752
1678.000000	90.624226
1677.000000	90.591954
1676.000000	90.516643
1675.000000	90.449570
1674.000000	90.395254
1673.000000	90.314632
1672.000000	90.224799
1671.000000	90.173666
1670.000000	90.157342
1669.000000	90.116467
1668.000000	90.043645
1667.000000	89.991508
1666.000000	89.970882
1665.000000	89.947273
1664.000000	89.893079
1663.000000	89.817475
1662.000000	89.729242
1661.000000	89.604506
1660.000000	89.445346
1659.000000	89.310600
1658.000000	89.234620
1657.000000	89.204127
1656.000000	89.190799
1655.000000	89.155049
1654.000000	88.975143
1653.000000	88.563169
1652.000000	88.059698
1651.000000	87.561837
1650.000000	87.031043
1649.000000	86.427885
1648.000000	85.586634
1647.000000	84.305132
1646.000000	82.651294
1645.000000	80.827306
1644.000000	78.829900
1643.000000	76.525404
1642.000000	73.835618
1641.000000	70.814191
1640.000000	67.692939
1639.000000	64.751639
1638.000000	62.127256
1637.000000	59.830601
1636.000000	58.028301
1635.000000	57.094999
1634.000000	57.098947
1633.000000	57.723179
1632.000000	58.688271
1631.000000	59.869843
1630.000000	61.240199
1629.000000	62.800013
1628.000000	64.514646
1627.000000	66.282386
1626.000000	68.031436
1625.000000	69.816542
1624.000000	71.720571
1623.000000	73.655824
1622.000000	75.381352
1621.000000	76.774397
1620.000000	77.931779
1619.000000	79.005629
1618.000000	80.073152
1617.000000	81.109161
1616.000000	82.006661
1615.000000	82.690190
1614.000000	83.199793
1613.000000	83.630056
1612.000000	84.043016
1611.000000	84.433310
1610.000000	84.749458
1609.000000	84.949317
1608.000000	85.026287
1607.000000	84.984131
1606.000000	84.797157
1605.000000	84.426422
1604.000000	83.860167
1603.000000	83.090328
1602.000000	82.102614
1601.000000	80.934022
1600.000000	79.701112
1599.000000	78.540725
1598.000000	77.529002
1597.000000	76.682108
1596.000000	75.994974
1595.000000	75.439199
1594.000000	74.945875
1593.000000	74.438242
1592.000000	73.885805
1591.000000	73.297760
1590.000000	72.676755
1589.000000	72.011529
1588.000000	71.304417
1587.000000	70.562627
1586.000000	69.762084
1585.000000	68.862121
1584.000000	67.871716
1583.000000	66.839372
1582.000000	65.779917
1581.000000	64.687499
1580.000000	63.595556
1579.000000	62.501748
1578.000000	61.224099
1577.000000	59.438923
1576.000000	57.137029
1575.000000	54.861269
1574.000000	53.014424
1573.000000	51.488192
1572.000000	50.055766
1571.000000	48.599624
1570.000000	47.143042
1569.000000	45.832336
1568.000000	44.854127
1567.000000	44.294782
1566.000000	44.085114
1565.000000	44.091135
1564.000000	44.274215
1563.000000	44.677671
1562.000000	45.319787
1561.000000	46.149092
1560.000000	47.267865
1559.000000	48.872258
1558.000000	50.602081
1557.000000	51.973197
1556.000000	53.060082
1555.000000	54.133397
1554.000000	55.243799
1553.000000	56.248533
1552.000000	57.096371
1551.000000	57.898123
1550.000000	58.746944
1549.000000	59.612311
1548.000000	60.460714
1547.000000	61.362778
1546.000000	62.402442
1545.000000	63.548785
1544.000000	64.677911
1543.000000	65.725494
1542.000000	66.747752
1541.000000	67.820670
1540.000000	68.907216
1539.000000	69.905436
1538.000000	70.744842
1537.000000	71.416775
1536.000000	72.019927
1535.000000	72.689517
1534.000000	73.468434
1533.000000	74.256682
1532.000000	74.939328
1531.000000	75.523048
1530.000000	76.083675
1529.000000	76.658023
1528.000000	77.225085
1527.000000	77.760573
1526.000000	78.257248
1525.000000	78.715914
1524.000000	79.151082
1523.000000	79.589409
1522.000000	80.029000
1521.000000	80.413977
1520.000000	80.706268
1519.000000	80.938875
1518.000000	81.165654
1517.000000	81.390991
1516.000000	81.586155
1515.000000	81.759177
1514.000000	81.938874
1513.000000	82.153294
1512.000000	82.423685
1511.000000	82.731209
1510.000000	83.039825
1509.000000	83.333334
1508.000000	83.608368
1507.000000	83.799363
1506.000000	83.927356
1505.000000	84.102983
1504.000000	84.288649
1503.000000	84.462775
1502.000000	84.648041
1501.000000	84.834048
1500.000000	85.018164
1499.000000	85.201503
1498.000000	85.358630
1497.000000	85.491501
1496.000000	85.643574
1495.000000	85.814085
1494.000000	85.960556
1493.000000	86.079792
1492.000000	86.206890
1491.000000	86.361333
1490.000000	86.505487
1489.000000	86.603659
1488.000000	86.661714
1487.000000	86.689414
1486.000000	86.697356
1485.000000	86.667938
1484.000000	86.580192
1483.000000	86.430830
1482.000000	86.192838
1481.000000	85.834870
1480.000000	85.356310
1479.000000	84.739056
1478.000000	83.885451
1477.000000	82.692936
1476.000000	81.163346
1475.000000	79.351365
1474.000000	77.229399
1473.000000	74.822299
1472.000000	72.495083
1471.000000	70.682516
1470.000000	69.453786
1469.000000	68.673970
1468.000000	68.276485
1467.000000	68.288170
1466.000000	68.779428
1465.000000	69.761646
1464.000000	71.050556
1463.000000	72.316086
1462.000000	73.321912
1461.000000	74.011526
1460.000000	74.375232
1459.000000	74.318339
1458.000000	73.632480
1457.000000	72.374803
1456.000000	71.143862
1455.000000	70.375408
1454.000000	69.984985
1453.000000	69.820790
1452.000000	69.811256
1451.000000	69.896151
1450.000000	70.031405
1449.000000	70.230771
1448.000000	70.526633
1447.000000	70.885955
1446.000000	71.242169
1445.000000	71.599126
1444.000000	72.026504
1443.000000	72.570961
1442.000000	73.240984
1441.000000	74.048844
1440.000000	75.020244
1439.000000	76.165033
1438.000000	77.477794
1437.000000	78.911695
1436.000000	80.281315
1435.000000	81.357884
1434.000000	82.115410
1433.000000	82.700620
1432.000000	83.217703
1431.000000	83.665495
1430.000000	84.012722
1429.000000	84.281992
1428.000000	84.525151
1427.000000	84.767340
1426.000000	85.002698
1425.000000	85.220968
1424.000000	85.441387
1423.000000	85.680597
1422.000000	85.928141
1421.000000	86.159593
1420.000000	86.358822
1419.000000	86.501389
1418.000000	86.552660
1417.000000	86.564339
1416.000000	86.625861
1415.000000	86.750701
1414.000000	86.892906
1413.000000	87.023395
1412.000000	87.159091
1411.000000	87.312573
1410.000000	87.462339
1409.000000	87.602636
1408.000000	87.752964
1407.000000	87.915349
1406.000000	88.059597
1405.000000	88.156944
1404.000000	88.220340
1403.000000	88.266155
1402.000000	88.264750
1401.000000	88.158272
1400.000000	87.906290
1399.000000	87.533032
1398.000000	87.144237
1397.000000	86.876228
1396.000000	86.821625
1395.000000	86.982137
1394.000000	87.239000
1393.000000	87.458849
1392.000000	87.632419
1391.000000	87.829545
1390.000000	88.097668
1389.000000	88.433982
1388.000000	88.805694
1387.000000	89.170660
1386.000000	89.489210
1385.000000	89.741353
1384.000000	89.933552
1383.000000	90.077072
1382.000000	90.182310
1381.000000	90.262328
1380.000000	90.321235
1379.000000	90.349344
1378.000000	90.326600
1377.000000	90.208012
1376.000000	89.883823
1375.000000	89.146651
1374.000000	87.714414
1373.000000	85.369978
1372.000000	82.108798
1371.000000	78.218286
1370.000000	74.333487
1369.000000	71.361693
1368.000000	70.085886
1367.000000	70.614217
1366.000000	72.322014
1365.000000	74.316025
1364.000000	75.809473
1363.000000	76.289585
1362.000000	75.716979
1361.000000	74.626209
1360.000000	73.841743
1359.000000	74.024266
1358.000000	75.375521
1357.000000	77.580550
1356.000000	80.041726
1355.000000	82.243978
1354.000000	83.967443
1353.000000	85.251058
1352.000000	86.219310
1351.000000	86.976760
1350.000000	87.596768
1349.000000	88.112941
1348.000000	88.532881
1347.000000	88.868301
1346.000000	89.141631
1345.000000	89.365331
1344.000000	89.542601
1343.000000	89.685983
1342.000000	89.820690
1341.000000	89.958561
1340.000000	90.087254
1339.000000	90.200277
1338.000000	90.312538
1337.000000	90.439175
1336.000000	90.575271
1335.000000	90.699060
1334.000000	90.778856
1333.000000	90.761020
1332.000000	90.565237
1331.000000	90.107544
1330.000000	89.332109
1329.000000	88.227580
1328.000000	86.805350
1327.000000	85.067634
1326.000000	83.011256
1325.000000	80.712229
1324.000000	78.457597
1323.000000	76.705621
1322.000000	75.803837
1321.000000	75.741099
1320.000000	76.206343
1319.000000	76.860092
1318.000000	77.532318
1317.000000	78.199757
1316.000000	78.867150
1315.000000	79.527123
1314.000000	80.189590
1313.000000	80.906084
1312.000000	81.747966
1311.000000	82.751199
1310.000000	83.870643
1309.000000	84.983348
1308.000000	85.939152
1307.000000	86.626603
1306.000000	87.005453
1305.000000	87.076703
1304.000000	86.852418
1303.000000	86.345410
1302.000000	85.569760
1301.000000	84.560163
1300.000000	83.409115
1299.000000	82.290144
1298.000000	81.408163
1297.000000	80.894200
1296.000000	80.734673
1295.000000	80.782359
1294.000000	80.821548
1293.000000	80.641411
1292.000000	80.093264
1291.000000	79.112334
1290.000000	77.688901
1289.000000	75.846353
1288.000000	73.694862
1287.000000	71.515121
1286.000000	69.725464
1285.000000	68.699144
1284.000000	68.582467
1283.000000	69.266463
1282.000000	70.524829
1281.000000	72.160497
1280.000000	74.023986
1279.000000	75.921206
1278.000000	77.572835
1277.000000	78.719304
1276.000000	79.255953
1275.000000	79.262069
1274.000000	78.933430
1273.000000	78.515460
1272.000000	78.267840
1271.000000	78.414308
1270.000000	79.057681
1269.000000	80.131622
1268.000000	81.448722
1267.000000	82.803311
1266.000000	84.047229
1265.000000	85.113651
1264.000000	86.002514
1263.000000	86.745568
1262.000000	87.373869
1261.000000	87.905304
1260.000000	88.350161
1259.000000	88.719049
1258.000000	89.024862
1257.000000	89.277866
1256.000000	89.487438
1255.000000	89.666342
1254.000000	89.827683
1253.000000	89.981628
1252.000000	90.134438
1251.000000	90.290430
1250.000000	90.450403
1249.000000	90.608808
1248.000000	90.758526
1247.000000	90.896065
1246.000000	91.018828
1245.000000	91.122623
1244.000000	91.205385
1243.000000	91.271208
1242.000000	91.326567
1241.000000	91.374839
1240.000000	91.417323
1239.000000	91.455777
1238.000000	91.490528
1237.000000	91.517089
1236.000000	91.528552
1235.000000	91.520660
1234.000000	91.490646
1233.000000	91.434677
1232.000000	91.349891
1231.000000	91.236871
1230.000000	91.097712
1229.000000	90.930620
1228.000000	90.730571
1227.000000	90.490553
1226.000000	90.197231
1225.000000	89.830132
1224.000000	89.360941
1223.000000	88.757189
1222.000000	87.981787
1221.000000	86.991500
1220.000000	85.755352
1219.000000	84.268363
1218.000000	82.555572
1217.000000	80.670336
1216.000000	78.695417
1215.000000	76.745092
1214.000000	74.954214
1213.000000	73.461407
1212.000000	72.390323
1211.000000	71.817459
1210.000000	71.721502
1209.000000	71.984940
1208.000000	72.445383
1207.000000	72.939539
1206.000000	73.327279
1205.000000	73.500147
1204.000000	73.391594
1203.000000	72.981180
1202.000000	72.297119
1201.000000	71.431125
1200.000000	70.550798
1199.000000	69.870501
1198.000000	69.576182
1197.000000	69.757471
1196.000000	70.401699
1195.000000	71.419289
1194.000000	72.682187
1193.000000	74.068527
1192.000000	75.486966
1191.000000	76.881820
1190.000000	78.216938
1189.000000	79.469293
1188.000000	80.631687
1187.000000	81.706535
1186.000000	82.694620
1185.000000	83.596293
1184.000000	84.416692
1183.000000	85.156790
1182.000000	85.807623
1181.000000	86.352003
1180.000000	86.779450
1179.000000	87.096160
1178.000000	87.315712
1177.000000	87.453244
1176.000000	87.521153
1175.000000	87.529280
1174.000000	87.484631
1173.000000	87.382943
1172.000000	87.209166
1171.000000	86.932564
1170.000000	86.502712
1169.000000	85.857646
1168.000000	84.939408
1167.000000	83.727717
1166.000000	82.269204
1165.000000	80.693553
1164.000000	79.204356
1163.000000	78.032433
1162.000000	77.355967
1161.000000	77.244556
1160.000000	77.657122
1159.000000	78.464503
1158.000000	79.497626
1157.000000	80.591639
1156.000000	81.620251
1155.000000	82.505537
1154.000000	83.205155
1153.000000	83.703124
1152.000000	84.004383
1151.000000	84.126509
1150.000000	84.085662
1149.000000	83.896894
1148.000000	83.564741
1147.000000	83.076225
1146.000000	82.394847
1145.000000	81.451422
1144.000000	80.162625
1143.000000	78.439714
1142.000000	76.217180
1141.000000	73.507061
1140.000000	70.438835
1139.000000	67.252395
1138.000000	64.201498
1137.000000	61.440078
1136.000000	58.973466
1135.000000	56.702130
1134.000000	54.526767
1133.000000	52.498601
1132.000000	50.910143
1131.000000	50.204262
1130.000000	50.770132
1129.000000	52.712991
1128.000000	55.784054
1127.000000	59.461323
1126.000000	63.108710
1125.000000	66.160002
1124.000000	68.223717
1123.000000	69.091192
1122.000000	68.704067
1121.000000	67.140034
1120.000000	64.557918
1119.000000	61.186283
1118.000000	57.373794
1117.000000	53.666377
1116.000000	50.784145
1115.000000	49.397357
1114.000000	49.813815
1113.000000	51.837285
1112.000000	54.882072
1111.000000	58.167380
1110.000000	60.965350
1109.000000	62.858872
1108.000000	63.902514
1107.000000	64.536631
1106.000000	65.263852
1105.000000	66.336797
1104.000000	67.664818
1103.000000	68.919733
1102.000000	69.672991
1101.000000	69.555894
1100.000000	68.427183
1099.000000	66.522596
1098.000000	64.481853
1097.000000	63.137281
1096.000000	63.135739
1095.000000	64.616671
1094.000000	67.167017
1093.000000	70.095251
1092.000000	72.816382
1091.000000	75.040693
1090.000000	76.737393
1089.000000	78.004207
1088.000000	78.968330
1087.000000	79.742433
1086.000000	80.410429
1085.000000	81.022575
1084.000000	81.599410
1083.000000	82.147756
1082.000000	82.659186
1081.000000	83.115089
1080.000000	83.496857
1079.000000	83.789118
1078.000000	83.981705
1077.000000	84.061458
1076.000000	84.012174
1075.000000	83.815497
1074.000000	83.437547
1073.000000	82.831445
1072.000000	81.917833
1071.000000	80.572161
1070.000000	78.615633
1069.000000	75.793962
1068.000000	71.848313
1067.000000	66.648378
1066.000000	60.400485
1065.000000	53.797344
1064.000000	47.909560
1063.000000	43.730598
1062.000000	41.586454
1061.000000	40.868714
1060.000000	40.384999
1059.000000	39.160884
1058.000000	37.080765
1057.000000	34.986679
1056.000000	34.137900
1055.000000	35.370882
1054.000000	38.643688
1053.000000	43.183695
1052.000000	48.038539
1051.000000	52.533400
1050.000000	56.368408
1049.000000	59.526672
1048.000000	62.135268
1047.000000	64.353477
1046.000000	66.289206
1045.000000	67.991903
1044.000000	69.478127
1043.000000	70.765876
1042.000000	71.876819
1041.000000	72.823454
1040.000000	73.625126
1039.000000	74.305242
1038.000000	74.880894
1037.000000	75.360378
1036.000000	75.752092
1035.000000	76.075205
1034.000000	76.346567
1033.000000	76.574101
1032.000000	76.767073
1031.000000	76.939774
1030.000000	77.103554
1029.000000	77.258397
1028.000000	77.398692
1027.000000	77.518990
1026.000000	77.606945
1025.000000	77.644000
1024.000000	77.615500
1023.000000	77.515979
1022.000000	77.343726
1021.000000	77.091050
1020.000000	76.749633
1019.000000	76.307310
1018.000000	75.732808
1017.000000	74.975264
1016.000000	73.974786
1015.000000	72.693227
1014.000000	71.143126
1013.000000	69.417394
1012.000000	67.701281
1011.000000	66.217909
1010.000000	65.112299
1009.000000	64.354912
1008.000000	63.764406
1007.000000	63.150004
1006.000000	62.501579
1005.000000	62.067430
1004.000000	62.233506
1003.000000	63.261110
1002.000000	65.070155
1001.000000	67.277918
1000.000000	69.415451
999.000000	71.130896
998.000000	72.262206
997.000000	72.806453
996.000000	72.871940
995.000000	72.643650
994.000000	72.355321
993.000000	72.248406
992.000000	72.516855
991.000000	73.234285
990.000000	74.313310
989.000000	75.554189
988.000000	76.759428
987.000000	77.812484
986.000000	78.685139
985.000000	79.404142
984.000000	80.019073
983.000000	80.578470
982.000000	81.112277
981.000000	81.626069
980.000000	82.111172
979.000000	82.557882
978.000000	82.952914
977.000000	83.282025
976.000000	83.540169
975.000000	83.736660
974.000000	83.889962
973.000000	84.019487
972.000000	84.147371
971.000000	84.297376
970.000000	84.484168
969.000000	84.707055
968.000000	84.955474
967.000000	85.215498
966.000000	85.468721
965.000000	85.692899
964.000000	85.871951
963.000000	86.003140
962.000000	86.093911
961.000000	86.156554
960.000000	86.208411
959.000000	86.271380
958.000000	86.363153
957.000000	86.490211
956.000000	86.650710
955.000000	86.839007
954.000000	87.043411
953.000000	87.245183
952.000000	87.425758
951.000000	87.574481
950.000000	87.687965
949.000000	87.767668
948.000000	87.821821
947.000000	87.865850
946.000000	87.915652
945.000000	87.981190
944.000000	88.068632
943.000000	88.182956
942.000000	88.323572
941.000000	88.480431
940.000000	88.639387
939.000000	88.789329
938.000000	88.921975
937.000000	89.028803
936.000000	89.104332
935.000000	89.150918
934.000000	89.177450
933.000000	89.194407
932.000000	89.212800
931.000000	89.245160
930.000000	89.301612
929.000000	89.385043
928.000000	89.492261
927.000000	89.617957
926.000000	89.753821
925.000000	89.886377
924.000000	90.000390
923.000000	90.085562
922.000000	90.138339
921.000000	90.160212
920.000000	90.157809
919.000000	90.144144
918.000000	90.135101
917.000000	90.142898
916.000000	90.174502
915.000000	90.233435
914.000000	90.318403
913.000000	90.420049
912.000000	90.521825
911.000000	90.605428
910.000000	90.652052
909.000000	90.637733
908.000000	90.532902
907.000000	90.303744
906.000000	89.918388
905.000000	89.348823
904.000000	88.581815
903.000000	87.651940
902.000000	86.678564
901.000000	85.866014
900.000000	85.436450
899.000000	85.516464
898.000000	86.056700
897.000000	86.866878
896.000000	87.727714
895.000000	88.489559
894.000000	89.099530
893.000000	89.565515
892.000000	89.919500
891.000000	90.195949
890.000000	90.421465
889.000000	90.607095
888.000000	90.753051
887.000000	90.849774
886.000000	90.872896
885.000000	90.781190
884.000000	90.534991
883.000000	90.139052
882.000000	89.661526
881.000000	89.199580
880.000000	88.809183
879.000000	88.465559
878.000000	88.105606
877.000000	87.720182
876.000000	87.407055
875.000000	87.313213
874.000000	87.519460
873.000000	87.975533
872.000000	88.544974
871.000000	89.100185
870.000000	89.579235
869.000000	89.982528
868.000000	90.337357
867.000000	90.669348
866.000000	90.985853
865.000000	91.273811
864.000000	91.507738
863.000000	91.665114
862.000000	91.736315
861.000000	91.726162
860.000000	91.654483
859.000000	91.553471
858.000000	91.461438
857.000000	91.413002
856.000000	91.432557
855.000000	91.530751
854.000000	91.700320
853.000000	91.914441
852.000000	92.133366
851.000000	92.316154
850.000000	92.429904
849.000000	92.455084
848.000000	92.390801
847.000000	92.258083
846.000000	92.094271
845.000000	91.942255
844.000000	91.841622
843.000000	91.822468
842.000000	91.896920
841.000000	92.053765
840.000000	92.262314
839.000000	92.482905
838.000000	92.674927
837.000000	92.802464
836.000000	92.841940
835.000000	92.790779
834.000000	92.668206
833.000000	92.506906
832.000000	92.344634
831.000000	92.219364
830.000000	92.163247
829.000000	92.193609
828.000000	92.308473
827.000000	92.488639
826.000000	92.702507
825.000000	92.910353
824.000000	93.072805
823.000000	93.162446
822.000000	93.170875
821.000000	93.106573
820.000000	92.990230
819.000000	92.851290
818.000000	92.721640
817.000000	92.626920
816.000000	92.580754
815.000000	92.584990
814.000000	92.630313
813.000000	92.695492
812.000000	92.750088
811.000000	92.761584
810.000000	92.701998
809.000000	92.551061
808.000000	92.295658
807.000000	91.931774
806.000000	91.461832
805.000000	90.888080
804.000000	90.209182
803.000000	89.416165
802.000000	88.491212
801.000000	87.402170
800.000000	86.106996
799.000000	84.572065
798.000000	82.783479
797.000000	80.757143
796.000000	78.541363
795.000000	76.217407
794.000000	73.890992
793.000000	71.681772
792.000000	69.717397
791.000000	68.120191
790.000000	66.984315
789.000000	66.350890
788.000000	66.208340
787.000000	66.493252
786.000000	67.101118
785.000000	67.912746
784.000000	68.818159
783.000000	69.732236
782.000000	70.587322
781.000000	71.328397
780.000000	71.913505
779.000000	72.318851
778.000000	72.541981
777.000000	72.600006
776.000000	72.519635
775.000000	72.322470
774.000000	72.026837
773.000000	71.670396
772.000000	71.338704
771.000000	71.160215
770.000000	71.263540
769.000000	71.722541
768.000000	72.529524
767.000000	73.605257
766.000000	74.836027
765.000000	76.118473
764.000000	77.382678
763.000000	78.592094
762.000000	79.729117
761.000000	80.784054
760.000000	81.750851
759.000000	82.628936
758.000000	83.426059
757.000000	84.156653
756.000000	84.837112
755.000000	85.480856
754.000000	86.096889
753.000000	86.687051
752.000000	87.244172
751.000000	87.754444
750.000000	88.201511
749.000000	88.570547
748.000000	88.851367
747.000000	89.043954
746.000000	89.163945
745.000000	89.240083
744.000000	89.305435
743.000000	89.389189
742.000000	89.512648
741.000000	89.685322
740.000000	89.900121
739.000000	90.133311
738.000000	90.350280
737.000000	90.511448
736.000000	90.579223
735.000000	90.529625
734.000000	90.363926
733.000000	90.109090
732.000000	89.808563
731.000000	89.512943
730.000000	89.271320
729.000000	89.118365
728.000000	89.062277
727.000000	89.079690
726.000000	89.120098
725.000000	89.121536
724.000000	89.024736
723.000000	88.774131
722.000000	88.307805
721.000000	87.562050
720.000000	86.505460
719.000000	85.178829
718.000000	83.698192
717.000000	82.221829
716.000000	80.915481
715.000000	79.925834
714.000000	79.355592
713.000000	79.236039
712.000000	79.513904
711.000000	80.070898
710.000000	80.773367
709.000000	81.515230
708.000000	82.232980
707.000000	82.904307
706.000000	83.540180
705.000000	84.172099
704.000000	84.828354
703.000000	85.517931
702.000000	86.236564
701.000000	86.974530
700.000000	87.708441
699.000000	88.400849
698.000000	89.016365
697.000000	89.535519
696.000000	89.949359
695.000000	90.252655
694.000000	90.457160
693.000000	90.597246
692.000000	90.710821
691.000000	90.822048
690.000000	90.945976
689.000000	91.099838
688.000000	91.292264
687.000000	91.509418
686.000000	91.731075
685.000000	91.945665
684.000000	92.136796
683.000000	92.277243
682.000000	92.353083
681.000000	92.377189
680.000000	92.362843
679.000000	92.311330
678.000000	92.230355
677.000000	92.140865
676.000000	92.072599
675.000000	92.031902
674.000000	92.039650
673.000000	92.186459
672.000000	92.598449
671.000000	93.312691
670.000000	94.200442
669.000000	94.822863
668.000000	94.544281
667.000000	93.580855
666.000000	92.815241
665.000000	92.411226
664.000000	92.192865
663.000000	92.068163
662.000000	92.022696
661.000000	92.035239
660.000000	92.077550
659.000000	92.149558
658.000000	92.257583
657.000000	92.371515
656.000000	92.462393
655.000000	92.525164
654.000000	92.553048
653.000000	92.524476
652.000000	92.438577
651.000000	92.328111
650.000000	92.216612
649.000000	92.093884
648.000000	91.956974
647.000000	91.839215
646.000000	91.770006
645.000000	91.740165
644.000000	91.723766
643.000000	91.707173
642.000000	91.679530
641.000000	91.616087
640.000000	91.503416
639.000000	91.359221
638.000000	91.205264
637.000000	91.042607
636.000000	90.873600
635.000000	90.720022
634.000000	90.596819
633.000000	90.490620
632.000000	90.383453
631.000000	90.274663
630.000000	90.163525
629.000000	90.033790
628.000000	89.875813
627.000000	89.703177
626.000000	89.527504
625.000000	89.343383
624.000000	89.146235
623.000000	88.948065
622.000000	88.757465
621.000000	88.562896
620.000000	88.350692
619.000000	88.110085
618.000000	87.814779
617.000000	87.434116
616.000000	86.981509
615.000000	86.516095
614.000000	86.076626
613.000000	85.644657
612.000000	85.187119
611.000000	84.693666
610.000000	84.152504
609.000000	83.524465
608.000000	82.774213
607.000000	81.901589
606.000000	80.911898
605.000000	79.796262
604.000000	78.564147
603.000000	77.263484
602.000000	75.928971
601.000000	74.547368
600.000000	73.104064
599.000000	71.630378
598.000000	70.151165
597.000000	68.636059
596.000000	67.060230
595.000000	65.462231
594.000000	63.891126
593.000000	62.345380
592.000000	60.833854
591.000000	59.432760
590.000000	58.209898
589.000000	57.145928
588.000000	56.192095
587.000000	55.332563
586.000000	54.520420
585.000000	53.636215
584.000000	52.587796
583.000000	51.400165
582.000000	50.148598
581.000000	48.893955
580.000000	47.743542
579.000000	46.890860
578.000000	46.481939
577.000000	46.522073
576.000000	46.955166
575.000000	47.719036
574.000000	48.686036
573.000000	49.657242
572.000000	50.510826
571.000000	51.292538
570.000000	52.122318
569.000000	53.072433
568.000000	54.165365
567.000000	55.390234
566.000000	56.658000
565.000000	57.825310
564.000000	58.815116
563.000000	59.662154
562.000000	60.414265
561.000000	61.069018
560.000000	61.637380
559.000000	62.179120
558.000000	62.725340
557.000000	63.240479
556.000000	63.699197
555.000000	64.140291
554.000000	64.601175
553.000000	65.069663
552.000000	65.542233
551.000000	66.063163
550.000000	66.659634
549.000000	67.296396
548.000000	67.939124
547.000000	68.597230
546.000000	69.265038
545.000000	69.883349
544.000000	70.409761
543.000000	70.866668
542.000000	71.284347
541.000000	71.653773
540.000000	71.975526
539.000000	72.296342
538.000000	72.652338
537.000000	73.028864
536.000000	73.409095
535.000000	73.815043
534.000000	74.249113
533.000000	74.667868
532.000000	75.022664
531.000000	75.300616
530.000000	75.501523
529.000000	75.606423
528.000000	75.590120
527.000000	75.459363
526.000000	75.232177
525.000000	74.906405
524.000000	74.495802
523.000000	74.046281
522.000000	73.604762
521.000000	73.195401
520.000000	72.829093
519.000000	72.482179
518.000000	72.020729
517.000000	71.211756
516.000000	69.876379
515.000000	68.024738
514.000000	65.839329
513.000000	63.601454
512.000000	61.644494
511.000000	60.295575
510.000000	59.746967
509.000000	59.995533
508.000000	60.928354
507.000000	62.388779
506.000000	64.153168
505.000000	65.976817
504.000000	67.720567
503.000000	69.372243
502.000000	70.920719
501.000000	72.303393
500.000000	73.483422
499.000000	74.503899
498.000000	75.417957
497.000000	76.234654
496.000000	76.947500
495.000000	77.569836
494.000000	78.134678
493.000000	78.658757
492.000000	79.141349
491.000000	79.604948
490.000000	80.078050
489.000000	80.574111
488.000000	81.083847
487.000000	81.594800
486.000000	82.090268
485.000000	82.526863
484.000000	82.850698
483.000000	83.048476
482.000000	83.154518
481.000000	83.197240
480.000000	83.197772
479.000000	83.209810
478.000000	83.279626
477.000000	83.405410
476.000000	83.562742
475.000000	83.727373
474.000000	83.819350
473.000000	83.671793
472.000000	83.146023
471.000000	82.303035
470.000000	81.308221
469.000000	80.288452
468.000000	79.375686
467.000000	78.723098
466.000000	78.337487
465.000000	78.023515
464.000000	77.555473
463.000000	76.868461
462.000000	76.110747
461.000000	75.542349
460.000000	75.457983
459.000000	76.092520
458.000000	77.403042
457.000000	78.963440
456.000000	80.312329
455.000000	81.322028
454.000000	82.068034
453.000000	82.612473
452.000000	83.018804
451.000000	83.408654
450.000000	83.825880
449.000000	84.173069
448.000000	84.311556
447.000000	84.155230
446.000000	83.663432
445.000000	82.859564
444.000000	81.893293
443.000000	81.026753
442.000000	80.482418
441.000000	80.314702
440.000000	80.498175
439.000000	80.995984
438.000000	81.710668
437.000000	82.485207
436.000000	83.206690
435.000000	83.849753
434.000000	84.388359
433.000000	84.756799
432.000000	84.917705
431.000000	84.891496
430.000000	84.723809
429.000000	84.446632
428.000000	84.110815
427.000000	83.815322
426.000000	83.622444
425.000000	83.484944
424.000000	83.343588
423.000000	83.253861
422.000000	83.263669
421.000000	83.265703
420.000000	83.106199
419.000000	82.863847
418.000000	82.790084
417.000000	82.846920
416.000000	82.860971
415.000000	82.823108
414.000000	82.781272
413.000000	82.725363
412.000000	82.647900
411.000000	82.603294
410.000000	82.665951
409.000000	82.801579
408.000000	82.941273
407.000000	83.116713
406.000000	83.361021
405.000000	83.580216
404.000000	83.716143
403.000000	83.870755
402.000000	84.137635
401.000000	84.409350
400.000000	84.487262
