PE IR       SUBTECH     SPECTRUM    ASCII       PEDS        4.00        
   -1
23ms062_trans.asc
24/10/15
16:27:14.00
24/10/15
16:27:14.00
Administrator
Sample 1279 By Administrator Date Tuesday, October 15 2024
400.000000
#HDR
-1
-1
#GR
cm-1
%T
1.0
0.0
4000.000000
-1.000000
3601
8
108.235820
8.257146
#DATA
4000.000000	72.729256
3999.000000	72.672964
3998.000000	72.623956
3997.000000	72.579262
3996.000000	72.533522
3995.000000	72.485351
3994.000000	72.439022
3993.000000	72.398297
3992.000000	72.360557
3991.000000	72.319673
3990.000000	72.271777
3989.000000	72.216503
3988.000000	72.154724
3987.000000	72.087259
3986.000000	72.015308
3985.000000	71.939436
3984.000000	71.858615
3983.000000	71.770834
3982.000000	71.675084
3981.000000	71.574665
3980.000000	71.478069
3979.000000	71.395417
3978.000000	71.335838
3977.000000	71.305704
3976.000000	71.306352
3975.000000	71.333808
3974.000000	71.382180
3973.000000	71.450140
3972.000000	71.538148
3971.000000	71.643312
3970.000000	71.758600
3969.000000	71.873226
3968.000000	71.977298
3967.000000	72.066101
3966.000000	72.140655
3965.000000	72.204323
3964.000000	72.257565
3963.000000	72.295167
3962.000000	72.312642
3961.000000	72.315039
3960.000000	72.310701
3959.000000	72.305814
3958.000000	72.306463
3957.000000	72.316554
3956.000000	72.338687
3955.000000	72.373817
3954.000000	72.424527
3953.000000	72.495360
3952.000000	72.589097
3951.000000	72.706983
3950.000000	72.841706
3949.000000	72.974446
3948.000000	73.096273
3947.000000	73.226930
3946.000000	73.393403
3945.000000	73.592599
3944.000000	73.789036
3943.000000	73.946896
3942.000000	74.062673
3941.000000	74.168127
3940.000000	74.285244
3939.000000	74.400697
3938.000000	74.493779
3937.000000	74.563013
3936.000000	74.630376
3935.000000	74.714227
3934.000000	74.816302
3933.000000	74.923703
3932.000000	75.011990
3931.000000	75.064594
3930.000000	75.082275
3929.000000	75.094740
3928.000000	75.143713
3927.000000	75.227010
3926.000000	75.295512
3925.000000	75.313426
3924.000000	75.297428
3923.000000	75.288586
3922.000000	75.299883
3921.000000	75.327214
3920.000000	75.381029
3919.000000	75.465229
3918.000000	75.552425
3917.000000	75.613455
3916.000000	75.658964
3915.000000	75.724234
3914.000000	75.815297
3913.000000	75.918074
3912.000000	76.013347
3911.000000	76.079951
3910.000000	76.116919
3909.000000	76.143550
3908.000000	76.200506
3907.000000	76.306192
3906.000000	76.423722
3905.000000	76.493621
3904.000000	76.502950
3903.000000	76.523592
3902.000000	76.636276
3901.000000	76.813411
3900.000000	76.955300
3899.000000	77.010427
3898.000000	77.001817
3897.000000	76.990863
3896.000000	77.016477
3895.000000	77.104563
3894.000000	77.268667
3893.000000	77.449984
3892.000000	77.503137
3891.000000	77.353363
3890.000000	77.163748
3889.000000	77.145052
3888.000000	77.308706
3887.000000	77.501199
3886.000000	77.546530
3885.000000	77.433186
3884.000000	77.348076
3883.000000	77.429020
3882.000000	77.612752
3881.000000	77.723087
3880.000000	77.647827
3879.000000	77.484037
3878.000000	77.428200
3877.000000	77.527079
3876.000000	77.651253
3875.000000	77.653035
3874.000000	77.553425
3873.000000	77.531029
3872.000000	77.664092
3871.000000	77.807575
3870.000000	77.771263
3869.000000	77.613227
3868.000000	77.575210
3867.000000	77.708315
3866.000000	77.874157
3865.000000	77.987123
3864.000000	78.017058
3863.000000	77.983870
3862.000000	77.942894
3861.000000	77.916161
3860.000000	77.889692
3859.000000	77.843293
3858.000000	77.810252
3857.000000	77.876164
3856.000000	78.112226
3855.000000	78.466091
3854.000000	78.606452
3853.000000	78.260207
3852.000000	77.804604
3851.000000	77.715574
3850.000000	77.902913
3849.000000	78.122618
3848.000000	78.279684
3847.000000	78.369691
3846.000000	78.425648
3845.000000	78.461327
3844.000000	78.435323
3843.000000	78.356715
3842.000000	78.312958
3841.000000	78.359222
3840.000000	78.477365
3839.000000	78.578317
3838.000000	78.570964
3837.000000	78.463873
3836.000000	78.376041
3835.000000	78.413197
3834.000000	78.552518
3833.000000	78.679843
3832.000000	78.712774
3831.000000	78.674920
3830.000000	78.669041
3829.000000	78.760067
3828.000000	78.862237
3827.000000	78.844166
3826.000000	78.722010
3825.000000	78.660219
3824.000000	78.781938
3823.000000	79.030880
3822.000000	79.169884
3821.000000	78.993677
3820.000000	78.707830
3819.000000	78.685474
3818.000000	78.942516
3817.000000	79.204303
3816.000000	79.232841
3815.000000	79.082240
3814.000000	78.995121
3813.000000	79.040215
3812.000000	79.116852
3811.000000	79.188873
3810.000000	79.318998
3809.000000	79.517952
3808.000000	79.632722
3807.000000	79.509816
3806.000000	79.267446
3805.000000	79.216908
3804.000000	79.453713
3803.000000	79.788318
3802.000000	79.933324
3801.000000	79.768567
3800.000000	79.557327
3799.000000	79.580181
3798.000000	79.781246
3797.000000	79.953576
3796.000000	79.997127
3795.000000	79.974095
3794.000000	79.984846
3793.000000	80.051230
3792.000000	80.137235
3791.000000	80.203710
3790.000000	80.240112
3789.000000	80.264398
3788.000000	80.304512
3787.000000	80.371355
3786.000000	80.426248
3785.000000	80.422474
3784.000000	80.381252
3783.000000	80.384169
3782.000000	80.472832
3781.000000	80.598878
3780.000000	80.662310
3779.000000	80.621682
3778.000000	80.554466
3777.000000	80.542146
3776.000000	80.560463
3775.000000	80.556911
3774.000000	80.556011
3773.000000	80.613131
3772.000000	80.706448
3771.000000	80.747980
3770.000000	80.686242
3769.000000	80.580423
3768.000000	80.549100
3767.000000	80.606156
3766.000000	80.644771
3765.000000	80.599097
3764.000000	80.531474
3763.000000	80.543942
3762.000000	80.631054
3761.000000	80.726264
3760.000000	80.781345
3759.000000	80.751168
3758.000000	80.641132
3757.000000	80.522984
3756.000000	80.471807
3755.000000	80.501121
3754.000000	80.579400
3753.000000	80.706777
3752.000000	80.868576
3751.000000	80.910934
3750.000000	80.699180
3749.000000	80.416798
3748.000000	80.409986
3747.000000	80.748921
3746.000000	81.228688
3745.000000	81.504232
3744.000000	81.303030
3743.000000	80.942957
3742.000000	80.863035
3741.000000	80.990457
3740.000000	81.140084
3739.000000	81.270886
3738.000000	81.405730
3737.000000	81.541567
3736.000000	81.660226
3735.000000	81.790156
3734.000000	81.932122
3733.000000	82.017894
3732.000000	81.991250
3731.000000	81.910128
3730.000000	81.906901
3729.000000	82.015425
3728.000000	82.158093
3727.000000	82.255147
3726.000000	82.297870
3725.000000	82.336840
3724.000000	82.393034
3723.000000	82.453301
3722.000000	82.486556
3721.000000	82.497173
3720.000000	82.523943
3719.000000	82.541400
3718.000000	82.504052
3717.000000	82.443829
3716.000000	82.442234
3715.000000	82.543877
3714.000000	82.722538
3713.000000	82.912214
3712.000000	83.020866
3711.000000	82.996084
3710.000000	82.917701
3709.000000	82.889479
3708.000000	82.918344
3707.000000	82.970541
3706.000000	83.040950
3705.000000	83.149640
3704.000000	83.290249
3703.000000	83.408531
3702.000000	83.432356
3701.000000	83.356222
3700.000000	83.285366
3699.000000	83.298566
3698.000000	83.350619
3697.000000	83.376294
3696.000000	83.366798
3695.000000	83.344535
3694.000000	83.326311
3693.000000	83.334682
3692.000000	83.404409
3691.000000	83.538531
3690.000000	83.664996
3689.000000	83.656451
3688.000000	83.504298
3687.000000	83.390322
3686.000000	83.434607
3685.000000	83.559200
3684.000000	83.662937
3683.000000	83.720431
3682.000000	83.735480
3681.000000	83.674198
3680.000000	83.543569
3679.000000	83.478712
3678.000000	83.590795
3677.000000	83.817086
3676.000000	83.875027
3675.000000	83.587786
3674.000000	83.281458
3673.000000	83.308273
3672.000000	83.575103
3671.000000	83.825728
3670.000000	83.864537
3669.000000	83.692175
3668.000000	83.535347
3667.000000	83.537741
3666.000000	83.624123
3665.000000	83.690804
3664.000000	83.715789
3663.000000	83.694949
3662.000000	83.618766
3661.000000	83.496451
3660.000000	83.397716
3659.000000	83.393765
3658.000000	83.447589
3657.000000	83.412019
3656.000000	83.183390
3655.000000	82.880674
3654.000000	82.691301
3653.000000	82.634080
3652.000000	82.636529
3651.000000	82.655744
3650.000000	82.633466
3649.000000	82.495661
3648.000000	82.265320
3647.000000	82.067980
3646.000000	81.975302
3645.000000	81.962064
3644.000000	81.970775
3643.000000	81.949698
3642.000000	81.882288
3641.000000	81.778667
3640.000000	81.652703
3639.000000	81.502975
3638.000000	81.338512
3637.000000	81.191296
3636.000000	81.054509
3635.000000	80.866501
3634.000000	80.594423
3633.000000	80.319268
3632.000000	80.160634
3631.000000	80.146842
3630.000000	80.155021
3629.000000	79.951457
3628.000000	79.514757
3627.000000	79.140671
3626.000000	78.976916
3625.000000	78.889987
3624.000000	78.768466
3623.000000	78.624473
3622.000000	78.499334
3621.000000	78.386280
3620.000000	78.219128
3619.000000	77.923911
3618.000000	77.547133
3617.000000	77.238029
3616.000000	77.058923
3615.000000	76.940916
3614.000000	76.791692
3613.000000	76.585361
3612.000000	76.376186
3611.000000	76.222781
3610.000000	76.113747
3609.000000	75.991853
3608.000000	75.817001
3607.000000	75.600994
3606.000000	75.390908
3605.000000	75.208708
3604.000000	75.045917
3603.000000	74.880848
3602.000000	74.684874
3601.000000	74.445609
3600.000000	74.187717
3599.000000	73.935119
3598.000000	73.700133
3597.000000	73.489672
3596.000000	73.283926
3595.000000	73.046380
3594.000000	72.756201
3593.000000	72.437168
3592.000000	72.143901
3591.000000	71.910175
3590.000000	71.729998
3589.000000	71.570305
3588.000000	71.375963
3587.000000	71.112660
3586.000000	70.826060
3585.000000	70.588589
3584.000000	70.413035
3583.000000	70.262875
3582.000000	70.106313
3581.000000	69.938397
3580.000000	69.767039
3579.000000	69.596978
3578.000000	69.427096
3577.000000	69.264239
3576.000000	69.113684
3575.000000	68.967618
3574.000000	68.814269
3573.000000	68.648927
3572.000000	68.485585
3571.000000	68.351111
3570.000000	68.266781
3569.000000	68.235581
3568.000000	68.232034
3567.000000	68.210663
3566.000000	68.160947
3565.000000	68.124173
3564.000000	68.129380
3563.000000	68.166796
3562.000000	68.217259
3561.000000	68.272540
3560.000000	68.330066
3559.000000	68.385018
3558.000000	68.432946
3557.000000	68.480021
3556.000000	68.542522
3555.000000	68.627363
3554.000000	68.722076
3553.000000	68.803648
3552.000000	68.859377
3551.000000	68.900933
3550.000000	68.950069
3549.000000	69.019769
3548.000000	69.110914
3547.000000	69.214883
3546.000000	69.316941
3545.000000	69.409881
3544.000000	69.496353
3543.000000	69.578201
3542.000000	69.652339
3541.000000	69.716239
3540.000000	69.774128
3539.000000	69.827505
3538.000000	69.874680
3537.000000	69.913569
3536.000000	69.942423
3535.000000	69.959680
3534.000000	69.964255
3533.000000	69.959618
3532.000000	69.950211
3531.000000	69.934915
3530.000000	69.904452
3529.000000	69.848953
3528.000000	69.768885
3527.000000	69.677311
3526.000000	69.589699
3525.000000	69.511467
3524.000000	69.432513
3523.000000	69.333944
3522.000000	69.207658
3521.000000	69.062411
3520.000000	68.908492
3519.000000	68.741195
3518.000000	68.549918
3517.000000	68.334801
3516.000000	68.101968
3515.000000	67.852217
3514.000000	67.584878
3513.000000	67.305605
3512.000000	67.020759
3511.000000	66.725682
3510.000000	66.407443
3509.000000	66.062593
3508.000000	65.704089
3507.000000	65.345958
3506.000000	64.989596
3505.000000	64.629975
3504.000000	64.264921
3503.000000	63.896430
3502.000000	63.530174
3501.000000	63.174883
3500.000000	62.836011
3499.000000	62.509669
3498.000000	62.189194
3497.000000	61.875295
3496.000000	61.575262
3495.000000	61.293972
3494.000000	61.032919
3493.000000	60.795317
3492.000000	60.584660
3491.000000	60.400769
3490.000000	60.241147
3489.000000	60.105351
3488.000000	59.995614
3487.000000	59.913871
3486.000000	59.863211
3485.000000	59.847672
3484.000000	59.864627
3483.000000	59.902884
3482.000000	59.954374
3481.000000	60.025755
3480.000000	60.130398
3479.000000	60.271476
3478.000000	60.440156
3477.000000	60.627302
3476.000000	60.828443
3475.000000	61.038661
3474.000000	61.252838
3473.000000	61.470515
3472.000000	61.693168
3471.000000	61.920191
3470.000000	62.152841
3469.000000	62.396910
3468.000000	62.655836
3467.000000	62.924381
3466.000000	63.195249
3465.000000	63.466458
3464.000000	63.736660
3463.000000	63.999636
3462.000000	64.251414
3461.000000	64.498674
3460.000000	64.751643
3459.000000	65.010851
3458.000000	65.269797
3457.000000	65.524329
3456.000000	65.775497
3455.000000	66.025282
3454.000000	66.272441
3453.000000	66.515150
3452.000000	66.753754
3451.000000	66.992723
3450.000000	67.238739
3449.000000	67.493477
3448.000000	67.749539
3447.000000	67.997610
3446.000000	68.239796
3445.000000	68.488004
3444.000000	68.746753
3443.000000	69.006026
3442.000000	69.254363
3441.000000	69.491518
3440.000000	69.724112
3439.000000	69.954767
3438.000000	70.183457
3437.000000	70.412579
3436.000000	70.646180
3435.000000	70.884595
3434.000000	71.121439
3433.000000	71.350006
3432.000000	71.568651
3431.000000	71.781301
3430.000000	71.993568
3429.000000	72.208182
3428.000000	72.423185
3427.000000	72.632933
3426.000000	72.833921
3425.000000	73.029250
3424.000000	73.225816
3423.000000	73.427073
3422.000000	73.630789
3421.000000	73.833525
3420.000000	74.034358
3419.000000	74.234163
3418.000000	74.432882
3417.000000	74.629324
3416.000000	74.822821
3415.000000	75.014202
3414.000000	75.205566
3413.000000	75.399143
3412.000000	75.595674
3411.000000	75.794248
3410.000000	75.994258
3409.000000	76.196960
3408.000000	76.403535
3407.000000	76.611221
3406.000000	76.815272
3405.000000	77.013504
3404.000000	77.207237
3403.000000	77.399642
3402.000000	77.596260
3401.000000	77.805221
3400.000000	78.029463
3399.000000	78.260214
3398.000000	78.483762
3397.000000	78.694730
3396.000000	78.898341
3395.000000	79.100909
3394.000000	79.304555
3393.000000	79.510869
3392.000000	79.722888
3391.000000	79.940599
3390.000000	80.159200
3389.000000	80.373577
3388.000000	80.582157
3387.000000	80.785064
3386.000000	80.982782
3385.000000	81.177451
3384.000000	81.371951
3383.000000	81.567307
3382.000000	81.762820
3381.000000	81.959129
3380.000000	82.157009
3379.000000	82.354954
3378.000000	82.551338
3377.000000	82.747657
3376.000000	82.945673
3375.000000	83.142573
3374.000000	83.333775
3373.000000	83.519610
3372.000000	83.705557
3371.000000	83.897027
3370.000000	84.097570
3369.000000	84.309660
3368.000000	84.532977
3367.000000	84.762824
3366.000000	84.993909
3365.000000	85.224909
3364.000000	85.457052
3363.000000	85.690319
3362.000000	85.924358
3361.000000	86.161461
3360.000000	86.404420
3359.000000	86.652551
3358.000000	86.902676
3357.000000	87.152777
3356.000000	87.401546
3355.000000	87.646489
3354.000000	87.886986
3353.000000	88.128139
3352.000000	88.377203
3351.000000	88.635996
3350.000000	88.899568
3349.000000	89.160399
3348.000000	89.412572
3347.000000	89.652975
3346.000000	89.882385
3345.000000	90.105687
3344.000000	90.326030
3343.000000	90.539502
3342.000000	90.738904
3341.000000	90.921745
3340.000000	91.091349
3339.000000	91.249732
3338.000000	91.391862
3337.000000	91.508052
3336.000000	91.588474
3335.000000	91.625743
3334.000000	91.615795
3333.000000	91.555032
3332.000000	91.438208
3331.000000	91.256730
3330.000000	91.001183
3329.000000	90.666330
3328.000000	90.249608
3327.000000	89.748876
3326.000000	89.160169
3325.000000	88.476943
3324.000000	87.691881
3323.000000	86.794158
3322.000000	85.773599
3321.000000	84.621608
3320.000000	83.324857
3319.000000	81.865616
3318.000000	80.220565
3317.000000	78.367426
3316.000000	76.283829
3315.000000	73.942099
3314.000000	71.321991
3313.000000	68.418625
3312.000000	65.246832
3311.000000	61.840524
3310.000000	58.249667
3309.000000	54.546782
3308.000000	50.818083
3307.000000	47.146868
3306.000000	43.607717
3305.000000	40.264960
3304.000000	37.167574
3303.000000	34.347471
3302.000000	31.824523
3301.000000	29.611780
3300.000000	27.717413
3299.000000	26.137046
3298.000000	24.862195
3297.000000	23.887140
3296.000000	23.191777
3295.000000	22.734936
3294.000000	22.455464
3293.000000	22.286764
3292.000000	22.168301
3291.000000	22.045423
3290.000000	21.884967
3289.000000	21.682539
3288.000000	21.456165
3287.000000	21.233817
3286.000000	21.042592
3285.000000	20.903852
3284.000000	20.823442
3283.000000	20.788783
3282.000000	20.779125
3281.000000	20.775470
3280.000000	20.760227
3279.000000	20.715852
3278.000000	20.632899
3277.000000	20.516324
3276.000000	20.378615
3275.000000	20.231585
3274.000000	20.089795
3273.000000	19.976135
3272.000000	19.917184
3271.000000	19.933932
3270.000000	20.042246
3269.000000	20.254965
3268.000000	20.576645
3267.000000	21.001937
3266.000000	21.518435
3265.000000	22.109550
3264.000000	22.747770
3263.000000	23.389180
3262.000000	23.982046
3261.000000	24.476796
3260.000000	24.826336
3259.000000	24.987815
3258.000000	24.935621
3257.000000	24.664887
3256.000000	24.188145
3255.000000	23.525479
3254.000000	22.702418
3253.000000	21.754427
3252.000000	20.712239
3251.000000	19.596982
3250.000000	18.427021
3249.000000	17.226262
3248.000000	16.026083
3247.000000	14.860147
3246.000000	13.767945
3245.000000	12.796029
3244.000000	11.986515
3243.000000	11.360579
3242.000000	10.916428
3241.000000	10.629000
3240.000000	10.448936
3239.000000	10.315707
3238.000000	10.177772
3237.000000	10.008896
3236.000000	9.804434
3235.000000	9.572030
3234.000000	9.330399
3233.000000	9.101569
3232.000000	8.896584
3231.000000	8.711615
3230.000000	8.542850
3229.000000	8.400012
3228.000000	8.299850
3227.000000	8.257146
3226.000000	8.286808
3225.000000	8.405569
3224.000000	8.625211
3223.000000	8.944537
3222.000000	9.354989
3221.000000	9.845704
3220.000000	10.396140
3219.000000	10.973422
3218.000000	11.541665
3217.000000	12.072247
3216.000000	12.543109
3215.000000	12.938127
3214.000000	13.255012
3213.000000	13.508769
3212.000000	13.721556
3211.000000	13.913669
3210.000000	14.106860
3209.000000	14.326160
3208.000000	14.591936
3207.000000	14.914257
3206.000000	15.299101
3205.000000	15.752278
3204.000000	16.274257
3203.000000	16.856735
3202.000000	17.489863
3201.000000	18.168129
3200.000000	18.883271
3199.000000	19.620815
3198.000000	20.366518
3197.000000	21.111177
3196.000000	21.846028
3195.000000	22.559053
3194.000000	23.240384
3193.000000	23.884967
3192.000000	24.486456
3191.000000	25.033350
3190.000000	25.517160
3189.000000	25.937015
3188.000000	26.293710
3187.000000	26.586910
3186.000000	26.820299
3185.000000	27.005870
3184.000000	27.156037
3183.000000	27.277973
3182.000000	27.379174
3181.000000	27.469943
3180.000000	27.558707
3179.000000	27.649060
3178.000000	27.746270
3177.000000	27.861313
3176.000000	28.004458
3175.000000	28.180459
3174.000000	28.393239
3173.000000	28.648913
3172.000000	28.948902
3171.000000	29.288176
3170.000000	29.662007
3169.000000	30.070065
3168.000000	30.511106
3167.000000	30.978221
3166.000000	31.465553
3165.000000	31.971333
3164.000000	32.491898
3163.000000	33.018859
3162.000000	33.544542
3161.000000	34.064189
3160.000000	34.568231
3159.000000	35.038251
3158.000000	35.451221
3157.000000	35.784125
3156.000000	36.008504
3155.000000	36.089127
3154.000000	35.993896
3153.000000	35.702117
3152.000000	35.213961
3151.000000	34.557578
3150.000000	33.794798
3149.000000	33.010685
3148.000000	32.281288
3147.000000	31.648905
3146.000000	31.116928
3145.000000	30.656303
3144.000000	30.214721
3143.000000	29.731662
3142.000000	29.161451
3141.000000	28.486531
3140.000000	27.712151
3139.000000	26.858773
3138.000000	25.960950
3137.000000	25.063676
3136.000000	24.209312
3135.000000	23.430074
3134.000000	22.753481
3133.000000	22.207087
3132.000000	21.810131
3131.000000	21.568452
3130.000000	21.483391
3129.000000	21.553559
3128.000000	21.771321
3127.000000	22.120141
3126.000000	22.582623
3125.000000	23.147548
3124.000000	23.799761
3123.000000	24.518803
3122.000000	25.286503
3121.000000	26.090978
3120.000000	26.921445
3119.000000	27.762742
3118.000000	28.602429
3117.000000	29.433533
3116.000000	30.247737
3115.000000	31.032534
3114.000000	31.778635
3113.000000	32.483484
3112.000000	33.144561
3111.000000	33.757357
3110.000000	34.320159
3109.000000	34.836059
3108.000000	35.304977
3107.000000	35.721576
3106.000000	36.084273
3105.000000	36.397663
3104.000000	36.667762
3103.000000	36.899477
3102.000000	37.103564
3101.000000	37.300107
3100.000000	37.510662
3099.000000	37.752004
3098.000000	38.038203
3097.000000	38.381928
3096.000000	38.787905
3095.000000	39.251080
3094.000000	39.762591
3093.000000	40.313774
3092.000000	40.893544
3091.000000	41.487494
3090.000000	42.084225
3089.000000	42.677037
3088.000000	43.258765
3087.000000	43.821117
3086.000000	44.360583
3085.000000	44.879216
3084.000000	45.377561
3083.000000	45.852009
3082.000000	46.300889
3081.000000	46.728210
3080.000000	47.138299
3079.000000	47.532465
3078.000000	47.913020
3077.000000	48.283899
3076.000000	48.646014
3075.000000	48.996588
3074.000000	49.334886
3073.000000	49.664119
3072.000000	49.985536
3071.000000	50.296912
3070.000000	50.598593
3069.000000	50.895868
3068.000000	51.193038
3067.000000	51.488817
3066.000000	51.780161
3065.000000	52.066405
3064.000000	52.347602
3063.000000	52.622666
3062.000000	52.891326
3061.000000	53.154957
3060.000000	53.413806
3059.000000	53.666340
3058.000000	53.912677
3057.000000	54.154794
3056.000000	54.392318
3055.000000	54.622309
3054.000000	54.843811
3053.000000	55.059523
3052.000000	55.271231
3051.000000	55.477197
3050.000000	55.675526
3049.000000	55.866362
3048.000000	56.049988
3047.000000	56.225967
3046.000000	56.395833
3045.000000	56.563455
3044.000000	56.731169
3043.000000	56.898648
3042.000000	57.066208
3041.000000	57.234954
3040.000000	57.403184
3039.000000	57.566574
3038.000000	57.723458
3037.000000	57.876938
3036.000000	58.030665
3035.000000	58.186293
3034.000000	58.345480
3033.000000	58.509683
3032.000000	58.676611
3031.000000	58.841645
3030.000000	59.003974
3029.000000	59.166865
3028.000000	59.331312
3027.000000	59.494787
3026.000000	59.657118
3025.000000	59.821819
3024.000000	59.989762
3023.000000	60.156603
3022.000000	60.318534
3021.000000	60.476345
3020.000000	60.632235
3019.000000	60.786140
3018.000000	60.937193
3017.000000	61.085034
3016.000000	61.227546
3015.000000	61.360661
3014.000000	61.481631
3013.000000	61.589708
3012.000000	61.682352
3011.000000	61.753291
3010.000000	61.796117
3009.000000	61.805260
3008.000000	61.772544
3007.000000	61.686730
3006.000000	61.537009
3005.000000	61.316968
3004.000000	61.023390
3003.000000	60.656693
3002.000000	60.224466
3001.000000	59.740298
3000.000000	59.217757
2999.000000	58.663629
2998.000000	58.081647
2997.000000	57.483814
2996.000000	56.903132
2995.000000	56.397325
2994.000000	56.031541
2993.000000	55.845458
2992.000000	55.827106
2991.000000	55.921954
2990.000000	56.065966
2989.000000	56.211558
2988.000000	56.331594
2987.000000	56.413587
2986.000000	56.459367
2985.000000	56.482447
2984.000000	56.501044
2983.000000	56.534080
2982.000000	56.601783
2981.000000	56.722431
2980.000000	56.901915
2979.000000	57.129403
2978.000000	57.386654
2977.000000	57.660292
2976.000000	57.947841
2975.000000	58.256245
2974.000000	58.595302
2973.000000	58.964716
2972.000000	59.343432
2971.000000	59.693738
2970.000000	59.975237
2969.000000	60.155288
2968.000000	60.207288
2967.000000	60.110601
2966.000000	59.854679
2965.000000	59.439729
2964.000000	58.873160
2963.000000	58.166706
2962.000000	57.342069
2961.000000	56.429786
2960.000000	55.459681
2959.000000	54.452656
2958.000000	53.423080
2957.000000	52.391417
2956.000000	51.396078
2955.000000	50.500652
2954.000000	49.778582
2953.000000	49.274865
2952.000000	48.972787
2951.000000	48.805599
2950.000000	48.708625
2949.000000	48.658151
2948.000000	48.670552
2947.000000	48.773239
2946.000000	48.977328
2945.000000	49.259832
2944.000000	49.561712
2943.000000	49.815662
2942.000000	49.989399
2941.000000	50.111381
2940.000000	50.258330
2939.000000	50.519590
2938.000000	50.964222
2937.000000	51.619697
2936.000000	52.465098
2935.000000	53.444552
2934.000000	54.492069
2933.000000	55.549459
2932.000000	56.570237
2931.000000	57.522038
2930.000000	58.390038
2929.000000	59.172940
2928.000000	59.873848
2927.000000	60.496634
2926.000000	61.050537
2925.000000	61.548663
2924.000000	61.999962
2923.000000	62.406636
2922.000000	62.770183
2921.000000	63.094189
2920.000000	63.379627
2919.000000	63.624745
2918.000000	63.830373
2917.000000	64.001448
2916.000000	64.142466
2915.000000	64.255945
2914.000000	64.346619
2913.000000	64.421145
2912.000000	64.483464
2911.000000	64.534715
2910.000000	64.578056
2909.000000	64.619605
2908.000000	64.662743
2907.000000	64.706970
2906.000000	64.752547
2905.000000	64.801767
2904.000000	64.854385
2903.000000	64.907426
2902.000000	64.959556
2901.000000	65.010699
2900.000000	65.058356
2899.000000	65.096682
2898.000000	65.121403
2897.000000	65.129478
2896.000000	65.114337
2895.000000	65.066551
2894.000000	64.980306
2893.000000	64.854812
2892.000000	64.688462
2891.000000	64.477526
2890.000000	64.222113
2889.000000	63.929052
2888.000000	63.607728
2887.000000	63.268290
2886.000000	62.925165
2885.000000	62.596432
2884.000000	62.297960
2883.000000	62.040764
2882.000000	61.835127
2881.000000	61.691688
2880.000000	61.615800
2879.000000	61.605928
2878.000000	61.658211
2877.000000	61.768364
2876.000000	61.928273
2875.000000	62.126173
2874.000000	62.351258
2873.000000	62.593918
2872.000000	62.841364
2871.000000	63.079223
2870.000000	63.300391
2869.000000	63.507444
2868.000000	63.705983
2867.000000	63.899940
2866.000000	64.093126
2865.000000	64.288893
2864.000000	64.485642
2863.000000	64.677729
2862.000000	64.862687
2861.000000	65.043363
2860.000000	65.222087
2859.000000	65.398167
2858.000000	65.572616
2857.000000	65.750171
2856.000000	65.934687
2855.000000	66.126595
2854.000000	66.325561
2853.000000	66.530321
2852.000000	66.734280
2851.000000	66.926088
2850.000000	67.096970
2849.000000	67.244404
2848.000000	67.368931
2847.000000	67.472677
2846.000000	67.562201
2845.000000	67.647634
2844.000000	67.736680
2843.000000	67.832320
2842.000000	67.936992
2841.000000	68.055118
2840.000000	68.189802
2839.000000	68.340609
2838.000000	68.505733
2837.000000	68.683031
2836.000000	68.868247
2835.000000	69.055700
2834.000000	69.241635
2833.000000	69.424348
2832.000000	69.601262
2831.000000	69.769205
2830.000000	69.927932
2829.000000	70.079921
2828.000000	70.226176
2827.000000	70.365541
2826.000000	70.498019
2825.000000	70.625155
2824.000000	70.747022
2823.000000	70.862123
2822.000000	70.970493
2821.000000	71.073521
2820.000000	71.170594
2819.000000	71.259522
2818.000000	71.340350
2817.000000	71.415313
2816.000000	71.485157
2815.000000	71.549105
2814.000000	71.608633
2813.000000	71.667657
2812.000000	71.728682
2811.000000	71.792262
2810.000000	71.860023
2809.000000	71.934116
2808.000000	72.013395
2807.000000	72.093915
2806.000000	72.173664
2805.000000	72.253418
2804.000000	72.332826
2803.000000	72.409614
2802.000000	72.483161
2801.000000	72.555116
2800.000000	72.625981
2799.000000	72.694484
2798.000000	72.760516
2797.000000	72.825132
2796.000000	72.887412
2795.000000	72.944794
2794.000000	72.996831
2793.000000	73.045192
2792.000000	73.089903
2791.000000	73.129322
2790.000000	73.163983
2789.000000	73.196673
2788.000000	73.228441
2787.000000	73.258199
2786.000000	73.286672
2785.000000	73.317116
2784.000000	73.351651
2783.000000	73.390598
2782.000000	73.435717
2781.000000	73.489996
2780.000000	73.553391
2779.000000	73.622174
2778.000000	73.693048
2777.000000	73.764793
2776.000000	73.835574
2775.000000	73.902284
2774.000000	73.963396
2773.000000	74.019268
2772.000000	74.069259
2771.000000	74.111955
2770.000000	74.148616
2769.000000	74.183006
2768.000000	74.217294
2767.000000	74.250856
2766.000000	74.283263
2765.000000	74.315076
2764.000000	74.345428
2763.000000	74.372457
2762.000000	74.396585
2761.000000	74.420157
2760.000000	74.443388
2759.000000	74.463736
2758.000000	74.479547
2757.000000	74.490775
2756.000000	74.495833
2755.000000	74.491054
2754.000000	74.473927
2753.000000	74.444441
2752.000000	74.403088
2751.000000	74.351096
2750.000000	74.293264
2749.000000	74.237200
2748.000000	74.189125
2747.000000	74.153065
2746.000000	74.133682
2745.000000	74.136243
2744.000000	74.163193
2743.000000	74.213097
2742.000000	74.283197
2741.000000	74.369840
2740.000000	74.466108
2739.000000	74.563261
2738.000000	74.655234
2737.000000	74.739629
2736.000000	74.815197
2735.000000	74.881398
2734.000000	74.940352
2733.000000	74.995637
2732.000000	75.048345
2731.000000	75.096937
2730.000000	75.140925
2729.000000	75.181437
2728.000000	75.218383
2727.000000	75.250032
2726.000000	75.275482
2725.000000	75.295134
2724.000000	75.308852
2723.000000	75.316723
2722.000000	75.321463
2721.000000	75.327045
2720.000000	75.335251
2719.000000	75.346122
2718.000000	75.360974
2717.000000	75.381831
2716.000000	75.408457
2715.000000	75.439193
2714.000000	75.474347
2713.000000	75.515333
2712.000000	75.560909
2711.000000	75.607813
2710.000000	75.654535
2709.000000	75.701158
2708.000000	75.746078
2707.000000	75.786522
2706.000000	75.822278
2705.000000	75.855624
2704.000000	75.887937
2703.000000	75.919615
2702.000000	75.952734
2701.000000	75.989901
2700.000000	76.030604
2699.000000	76.071865
2698.000000	76.112029
2697.000000	76.150552
2696.000000	76.184674
2695.000000	76.210491
2694.000000	76.227370
2693.000000	76.237982
2692.000000	76.244276
2691.000000	76.246597
2690.000000	76.246458
2689.000000	76.246446
2688.000000	76.247222
2687.000000	76.248022
2686.000000	76.249736
2685.000000	76.254124
2684.000000	76.260410
2683.000000	76.266210
2682.000000	76.271584
2681.000000	76.278680
2680.000000	76.287703
2679.000000	76.296918
2678.000000	76.306474
2677.000000	76.318360
2676.000000	76.332840
2675.000000	76.348626
2674.000000	76.366585
2673.000000	76.389783
2672.000000	76.419607
2671.000000	76.455459
2670.000000	76.498095
2669.000000	76.549412
2668.000000	76.609084
2667.000000	76.674484
2666.000000	76.744235
2665.000000	76.818571
2664.000000	76.896133
2663.000000	76.974087
2662.000000	77.051084
2661.000000	77.126916
2660.000000	77.199566
2659.000000	77.265930
2658.000000	77.325389
2657.000000	77.379724
2656.000000	77.429778
2655.000000	77.475282
2654.000000	77.517516
2653.000000	77.558172
2652.000000	77.596046
2651.000000	77.628006
2650.000000	77.652803
2649.000000	77.671077
2648.000000	77.682188
2647.000000	77.685195
2646.000000	77.682942
2645.000000	77.681265
2644.000000	77.684022
2643.000000	77.691901
2642.000000	77.705612
2641.000000	77.726672
2640.000000	77.755069
2639.000000	77.789537
2638.000000	77.830468
2637.000000	77.879167
2636.000000	77.934265
2635.000000	77.992473
2634.000000	78.052459
2633.000000	78.115093
2632.000000	78.180135
2631.000000	78.245874
2630.000000	78.312071
2629.000000	78.379643
2628.000000	78.447602
2627.000000	78.513406
2626.000000	78.576132
2625.000000	78.636146
2624.000000	78.692098
2623.000000	78.741417
2622.000000	78.783565
2621.000000	78.819897
2620.000000	78.850312
2619.000000	78.873472
2618.000000	78.889788
2617.000000	78.900899
2616.000000	78.906872
2615.000000	78.906814
2614.000000	78.902234
2613.000000	78.896485
2612.000000	78.890831
2611.000000	78.884450
2610.000000	78.877781
2609.000000	78.872687
2608.000000	78.869402
2607.000000	78.866444
2606.000000	78.863552
2605.000000	78.861722
2604.000000	78.860631
2603.000000	78.859016
2602.000000	78.857333
2601.000000	78.856970
2600.000000	78.857228
2599.000000	78.856059
2598.000000	78.853323
2597.000000	78.850067
2596.000000	78.845187
2595.000000	78.836044
2594.000000	78.822192
2593.000000	78.805473
2592.000000	78.786656
2591.000000	78.765233
2590.000000	78.741962
2589.000000	78.718434
2588.000000	78.694573
2587.000000	78.669677
2586.000000	78.645569
2585.000000	78.625649
2584.000000	78.611302
2583.000000	78.602209
2582.000000	78.599725
2581.000000	78.606289
2580.000000	78.622076
2579.000000	78.645627
2578.000000	78.676835
2577.000000	78.716475
2576.000000	78.762986
2575.000000	78.813221
2574.000000	78.866116
2573.000000	78.921951
2572.000000	78.979212
2571.000000	79.035424
2570.000000	79.090623
2569.000000	79.146816
2568.000000	79.204327
2567.000000	79.262124
2566.000000	79.320946
2565.000000	79.382683
2564.000000	79.447334
2563.000000	79.513763
2562.000000	79.582852
2561.000000	79.656411
2560.000000	79.733585
2559.000000	79.811882
2558.000000	79.890902
2557.000000	79.971672
2556.000000	80.053051
2555.000000	80.132323
2554.000000	80.208882
2553.000000	80.283725
2552.000000	80.355882
2551.000000	80.422924
2550.000000	80.484840
2549.000000	80.543854
2548.000000	80.600857
2547.000000	80.654978
2546.000000	80.706029
2545.000000	80.754406
2544.000000	80.798903
2543.000000	80.838282
2542.000000	80.874554
2541.000000	80.911418
2540.000000	80.949994
2539.000000	80.988839
2538.000000	81.027455
2537.000000	81.066383
2536.000000	81.104317
2535.000000	81.138774
2534.000000	81.169260
2533.000000	81.196927
2532.000000	81.221715
2531.000000	81.242894
2530.000000	81.261987
2529.000000	81.281631
2528.000000	81.301969
2527.000000	81.321065
2526.000000	81.338048
2525.000000	81.352929
2524.000000	81.363867
2523.000000	81.368098
2522.000000	81.365355
2521.000000	81.357038
2520.000000	81.343045
2519.000000	81.322118
2518.000000	81.294524
2517.000000	81.261289
2516.000000	81.220880
2515.000000	81.170751
2514.000000	81.111544
2513.000000	81.046774
2512.000000	80.979304
2511.000000	80.910952
2510.000000	80.845099
2509.000000	80.785659
2508.000000	80.733493
2507.000000	80.686866
2506.000000	80.644971
2505.000000	80.607653
2504.000000	80.572585
2503.000000	80.536800
2502.000000	80.500673
2501.000000	80.467505
2500.000000	80.439433
2499.000000	80.417221
2498.000000	80.404001
2497.000000	80.404415
2496.000000	80.420571
2495.000000	80.451327
2494.000000	80.494975
2493.000000	80.549697
2492.000000	80.611050
2491.000000	80.673622
2490.000000	80.735126
2489.000000	80.796216
2488.000000	80.857441
2487.000000	80.919069
2486.000000	80.983540
2485.000000	81.054243
2484.000000	81.131756
2483.000000	81.214246
2482.000000	81.300477
2481.000000	81.389516
2480.000000	81.478492
2479.000000	81.564152
2478.000000	81.646143
2477.000000	81.725513
2476.000000	81.800962
2475.000000	81.869813
2474.000000	81.932036
2473.000000	81.989427
2472.000000	82.041872
2471.000000	82.087671
2470.000000	82.126771
2469.000000	82.160586
2468.000000	82.188606
2467.000000	82.209141
2466.000000	82.222760
2465.000000	82.231438
2464.000000	82.235181
2463.000000	82.232104
2462.000000	82.221713
2461.000000	82.204899
2460.000000	82.181245
2459.000000	82.150423
2458.000000	82.115210
2457.000000	82.080043
2456.000000	82.046924
2455.000000	82.015963
2454.000000	81.989215
2453.000000	81.969955
2452.000000	81.958653
2451.000000	81.953246
2450.000000	81.953528
2449.000000	81.961167
2448.000000	81.976099
2447.000000	81.996556
2446.000000	82.022426
2445.000000	82.055510
2444.000000	82.095832
2443.000000	82.141427
2442.000000	82.191414
2441.000000	82.245728
2440.000000	82.302544
2439.000000	82.359155
2438.000000	82.415597
2437.000000	82.474172
2436.000000	82.535420
2435.000000	82.597943
2434.000000	82.661429
2433.000000	82.726458
2432.000000	82.791490
2431.000000	82.853447
2430.000000	82.911040
2429.000000	82.964386
2428.000000	83.011875
2427.000000	83.050706
2426.000000	83.080631
2425.000000	83.103535
2424.000000	83.120009
2423.000000	83.129650
2422.000000	83.134029
2421.000000	83.136165
2420.000000	83.136656
2419.000000	83.134154
2418.000000	83.129520
2417.000000	83.126053
2416.000000	83.125869
2415.000000	83.129308
2414.000000	83.137564
2413.000000	83.151774
2412.000000	83.169211
2411.000000	83.184110
2410.000000	83.192841
2409.000000	83.195236
2408.000000	83.191133
2407.000000	83.179369
2406.000000	83.160941
2405.000000	83.139396
2404.000000	83.117274
2403.000000	83.095218
2402.000000	83.074114
2401.000000	83.054490
2400.000000	83.032899
2399.000000	83.002212
2398.000000	82.956798
2397.000000	82.893491
2396.000000	82.808361
2395.000000	82.696882
2394.000000	82.557950
2393.000000	82.396088
2392.000000	82.216963
2391.000000	82.025332
2390.000000	81.827936
2389.000000	81.632777
2388.000000	81.446053
2387.000000	81.270435
2386.000000	81.109884
2385.000000	80.973002
2384.000000	80.866612
2383.000000	80.794090
2382.000000	80.755875
2381.000000	80.750715
2380.000000	80.772981
2379.000000	80.809211
2378.000000	80.845876
2377.000000	80.870983
2376.000000	80.874262
2375.000000	80.846670
2374.000000	80.791528
2373.000000	80.724961
2372.000000	80.658342
2371.000000	80.593672
2370.000000	80.534702
2369.000000	80.491070
2368.000000	80.461039
2367.000000	80.439442
2366.000000	80.435512
2365.000000	80.444932
2364.000000	80.459725
2363.000000	80.480864
2362.000000	80.495514
2361.000000	80.508945
2360.000000	80.522643
2359.000000	80.529755
2358.000000	80.551393
2357.000000	80.574538
2356.000000	80.575219
2355.000000	80.518684
2354.000000	80.365007
2353.000000	80.069527
2352.000000	79.641214
2351.000000	79.283709
2350.000000	79.259448
2349.000000	79.688256
2348.000000	80.446864
2347.000000	81.169079
2346.000000	81.549545
2345.000000	81.542601
2344.000000	81.384495
2343.000000	81.279669
2342.000000	81.248825
2341.000000	81.273433
2340.000000	81.319977
2339.000000	81.390298
2338.000000	81.482614
2337.000000	81.605223
2336.000000	81.750363
2335.000000	81.927529
2334.000000	82.129700
2333.000000	82.342132
2332.000000	82.488511
2331.000000	82.563875
2330.000000	82.587607
2329.000000	82.600897
2328.000000	82.641864
2327.000000	82.701764
2326.000000	82.787484
2325.000000	82.843702
2324.000000	82.839779
2323.000000	82.770087
2322.000000	82.653834
2321.000000	82.525223
2320.000000	82.381315
2319.000000	82.247733
2318.000000	82.131172
2317.000000	82.048314
2316.000000	81.966842
2315.000000	81.861830
2314.000000	81.710474
2313.000000	81.522045
2312.000000	81.307272
2311.000000	81.081543
2310.000000	80.853000
2309.000000	80.621662
2308.000000	80.382224
2307.000000	80.134421
2306.000000	79.887109
2305.000000	79.648511
2304.000000	79.418026
2303.000000	79.198095
2302.000000	78.992286
2301.000000	78.809171
2300.000000	78.650558
2299.000000	78.519045
2298.000000	78.415902
2297.000000	78.338919
2296.000000	78.281404
2295.000000	78.234708
2294.000000	78.198482
2293.000000	78.169057
2292.000000	78.141420
2291.000000	78.107492
2290.000000	78.066835
2289.000000	78.017958
2288.000000	77.958513
2287.000000	77.887348
2286.000000	77.811408
2285.000000	77.739178
2284.000000	77.675310
2283.000000	77.621045
2282.000000	77.578035
2281.000000	77.548476
2280.000000	77.533113
2279.000000	77.535431
2278.000000	77.560441
2277.000000	77.611755
2276.000000	77.685712
2275.000000	77.778662
2274.000000	77.890861
2273.000000	78.022851
2272.000000	78.171360
2271.000000	78.332356
2270.000000	78.505941
2269.000000	78.691450
2268.000000	78.883538
2267.000000	79.077163
2266.000000	79.271324
2265.000000	79.464801
2264.000000	79.652624
2263.000000	79.829390
2262.000000	79.996164
2261.000000	80.155406
2260.000000	80.308281
2259.000000	80.457908
2258.000000	80.611169
2257.000000	80.774445
2256.000000	80.947731
2255.000000	81.130726
2254.000000	81.325438
2253.000000	81.533280
2252.000000	81.750485
2251.000000	81.972644
2250.000000	82.198932
2249.000000	82.427603
2248.000000	82.654453
2247.000000	82.875959
2246.000000	83.092587
2245.000000	83.303568
2244.000000	83.504161
2243.000000	83.690860
2242.000000	83.865422
2241.000000	84.030374
2240.000000	84.185097
2239.000000	84.329297
2238.000000	84.465628
2237.000000	84.594813
2236.000000	84.712934
2235.000000	84.816390
2234.000000	84.905741
2233.000000	84.981945
2232.000000	85.043296
2231.000000	85.089992
2230.000000	85.126773
2229.000000	85.158224
2228.000000	85.185178
2227.000000	85.208343
2226.000000	85.230782
2225.000000	85.253334
2224.000000	85.272094
2223.000000	85.283751
2222.000000	85.289292
2221.000000	85.290105
2220.000000	85.285254
2219.000000	85.275991
2218.000000	85.268221
2217.000000	85.266837
2216.000000	85.271707
2215.000000	85.282030
2214.000000	85.300151
2213.000000	85.327591
2212.000000	85.361979
2211.000000	85.401163
2210.000000	85.446178
2209.000000	85.497082
2208.000000	85.550322
2207.000000	85.603399
2206.000000	85.657247
2205.000000	85.710912
2204.000000	85.758680
2203.000000	85.796315
2202.000000	85.826235
2201.000000	85.853923
2200.000000	85.884001
2199.000000	85.922750
2198.000000	85.978556
2197.000000	86.055270
2196.000000	86.148474
2195.000000	86.251142
2194.000000	86.358590
2193.000000	86.465475
2192.000000	86.564125
2191.000000	86.649981
2190.000000	86.724669
2189.000000	86.790450
2188.000000	86.846200
2187.000000	86.891823
2186.000000	86.931205
2185.000000	86.967328
2184.000000	86.998799
2183.000000	87.024530
2182.000000	87.047038
2181.000000	87.067782
2180.000000	87.083977
2179.000000	87.093231
2178.000000	87.097090
2177.000000	87.096870
2176.000000	87.090760
2175.000000	87.078215
2174.000000	87.062706
2173.000000	87.047231
2172.000000	87.031634
2171.000000	87.017150
2170.000000	87.008500
2169.000000	87.008408
2168.000000	87.014456
2167.000000	87.024118
2166.000000	87.037764
2165.000000	87.053865
2164.000000	87.066900
2163.000000	87.073769
2162.000000	87.077477
2161.000000	87.081540
2160.000000	87.086013
2159.000000	87.091945
2158.000000	87.103883
2157.000000	87.124053
2156.000000	87.149262
2155.000000	87.176956
2154.000000	87.209260
2153.000000	87.247776
2152.000000	87.289980
2151.000000	87.334312
2150.000000	87.383448
2149.000000	87.438722
2148.000000	87.496364
2147.000000	87.553080
2146.000000	87.609844
2145.000000	87.666808
2144.000000	87.720615
2143.000000	87.770498
2142.000000	87.821121
2141.000000	87.876123
2140.000000	87.933460
2139.000000	87.990129
2138.000000	88.045647
2137.000000	88.097855
2136.000000	88.141202
2135.000000	88.172908
2134.000000	88.195741
2133.000000	88.211545
2132.000000	88.217855
2131.000000	88.213914
2130.000000	88.204191
2129.000000	88.192048
2128.000000	88.175307
2127.000000	88.151584
2126.000000	88.122509
2125.000000	88.088731
2124.000000	88.046424
2123.000000	87.993000
2122.000000	87.931351
2121.000000	87.865139
2120.000000	87.795222
2119.000000	87.723648
2118.000000	87.655798
2117.000000	87.594826
2116.000000	87.538634
2115.000000	87.485580
2114.000000	87.437873
2113.000000	87.396518
2112.000000	87.358638
2111.000000	87.323239
2110.000000	87.294297
2109.000000	87.274870
2108.000000	87.263208
2107.000000	87.257568
2106.000000	87.259093
2105.000000	87.266773
2104.000000	87.275326
2103.000000	87.281391
2102.000000	87.286973
2101.000000	87.293431
2100.000000	87.298879
2099.000000	87.303937
2098.000000	87.314562
2097.000000	87.336057
2096.000000	87.368902
2095.000000	87.414804
2094.000000	87.478842
2093.000000	87.561391
2092.000000	87.655248
2091.000000	87.754624
2090.000000	87.860436
2089.000000	87.973872
2088.000000	88.091794
2087.000000	88.212589
2086.000000	88.338708
2085.000000	88.469398
2084.000000	88.597784
2083.000000	88.718851
2082.000000	88.833863
2081.000000	88.943538
2080.000000	89.044463
2079.000000	89.135613
2078.000000	89.221523
2077.000000	89.305247
2076.000000	89.384271
2075.000000	89.458600
2074.000000	89.533160
2073.000000	89.609982
2072.000000	89.686057
2071.000000	89.759503
2070.000000	89.833689
2069.000000	89.910408
2068.000000	89.985475
2067.000000	90.054384
2066.000000	90.116736
2065.000000	90.173395
2064.000000	90.224506
2063.000000	90.273082
2062.000000	90.323835
2061.000000	90.376156
2060.000000	90.424927
2059.000000	90.470227
2058.000000	90.518517
2057.000000	90.572173
2056.000000	90.626324
2055.000000	90.678431
2054.000000	90.731649
2053.000000	90.786686
2052.000000	90.839319
2051.000000	90.886995
2050.000000	90.932562
2049.000000	90.978873
2048.000000	91.024478
2047.000000	91.067743
2046.000000	91.111491
2045.000000	91.157909
2044.000000	91.203999
2043.000000	91.246947
2042.000000	91.289371
2041.000000	91.334606
2040.000000	91.381582
2039.000000	91.428728
2038.000000	91.476788
2037.000000	91.524199
2036.000000	91.565838
2035.000000	91.600825
2034.000000	91.635414
2033.000000	91.673950
2032.000000	91.714522
2031.000000	91.757800
2030.000000	91.809957
2029.000000	91.873534
2028.000000	91.941567
2027.000000	92.006270
2026.000000	92.066896
2025.000000	92.123094
2024.000000	92.170770
2023.000000	92.205368
2022.000000	92.229693
2021.000000	92.249409
2020.000000	92.264149
2019.000000	92.270099
2018.000000	92.268612
2017.000000	92.266404
2016.000000	92.269307
2015.000000	92.280851
2014.000000	92.301974
2013.000000	92.327210
2012.000000	92.345697
2011.000000	92.352205
2010.000000	92.352135
2009.000000	92.350896
2008.000000	92.345269
2007.000000	92.332559
2006.000000	92.318747
2005.000000	92.309280
2004.000000	92.303259
2003.000000	92.297926
2002.000000	92.298274
2001.000000	92.307936
2000.000000	92.323168
1999.000000	92.343982
1998.000000	92.372406
1997.000000	92.409826
1996.000000	92.456135
1995.000000	92.508619
1994.000000	92.557896
1993.000000	92.591908
1992.000000	92.608974
1991.000000	92.623099
1990.000000	92.648426
1989.000000	92.683497
1988.000000	92.717470
1987.000000	92.746277
1986.000000	92.776475
1985.000000	92.812866
1984.000000	92.852281
1983.000000	92.890095
1982.000000	92.927438
1981.000000	92.965608
1980.000000	93.004180
1979.000000	93.045930
1978.000000	93.089837
1977.000000	93.133104
1976.000000	93.176794
1975.000000	93.225959
1974.000000	93.281053
1973.000000	93.337877
1972.000000	93.395863
1971.000000	93.457317
1970.000000	93.517409
1969.000000	93.564476
1968.000000	93.592459
1967.000000	93.608154
1966.000000	93.625033
1965.000000	93.653026
1964.000000	93.693912
1963.000000	93.741273
1962.000000	93.785309
1961.000000	93.823072
1960.000000	93.863031
1959.000000	93.911633
1958.000000	93.959925
1957.000000	93.992368
1956.000000	94.004240
1955.000000	94.003137
1954.000000	93.994050
1953.000000	93.976759
1952.000000	93.951606
1951.000000	93.920078
1950.000000	93.886929
1949.000000	93.850724
1948.000000	93.806784
1947.000000	93.759782
1946.000000	93.718586
1945.000000	93.681728
1944.000000	93.637120
1943.000000	93.580912
1942.000000	93.530714
1941.000000	93.509900
1940.000000	93.527899
1939.000000	93.578038
1938.000000	93.644484
1937.000000	93.715438
1936.000000	93.792335
1935.000000	93.881739
1934.000000	93.979437
1933.000000	94.075284
1932.000000	94.162682
1931.000000	94.241048
1930.000000	94.317791
1929.000000	94.385331
1928.000000	94.435490
1927.000000	94.476271
1926.000000	94.521247
1925.000000	94.570200
1924.000000	94.594902
1923.000000	94.590154
1922.000000	94.590503
1921.000000	94.620087
1920.000000	94.664144
1919.000000	94.694488
1918.000000	94.707852
1917.000000	94.723415
1916.000000	94.743517
1915.000000	94.760358
1914.000000	94.770341
1913.000000	94.768085
1912.000000	94.744760
1911.000000	94.702641
1910.000000	94.657920
1909.000000	94.611198
1908.000000	94.556892
1907.000000	94.500672
1906.000000	94.455398
1905.000000	94.420909
1904.000000	94.366870
1903.000000	94.286254
1902.000000	94.205103
1901.000000	94.127642
1900.000000	94.036740
1899.000000	93.936422
1898.000000	93.853528
1897.000000	93.798714
1896.000000	93.745567
1895.000000	93.686055
1894.000000	93.655335
1893.000000	93.674234
1892.000000	93.715819
1891.000000	93.747092
1890.000000	93.766233
1889.000000	93.788893
1888.000000	93.818736
1887.000000	93.857226
1886.000000	93.910983
1885.000000	93.966557
1884.000000	93.996229
1883.000000	94.004047
1882.000000	94.023689
1881.000000	94.057493
1880.000000	94.079883
1879.000000	94.087847
1878.000000	94.102635
1877.000000	94.135313
1876.000000	94.166426
1875.000000	94.180185
1874.000000	94.197138
1873.000000	94.237556
1872.000000	94.286546
1871.000000	94.324689
1870.000000	94.352452
1869.000000	94.378981
1868.000000	94.407935
1867.000000	94.452368
1866.000000	94.539911
1865.000000	94.669400
1864.000000	94.800396
1863.000000	94.909633
1862.000000	95.019582
1861.000000	95.144497
1860.000000	95.258793
1859.000000	95.347946
1858.000000	95.438897
1857.000000	95.547550
1856.000000	95.649073
1855.000000	95.726822
1854.000000	95.804944
1853.000000	95.889043
1852.000000	95.960573
1851.000000	96.026563
1850.000000	96.097944
1849.000000	96.171272
1848.000000	96.232492
1847.000000	96.289410
1846.000000	96.356190
1845.000000	96.411001
1844.000000	96.439758
1843.000000	96.475122
1842.000000	96.540638
1841.000000	96.614431
1840.000000	96.673798
1839.000000	96.713054
1838.000000	96.750084
1837.000000	96.805705
1836.000000	96.870157
1835.000000	96.940099
1834.000000	97.030418
1833.000000	97.141627
1832.000000	97.260100
1831.000000	97.351329
1830.000000	97.387168
1829.000000	97.405490
1828.000000	97.455079
1827.000000	97.538250
1826.000000	97.626352
1825.000000	97.705487
1824.000000	97.788809
1823.000000	97.886483
1822.000000	97.996968
1821.000000	98.114712
1820.000000	98.225635
1819.000000	98.308791
1818.000000	98.373879
1817.000000	98.450604
1816.000000	98.526451
1815.000000	98.578830
1814.000000	98.617517
1813.000000	98.665071
1812.000000	98.711191
1811.000000	98.721803
1810.000000	98.729279
1809.000000	98.786318
1808.000000	98.870109
1807.000000	98.939683
1806.000000	99.010165
1805.000000	99.106397
1804.000000	99.195252
1803.000000	99.245914
1802.000000	99.277069
1801.000000	99.322223
1800.000000	99.379687
1799.000000	99.422992
1798.000000	99.470327
1797.000000	99.538840
1796.000000	99.598845
1795.000000	99.639397
1794.000000	99.685742
1793.000000	99.747810
1792.000000	99.802267
1791.000000	99.829186
1790.000000	99.855934
1789.000000	99.903164
1788.000000	99.945595
1787.000000	99.957356
1786.000000	99.963032
1785.000000	100.000458
1784.000000	100.056109
1783.000000	100.117825
1782.000000	100.181982
1781.000000	100.237256
1780.000000	100.294401
1779.000000	100.362687
1778.000000	100.455440
1777.000000	100.556728
1776.000000	100.647516
1775.000000	100.744703
1774.000000	100.852122
1773.000000	100.944185
1772.000000	101.029717
1771.000000	101.108334
1770.000000	101.160417
1769.000000	101.223309
1768.000000	101.333780
1767.000000	101.470343
1766.000000	101.602320
1765.000000	101.739195
1764.000000	101.898660
1763.000000	102.045871
1762.000000	102.132668
1761.000000	102.198880
1760.000000	102.292676
1759.000000	102.389206
1758.000000	102.459918
1757.000000	102.491297
1756.000000	102.529502
1755.000000	102.588797
1754.000000	102.623115
1753.000000	102.634278
1752.000000	102.675404
1751.000000	102.762050
1750.000000	102.849291
1749.000000	102.896612
1748.000000	102.908328
1747.000000	102.923219
1746.000000	102.929404
1745.000000	102.913092
1744.000000	102.901531
1743.000000	102.896120
1742.000000	102.885772
1741.000000	102.885090
1740.000000	102.898645
1739.000000	102.899144
1738.000000	102.866662
1737.000000	102.819389
1736.000000	102.800116
1735.000000	102.765172
1734.000000	102.724209
1733.000000	102.769338
1732.000000	102.842962
1731.000000	102.843989
1730.000000	102.786691
1729.000000	102.703317
1728.000000	102.630233
1727.000000	102.589830
1726.000000	102.554814
1725.000000	102.511696
1724.000000	102.457139
1723.000000	102.384419
1722.000000	102.334496
1721.000000	102.336238
1720.000000	102.357272
1719.000000	102.310076
1718.000000	102.206259
1717.000000	102.202414
1716.000000	102.272637
1715.000000	102.282507
1714.000000	102.279707
1713.000000	102.348310
1712.000000	102.443311
1711.000000	102.522775
1710.000000	102.642765
1709.000000	102.843570
1708.000000	103.086160
1707.000000	103.316967
1706.000000	103.540306
1705.000000	103.777882
1704.000000	103.971393
1703.000000	104.116882
1702.000000	104.332259
1701.000000	104.616014
1700.000000	104.887357
1699.000000	105.078731
1698.000000	105.216553
1697.000000	105.390805
1696.000000	105.595621
1695.000000	105.792056
1694.000000	105.988123
1693.000000	106.149333
1692.000000	106.272090
1691.000000	106.376394
1690.000000	106.472591
1689.000000	106.547770
1688.000000	106.618156
1687.000000	106.732927
1686.000000	106.913012
1685.000000	107.058102
1684.000000	107.158022
1683.000000	107.329846
1682.000000	107.504081
1681.000000	107.567894
1680.000000	107.589068
1679.000000	107.649411
1678.000000	107.745128
1677.000000	107.834724
1676.000000	107.911048
1675.000000	108.019820
1674.000000	108.126924
1673.000000	108.166392
1672.000000	108.180014
1671.000000	108.212438
1670.000000	108.235820
1669.000000	108.214886
1668.000000	108.183364
1667.000000	108.173482
1666.000000	108.150869
1665.000000	108.088473
1664.000000	107.973805
1663.000000	107.827147
1662.000000	107.672377
1661.000000	107.461876
1660.000000	107.204568
1659.000000	106.955611
1658.000000	106.681947
1657.000000	106.342014
1656.000000	105.971588
1655.000000	105.577913
1654.000000	104.821000
1653.000000	103.699366
1652.000000	102.703673
1651.000000	101.830523
1650.000000	100.797371
1649.000000	99.482074
1648.000000	97.647802
1647.000000	95.173739
1646.000000	92.340382
1645.000000	89.518427
1644.000000	86.770348
1643.000000	84.010682
1642.000000	81.233067
1641.000000	78.557028
1640.000000	76.235638
1639.000000	74.453682
1638.000000	73.262436
1637.000000	72.668175
1636.000000	72.767490
1635.000000	73.602084
1634.000000	74.886107
1633.000000	76.321454
1632.000000	77.839326
1631.000000	79.480257
1630.000000	81.237613
1629.000000	83.041137
1628.000000	84.804772
1627.000000	86.458080
1626.000000	87.956608
1625.000000	89.332089
1624.000000	90.673019
1623.000000	92.009876
1622.000000	93.248988
1621.000000	94.284375
1620.000000	95.175982
1619.000000	96.073520
1618.000000	97.045728
1617.000000	98.057790
1616.000000	99.051484
1615.000000	99.928752
1614.000000	100.582825
1613.000000	101.019048
1612.000000	101.320240
1611.000000	101.523318
1610.000000	101.527672
1609.000000	101.177825
1608.000000	100.396216
1607.000000	99.127529
1606.000000	97.201734
1605.000000	94.400597
1604.000000	90.698651
1603.000000	86.275168
1602.000000	81.418144
1601.000000	76.441723
1600.000000	71.509968
1599.000000	66.463799
1598.000000	60.826129
1597.000000	54.185520
1596.000000	46.673861
1595.000000	39.046524
1594.000000	32.253994
1593.000000	26.923467
1592.000000	23.256444
1591.000000	21.174335
1590.000000	20.375018
1589.000000	20.353390
1588.000000	20.609290
1587.000000	20.821431
1586.000000	20.779968
1585.000000	20.372065
1584.000000	19.701201
1583.000000	19.067224
1582.000000	18.703203
1581.000000	18.622677
1580.000000	18.762802
1579.000000	19.114596
1578.000000	19.636962
1577.000000	20.159679
1576.000000	20.516589
1575.000000	20.728590
1574.000000	20.868800
1573.000000	20.946963
1572.000000	21.065415
1571.000000	21.490757
1570.000000	22.470757
1569.000000	23.957700
1568.000000	25.746507
1567.000000	27.788733
1566.000000	30.084515
1565.000000	32.457850
1564.000000	34.650429
1563.000000	36.572075
1562.000000	38.342196
1561.000000	40.207426
1560.000000	42.515736
1559.000000	45.476522
1558.000000	48.541967
1557.000000	51.025851
1556.000000	53.014919
1555.000000	54.924073
1554.000000	56.854717
1553.000000	58.639070
1552.000000	60.190571
1551.000000	61.589861
1550.000000	62.920258
1549.000000	64.155398
1548.000000	65.264007
1547.000000	66.316537
1546.000000	67.382214
1545.000000	68.424126
1544.000000	69.382027
1543.000000	70.269316
1542.000000	71.154440
1541.000000	72.052581
1540.000000	72.919161
1539.000000	73.748451
1538.000000	74.498337
1537.000000	75.114481
1536.000000	75.655023
1535.000000	76.222248
1534.000000	76.817827
1533.000000	77.381275
1532.000000	77.894043
1531.000000	78.374026
1530.000000	78.859218
1529.000000	79.346983
1528.000000	79.787218
1527.000000	80.183844
1526.000000	80.575163
1525.000000	80.961126
1524.000000	81.330288
1523.000000	81.692255
1522.000000	82.046623
1521.000000	82.380660
1520.000000	82.692952
1519.000000	82.995005
1518.000000	83.285186
1517.000000	83.537453
1516.000000	83.734906
1515.000000	83.918119
1514.000000	84.126277
1513.000000	84.368104
1512.000000	84.608850
1511.000000	84.810784
1510.000000	84.990796
1509.000000	85.192194
1508.000000	85.375248
1507.000000	85.478714
1506.000000	85.643355
1505.000000	85.923734
1504.000000	86.172519
1503.000000	86.352652
1502.000000	86.528458
1501.000000	86.730534
1500.000000	86.949187
1499.000000	87.162632
1498.000000	87.383825
1497.000000	87.680437
1496.000000	88.067586
1495.000000	88.484284
1494.000000	88.900634
1493.000000	89.329466
1492.000000	89.770628
1491.000000	90.195927
1490.000000	90.600714
1489.000000	91.011870
1488.000000	91.408278
1487.000000	91.764658
1486.000000	92.129107
1485.000000	92.487950
1484.000000	92.805066
1483.000000	93.110278
1482.000000	93.427541
1481.000000	93.746930
1480.000000	94.049527
1479.000000	94.365676
1478.000000	94.725335
1477.000000	95.101012
1476.000000	95.432260
1475.000000	95.744400
1474.000000	96.104889
1473.000000	96.491229
1472.000000	96.855188
1471.000000	97.172307
1470.000000	97.417886
1469.000000	97.560989
1468.000000	97.572471
1467.000000	97.409013
1466.000000	96.937887
1465.000000	95.925295
1464.000000	94.242978
1463.000000	91.882379
1462.000000	88.812783
1461.000000	85.017916
1460.000000	80.560338
1459.000000	75.491727
1458.000000	69.792459
1457.000000	63.981028
1456.000000	59.224785
1455.000000	55.948059
1454.000000	53.505334
1453.000000	51.322417
1452.000000	49.388518
1451.000000	48.004470
1450.000000	47.437318
1449.000000	47.820119
1448.000000	49.126819
1447.000000	51.072493
1446.000000	53.252950
1445.000000	55.475759
1444.000000	57.799411
1443.000000	60.240748
1442.000000	62.661068
1441.000000	64.906879
1440.000000	66.926679
1439.000000	68.759617
1438.000000	70.521298
1437.000000	72.363701
1436.000000	74.290913
1435.000000	76.103342
1434.000000	77.682729
1433.000000	79.123792
1432.000000	80.509945
1431.000000	81.779126
1430.000000	82.843846
1429.000000	83.733919
1428.000000	84.508406
1427.000000	85.187388
1426.000000	85.786557
1425.000000	86.342338
1424.000000	86.903446
1423.000000	87.445357
1422.000000	87.935845
1421.000000	88.416213
1420.000000	88.926981
1419.000000	89.412588
1418.000000	89.815912
1417.000000	90.199666
1416.000000	90.616915
1415.000000	91.031372
1414.000000	91.392902
1413.000000	91.715576
1412.000000	92.041119
1411.000000	92.347380
1410.000000	92.591629
1409.000000	92.793087
1408.000000	92.949872
1407.000000	92.972789
1406.000000	92.728353
1405.000000	92.108196
1404.000000	91.104720
1403.000000	89.802162
1402.000000	88.348581
1401.000000	86.911314
1400.000000	85.618971
1399.000000	84.528324
1398.000000	83.646048
1397.000000	83.031512
1396.000000	82.865860
1395.000000	83.366256
1394.000000	84.532069
1393.000000	86.083224
1392.000000	87.690086
1391.000000	89.130570
1390.000000	90.306810
1389.000000	91.241032
1388.000000	92.037806
1387.000000	92.795059
1386.000000	93.532820
1385.000000	94.211579
1384.000000	94.796531
1383.000000	95.262061
1382.000000	95.609578
1381.000000	95.889136
1380.000000	96.155061
1379.000000	96.420189
1378.000000	96.654159
1377.000000	96.802006
1376.000000	96.772421
1375.000000	96.427922
1374.000000	95.615334
1373.000000	94.234297
1372.000000	92.220598
1371.000000	89.478605
1370.000000	85.938280
1369.000000	81.779577
1368.000000	77.606604
1367.000000	74.206494
1366.000000	72.060407
1365.000000	71.131896
1364.000000	71.074324
1363.000000	71.596158
1362.000000	72.672214
1361.000000	74.436921
1360.000000	76.898511
1359.000000	79.806508
1358.000000	82.757152
1357.000000	85.389761
1356.000000	87.530725
1355.000000	89.196576
1354.000000	90.505688
1353.000000	91.596731
1352.000000	92.560014
1351.000000	93.430267
1350.000000	94.213129
1349.000000	94.905448
1348.000000	95.516407
1347.000000	96.056086
1346.000000	96.529698
1345.000000	96.946283
1344.000000	97.322497
1343.000000	97.670785
1342.000000	97.994743
1341.000000	98.296984
1340.000000	98.585045
1339.000000	98.869521
1338.000000	99.155786
1337.000000	99.445649
1336.000000	99.735458
1335.000000	100.012332
1334.000000	100.264213
1333.000000	100.490412
1332.000000	100.694407
1331.000000	100.873445
1330.000000	101.019497
1329.000000	101.127745
1328.000000	101.182930
1327.000000	101.140012
1326.000000	100.908051
1325.000000	100.340484
1324.000000	99.258175
1323.000000	97.480692
1322.000000	94.902938
1321.000000	91.604357
1320.000000	87.905478
1319.000000	84.295628
1318.000000	81.211047
1317.000000	78.830467
1316.000000	77.095352
1315.000000	75.929089
1314.000000	75.382720
1313.000000	75.551595
1312.000000	76.367799
1311.000000	77.521932
1310.000000	78.664195
1309.000000	79.678446
1308.000000	80.745588
1307.000000	82.147294
1306.000000	84.001695
1305.000000	86.176348
1304.000000	88.400857
1303.000000	90.419129
1302.000000	92.081858
1301.000000	93.363975
1300.000000	94.311118
1299.000000	94.972052
1298.000000	95.368674
1297.000000	95.498077
1296.000000	95.343551
1295.000000	94.865510
1294.000000	94.016498
1293.000000	92.777487
1292.000000	91.172294
1291.000000	89.269148
1290.000000	87.141437
1289.000000	84.806807
1288.000000	82.172718
1287.000000	79.049766
1286.000000	75.309054
1285.000000	71.102414
1284.000000	66.948552
1283.000000	63.578970
1282.000000	61.631265
1281.000000	61.375820
1280.000000	62.673202
1279.000000	65.096119
1278.000000	68.085884
1277.000000	71.119094
1276.000000	73.784973
1275.000000	75.812676
1274.000000	77.137458
1273.000000	77.980541
1272.000000	78.804318
1271.000000	80.052059
1270.000000	81.865063
1269.000000	84.041189
1268.000000	86.247163
1267.000000	88.247369
1266.000000	89.973134
1265.000000	91.458965
1264.000000	92.757149
1263.000000	93.899694
1262.000000	94.902203
1261.000000	95.784201
1260.000000	96.572243
1259.000000	97.285661
1258.000000	97.935993
1257.000000	98.533145
1256.000000	99.085779
1255.000000	99.595348
1254.000000	100.057731
1253.000000	100.476017
1252.000000	100.858901
1251.000000	101.210829
1250.000000	101.533667
1249.000000	101.835477
1248.000000	102.130249
1247.000000	102.425891
1246.000000	102.722347
1245.000000	103.022307
1244.000000	103.330640
1243.000000	103.643844
1242.000000	103.951389
1241.000000	104.247613
1240.000000	104.531880
1239.000000	104.797960
1238.000000	105.036578
1237.000000	105.246717
1236.000000	105.432747
1235.000000	105.593064
1234.000000	105.720273
1233.000000	105.812752
1232.000000	105.871006
1231.000000	105.880868
1230.000000	105.815660
1229.000000	105.640245
1228.000000	105.307419
1227.000000	104.738213
1226.000000	103.808336
1225.000000	102.368146
1224.000000	100.245347
1223.000000	97.284323
1222.000000	93.421075
1221.000000	88.745538
1220.000000	83.532345
1219.000000	78.168665
1218.000000	73.026687
1217.000000	68.354779
1216.000000	64.241455
1215.000000	60.647215
1214.000000	57.477308
1213.000000	54.658872
1212.000000	52.181412
1211.000000	50.083659
1210.000000	48.376785
1209.000000	47.036276
1208.000000	46.051600
1207.000000	45.438210
1206.000000	45.219311
1205.000000	45.382992
1204.000000	45.882580
1203.000000	46.643814
1202.000000	47.572411
1201.000000	48.625959
1200.000000	49.859604
1199.000000	51.394395
1198.000000	53.330064
1197.000000	55.683166
1196.000000	58.402428
1195.000000	61.382739
1194.000000	64.481169
1193.000000	67.558712
1192.000000	70.514860
1191.000000	73.284210
1190.000000	75.818632
1189.000000	78.091498
1188.000000	80.100826
1187.000000	81.857758
1186.000000	83.363582
1185.000000	84.621962
1184.000000	85.653993
1183.000000	86.477957
1182.000000	87.102619
1181.000000	87.529943
1180.000000	87.772385
1179.000000	87.858075
1178.000000	87.817983
1177.000000	87.690325
1176.000000	87.517620
1175.000000	87.337166
1174.000000	87.177867
1173.000000	87.066785
1172.000000	87.033616
1171.000000	87.099777
1170.000000	87.269690
1169.000000	87.537280
1168.000000	87.892442
1167.000000	88.307287
1166.000000	88.726844
1165.000000	89.086364
1164.000000	89.339159
1163.000000	89.478251
1162.000000	89.548868
1161.000000	89.646460
1160.000000	89.879786
1159.000000	90.309621
1158.000000	90.921339
1157.000000	91.655147
1156.000000	92.454732
1155.000000	93.284155
1154.000000	94.117626
1153.000000	94.932250
1152.000000	95.700398
1151.000000	96.380125
1150.000000	96.923378
1149.000000	97.307609
1148.000000	97.547596
1147.000000	97.678786
1146.000000	97.737408
1145.000000	97.746872
1144.000000	97.711686
1143.000000	97.596384
1142.000000	97.327824
1141.000000	96.830058
1140.000000	96.038158
1139.000000	94.902498
1138.000000	93.361082
1137.000000	91.331912
1136.000000	88.726191
1135.000000	85.429107
1134.000000	81.324082
1133.000000	76.320586
1132.000000	70.412910
1131.000000	63.757890
1130.000000	56.704548
1129.000000	49.775513
1128.000000	43.582829
1127.000000	38.667754
1126.000000	35.312867
1125.000000	33.504208
1124.000000	32.995872
1123.000000	33.396139
1122.000000	34.231040
1121.000000	35.009576
1120.000000	35.356203
1119.000000	35.055966
1118.000000	34.052354
1117.000000	32.508715
1116.000000	30.871419
1115.000000	29.803986
1114.000000	29.911802
1113.000000	31.476791
1112.000000	34.393228
1111.000000	38.233101
1110.000000	42.373684
1109.000000	46.165973
1108.000000	49.116188
1107.000000	50.984303
1106.000000	51.765826
1105.000000	51.639040
1104.000000	50.960305
1103.000000	50.256635
1102.000000	50.095321
1101.000000	50.867275
1100.000000	52.637327
1099.000000	55.167390
1098.000000	58.079279
1097.000000	61.034985
1096.000000	63.813991
1095.000000	66.306260
1094.000000	68.490553
1093.000000	70.417189
1092.000000	72.174939
1091.000000	73.844059
1090.000000	75.477393
1089.000000	77.115405
1088.000000	78.796169
1087.000000	80.530535
1086.000000	82.290063
1085.000000	84.022733
1084.000000	85.670035
1083.000000	87.179911
1082.000000	88.518138
1081.000000	89.685249
1080.000000	90.706500
1079.000000	91.599016
1078.000000	92.368122
1077.000000	93.008741
1076.000000	93.502419
1075.000000	93.808476
1074.000000	93.859954
1073.000000	93.595988
1072.000000	92.947410
1071.000000	91.821862
1070.000000	90.109361
1069.000000	87.668405
1068.000000	84.352933
1067.000000	80.011264
1066.000000	74.543767
1065.000000	68.014934
1064.000000	60.713396
1063.000000	53.153882
1062.000000	45.940377
1061.000000	39.563253
1060.000000	34.231109
1059.000000	29.832190
1058.000000	26.034795
1057.000000	22.561289
1056.000000	19.467446
1055.000000	17.152079
1054.000000	16.162149
1053.000000	16.864589
1052.000000	19.269356
1051.000000	23.037004
1050.000000	27.582390
1049.000000	32.326506
1048.000000	36.867114
1047.000000	41.016027
1046.000000	44.743760
1045.000000	48.100850
1044.000000	51.161700
1043.000000	53.971278
1042.000000	56.528178
1041.000000	58.813593
1040.000000	60.839931
1039.000000	62.641035
1038.000000	64.251444
1037.000000	65.706980
1036.000000	67.040138
1035.000000	68.275787
1034.000000	69.419748
1033.000000	70.473948
1032.000000	71.451409
1031.000000	72.363132
1030.000000	73.213597
1029.000000	74.009857
1028.000000	74.769691
1027.000000	75.513241
1026.000000	76.253019
1025.000000	77.001082
1024.000000	77.768817
1023.000000	78.552063
1022.000000	79.329400
1021.000000	80.073454
1020.000000	80.758474
1019.000000	81.344781
1018.000000	81.767755
1017.000000	81.953699
1016.000000	81.806223
1015.000000	81.203989
1014.000000	80.006173
1013.000000	78.079713
1012.000000	75.358750
1011.000000	71.879314
1010.000000	67.828579
1009.000000	63.554375
1008.000000	59.500895
1007.000000	56.103995
1006.000000	53.719121
1005.000000	52.573168
1004.000000	52.698350
1003.000000	53.859197
1002.000000	55.553282
1001.000000	57.187161
1000.000000	58.270566
999.000000	58.484055
998.000000	57.675970
997.000000	55.916471
996.000000	53.577981
995.000000	51.268170
994.000000	49.561678
993.000000	48.736052
992.000000	48.735103
991.000000	49.351805
990.000000	50.432011
989.000000	51.945582
988.000000	53.928683
987.000000	56.344525
986.000000	59.028645
985.000000	61.754643
984.000000	64.335308
983.000000	66.674993
982.000000	68.748897
981.000000	70.573093
980.000000	72.181401
979.000000	73.608970
978.000000	74.873622
977.000000	75.985517
976.000000	76.959618
975.000000	77.811521
974.000000	78.558539
973.000000	79.218881
972.000000	79.817700
971.000000	80.380229
970.000000	80.920840
969.000000	81.448720
968.000000	81.970486
967.000000	82.486437
966.000000	82.987099
965.000000	83.459085
964.000000	83.894425
963.000000	84.288584
962.000000	84.639417
961.000000	84.952409
960.000000	85.240516
959.000000	85.516937
958.000000	85.789967
957.000000	86.067115
956.000000	86.356244
955.000000	86.657383
954.000000	86.961142
953.000000	87.257165
952.000000	87.539226
951.000000	87.800674
950.000000	88.032409
949.000000	88.231033
948.000000	88.402014
947.000000	88.553105
946.000000	88.691385
945.000000	88.827425
944.000000	88.975104
943.000000	89.142675
942.000000	89.329264
941.000000	89.531808
940.000000	89.748034
939.000000	89.971073
938.000000	90.188884
937.000000	90.392206
936.000000	90.577415
935.000000	90.740908
934.000000	90.879475
933.000000	90.998245
932.000000	91.111040
931.000000	91.230864
930.000000	91.365008
929.000000	91.518622
928.000000	91.694394
927.000000	91.887004
926.000000	92.085255
925.000000	92.280626
924.000000	92.467712
923.000000	92.637413
922.000000	92.778729
921.000000	92.889181
920.000000	92.976223
919.000000	93.049580
918.000000	93.119166
917.000000	93.198382
916.000000	93.300161
915.000000	93.428354
914.000000	93.579310
913.000000	93.750312
912.000000	93.938257
911.000000	94.131762
910.000000	94.314768
909.000000	94.478288
908.000000	94.621279
907.000000	94.742468
906.000000	94.841891
905.000000	94.928547
904.000000	95.015765
903.000000	95.109670
902.000000	95.206832
901.000000	95.300224
900.000000	95.372302
899.000000	95.380300
898.000000	95.265013
897.000000	94.980214
896.000000	94.529644
895.000000	93.981162
894.000000	93.429583
893.000000	92.915230
892.000000	92.359875
891.000000	91.617078
890.000000	90.623517
889.000000	89.497658
888.000000	88.462307
887.000000	87.683969
886.000000	87.205872
885.000000	87.010014
884.000000	87.079315
883.000000	87.356631
882.000000	87.709067
881.000000	88.001089
880.000000	88.218293
879.000000	88.495964
878.000000	89.001031
877.000000	89.799187
876.000000	90.812611
875.000000	91.881753
874.000000	92.865557
873.000000	93.699053
872.000000	94.384476
871.000000	94.944982
870.000000	95.394727
869.000000	95.732736
868.000000	95.946434
867.000000	96.009689
866.000000	95.893873
865.000000	95.598273
864.000000	95.167200
863.000000	94.689254
862.000000	94.279667
861.000000	94.048552
860.000000	94.058997
859.000000	94.299850
858.000000	94.697708
857.000000	95.162441
856.000000	95.627624
855.000000	96.056514
854.000000	96.434661
853.000000	96.761646
852.000000	97.041758
851.000000	97.277327
850.000000	97.473497
849.000000	97.645643
848.000000	97.813588
847.000000	97.989240
846.000000	98.175027
845.000000	98.371641
844.000000	98.575897
843.000000	98.774557
842.000000	98.951301
841.000000	99.099052
840.000000	99.218880
839.000000	99.309966
838.000000	99.371793
837.000000	99.414192
836.000000	99.454113
835.000000	99.504016
834.000000	99.570844
833.000000	99.662584
832.000000	99.784445
831.000000	99.929095
830.000000	100.080477
829.000000	100.226943
828.000000	100.363432
827.000000	100.484354
826.000000	100.584599
825.000000	100.665190
824.000000	100.728298
823.000000	100.771372
822.000000	100.797687
821.000000	100.826779
820.000000	100.881916
819.000000	100.969992
818.000000	101.081895
817.000000	101.206353
816.000000	101.330510
815.000000	101.432797
814.000000	101.487792
813.000000	101.474404
812.000000	101.370575
811.000000	101.148001
810.000000	100.796464
809.000000	100.360929
808.000000	99.943285
807.000000	99.656075
806.000000	99.565400
805.000000	99.661570
804.000000	99.870552
803.000000	100.094502
802.000000	100.254542
801.000000	100.306294
800.000000	100.223709
799.000000	99.982970
798.000000	99.561624
797.000000	98.943591
796.000000	98.108831
795.000000	97.029877
794.000000	95.694772
793.000000	94.129577
792.000000	92.407226
791.000000	90.641151
790.000000	88.973609
789.000000	87.547298
788.000000	86.464838
787.000000	85.762509
786.000000	85.418761
785.000000	85.378979
784.000000	85.561864
783.000000	85.863952
782.000000	86.177299
781.000000	86.420149
780.000000	86.558211
779.000000	86.610818
778.000000	86.655402
777.000000	86.808146
776.000000	87.173893
775.000000	87.798418
774.000000	88.658359
773.000000	89.685245
772.000000	90.789424
771.000000	91.881749
770.000000	92.900204
769.000000	93.821811
768.000000	94.646647
767.000000	95.377540
766.000000	96.022536
765.000000	96.600600
764.000000	97.130651
763.000000	97.619649
762.000000	98.069711
761.000000	98.485155
760.000000	98.861112
759.000000	99.180080
758.000000	99.430090
757.000000	99.616757
756.000000	99.749251
755.000000	99.829295
754.000000	99.866709
753.000000	99.889054
752.000000	99.922115
751.000000	99.971786
750.000000	100.033890
749.000000	100.106300
748.000000	100.176583
747.000000	100.212703
746.000000	100.182789
745.000000	100.072535
744.000000	99.873993
743.000000	99.576286
742.000000	99.183815
741.000000	98.729925
740.000000	98.258530
739.000000	97.805908
738.000000	97.406491
737.000000	97.089930
736.000000	96.849595
735.000000	96.628651
734.000000	96.355229
733.000000	95.979801
732.000000	95.475859
731.000000	94.841875
730.000000	94.129493
729.000000	93.446190
728.000000	92.909321
727.000000	92.597212
726.000000	92.542152
725.000000	92.746398
724.000000	93.175458
723.000000	93.754807
722.000000	94.406472
721.000000	95.085007
720.000000	95.766210
719.000000	96.420191
718.000000	97.016327
717.000000	97.534874
716.000000	97.954306
715.000000	98.249352
714.000000	98.420436
713.000000	98.505299
712.000000	98.546439
711.000000	98.567064
710.000000	98.593296
709.000000	98.663540
708.000000	98.796408
707.000000	98.975552
706.000000	99.176648
705.000000	99.394016
704.000000	99.619419
703.000000	99.815705
702.000000	99.954524
701.000000	100.048205
700.000000	100.113918
699.000000	100.151287
698.000000	100.165713
697.000000	100.190073
696.000000	100.246128
695.000000	100.305769
694.000000	100.347532
693.000000	100.393217
692.000000	100.451697
691.000000	100.488697
690.000000	100.476924
689.000000	100.445923
688.000000	100.423615
687.000000	100.372391
686.000000	100.265796
685.000000	100.152680
684.000000	100.081762
683.000000	100.036320
682.000000	100.004191
681.000000	100.033567
680.000000	100.151240
679.000000	100.295498
678.000000	100.435989
677.000000	100.599009
676.000000	100.767807
675.000000	100.934180
674.000000	101.097899
673.000000	101.276054
672.000000	101.553647
671.000000	102.077485
670.000000	102.939817
669.000000	103.776776
668.000000	103.760080
667.000000	103.021896
666.000000	102.478062
665.000000	102.308445
664.000000	102.338564
663.000000	102.422053
662.000000	102.487475
661.000000	102.527807
660.000000	102.544113
659.000000	102.532193
658.000000	102.513031
657.000000	102.491437
656.000000	102.447660
655.000000	102.447737
654.000000	102.525779
653.000000	102.614578
652.000000	102.675920
651.000000	102.751663
650.000000	102.846681
649.000000	102.878842
648.000000	102.815430
647.000000	102.728188
646.000000	102.664694
645.000000	102.595949
644.000000	102.513888
643.000000	102.476309
642.000000	102.519011
641.000000	102.597983
640.000000	102.672228
639.000000	102.759049
638.000000	102.857067
637.000000	102.911057
636.000000	102.897319
635.000000	102.855099
634.000000	102.811030
633.000000	102.745965
632.000000	102.660415
631.000000	102.604256
630.000000	102.605750
629.000000	102.632277
628.000000	102.658204
627.000000	102.702611
626.000000	102.768393
625.000000	102.821196
624.000000	102.842878
623.000000	102.854080
622.000000	102.862719
621.000000	102.842248
620.000000	102.780399
619.000000	102.696992
618.000000	102.604670
617.000000	102.499985
616.000000	102.404269
615.000000	102.359553
614.000000	102.368186
613.000000	102.390035
612.000000	102.407291
611.000000	102.436280
610.000000	102.471783
609.000000	102.469656
608.000000	102.403514
607.000000	102.287480
606.000000	102.128018
605.000000	101.918643
604.000000	101.679050
603.000000	101.450829
602.000000	101.242041
601.000000	101.015371
600.000000	100.736833
599.000000	100.394896
598.000000	99.961742
597.000000	99.388278
596.000000	98.660655
595.000000	97.818239
594.000000	96.889976
593.000000	95.840017
592.000000	94.586496
591.000000	93.068433
590.000000	91.325220
589.000000	89.562695
588.000000	88.114581
587.000000	87.240687
586.000000	86.930607
585.000000	86.975712
584.000000	87.258667
583.000000	87.850946
582.000000	88.811933
581.000000	90.027376
580.000000	91.288887
579.000000	92.443340
578.000000	93.403850
577.000000	94.120915
576.000000	94.614677
575.000000	94.975513
574.000000	95.272845
573.000000	95.509132
572.000000	95.682420
571.000000	95.818137
570.000000	95.910644
569.000000	95.887157
568.000000	95.679499
567.000000	95.258744
566.000000	94.565980
565.000000	93.483475
564.000000	91.926812
563.000000	89.959569
562.000000	87.785702
561.000000	85.662630
560.000000	83.818891
559.000000	82.358903
558.000000	81.188945
557.000000	80.129393
556.000000	79.190773
555.000000	78.662753
554.000000	78.871375
553.000000	79.893004
552.000000	81.532021
551.000000	83.459797
550.000000	85.315075
549.000000	86.824197
548.000000	87.918804
547.000000	88.701217
546.000000	89.279850
545.000000	89.689401
544.000000	89.957586
543.000000	90.142234
542.000000	90.266392
541.000000	90.283355
540.000000	90.160411
539.000000	89.928817
538.000000	89.625814
537.000000	89.257395
536.000000	88.850091
535.000000	88.474410
534.000000	88.173281
533.000000	87.931324
532.000000	87.732796
531.000000	87.600532
530.000000	87.535271
529.000000	87.471386
528.000000	87.325728
527.000000	87.049227
526.000000	86.595389
525.000000	85.913050
524.000000	85.010103
523.000000	83.957135
522.000000	82.819555
521.000000	81.633630
520.000000	80.460052
519.000000	79.386382
518.000000	78.435496
517.000000	77.536390
516.000000	76.632410
515.000000	75.746720
514.000000	74.918487
513.000000	74.170896
512.000000	73.573993
511.000000	73.265136
510.000000	73.336382
509.000000	73.758373
508.000000	74.463526
507.000000	75.424324
506.000000	76.607644
505.000000	77.946862
504.000000	79.406811
503.000000	80.989438
502.000000	82.620000
501.000000	84.126754
500.000000	85.385368
499.000000	86.399504
498.000000	87.207553
497.000000	87.823480
496.000000	88.290779
495.000000	88.700117
494.000000	89.116561
493.000000	89.527611
492.000000	89.913733
491.000000	90.300508
490.000000	90.689872
489.000000	91.023534
488.000000	91.240039
487.000000	91.319548
486.000000	91.220466
485.000000	90.826201
484.000000	90.027384
483.000000	88.809612
482.000000	87.235442
481.000000	85.418846
480.000000	83.585375
479.000000	82.051091
478.000000	81.016828
477.000000	80.423497
476.000000	80.060444
475.000000	79.755994
474.000000	79.407890
473.000000	78.987386
472.000000	78.639649
471.000000	78.654958
470.000000	79.206584
469.000000	80.220689
468.000000	81.547093
467.000000	83.081299
466.000000	84.697563
465.000000	86.238814
464.000000	87.615746
463.000000	88.850285
462.000000	89.971436
461.000000	90.937345
460.000000	91.705525
459.000000	92.289801
458.000000	92.707310
457.000000	92.963619
456.000000	93.119089
455.000000	93.265719
454.000000	93.434803
453.000000	93.592220
452.000000	93.742063
451.000000	93.963241
450.000000	94.285878
449.000000	94.638824
448.000000	94.950852
447.000000	95.215958
446.000000	95.425083
445.000000	95.528299
444.000000	95.500797
443.000000	95.396200
442.000000	95.279214
441.000000	95.165330
440.000000	95.079215
439.000000	95.077279
438.000000	95.167498
437.000000	95.279088
436.000000	95.363284
435.000000	95.433658
434.000000	95.448995
433.000000	95.268271
432.000000	94.793324
431.000000	94.080974
430.000000	93.263229
429.000000	92.421320
428.000000	91.643164
427.000000	91.092285
426.000000	90.857427
425.000000	90.840058
424.000000	90.934255
423.000000	91.185174
422.000000	91.621173
421.000000	92.100643
420.000000	92.475713
419.000000	92.815586
418.000000	93.252193
417.000000	93.683439
416.000000	93.982960
415.000000	94.205818
414.000000	94.418521
413.000000	94.571255
412.000000	94.627780
411.000000	94.680956
410.000000	94.815488
409.000000	94.950437
408.000000	95.008400
407.000000	95.071545
406.000000	95.184898
405.000000	95.200972
404.000000	95.055738
403.000000	94.942607
402.000000	95.043345
401.000000	95.216671
400.000000	95.276890
