PE UV                   SPECTRUM    ASCII       PEDS        1.60        
  -1
22MS167.SP
24/10/21
15:47:25.00
24/10/21
15:48:55.00


400.000000
1









4444

SCAN
1
1


0.0
480.0
2.00
MANUAL



UV/VIS




































#HDR
-1
-1
#GR
NM
A
0.00000011920928955078
0.0
700.000000
1.000000
301
8
0.572480
0.032210
#DATA
700.000000	0.032210 
699.000000	0.033060 
698.000000	0.034020 
697.000000	0.034810 
696.000000	0.035620 
695.000000	0.036610 
694.000000	0.037510 
693.000000	0.038580 
692.000000	0.039600 
691.000000	0.040590 
690.000000	0.041890 
689.000000	0.043170 
688.000000	0.044290 
687.000000	0.045540 
686.000000	0.046740 
685.000000	0.048020 
684.000000	0.049350 
683.000000	0.051100 
682.000000	0.052590 
681.000000	0.054240 
680.000000	0.055870 
679.000000	0.057400 
678.000000	0.059040 
677.000000	0.060890 
676.000000	0.062320 
675.000000	0.064100 
674.000000	0.065809 
673.000000	0.067730 
672.000000	0.069630 
671.000000	0.071470 
670.000000	0.073400 
669.000000	0.075300 
668.000000	0.077330 
667.000000	0.079150 
666.000000	0.081330 
665.000000	0.083470 
664.000000	0.085610 
663.000000	0.087850 
662.000000	0.090170 
661.000000	0.092350 
660.000000	0.094760 
659.000000	0.096940 
658.000000	0.099320 
657.000000	0.101610 
656.000000	0.104150 
655.000000	0.106650 
654.000000	0.109310 
653.000000	0.111970 
652.000000	0.114510 
651.000000	0.117280 
650.000000	0.119980 
649.000000	0.122640 
648.000000	0.125380 
647.000000	0.128020 
646.000000	0.130750 
645.000000	0.133520 
644.000000	0.136510 
643.000000	0.139370 
642.000000	0.142160 
641.000000	0.144850 
640.000000	0.147630 
639.000000	0.150430 
638.000000	0.153060 
637.000000	0.155780 
636.000000	0.158780 
635.000000	0.161530 
634.000000	0.164490 
633.000000	0.167430 
632.000000	0.170350 
631.000000	0.173140 
630.000000	0.175980 
629.000000	0.178750 
628.000000	0.181710 
627.000000	0.184610 
626.000000	0.187510 
625.000000	0.190550 
624.000000	0.193720 
623.000000	0.196650 
622.000000	0.199690 
621.000000	0.202500 
620.000000	0.205360 
619.000000	0.208200 
618.000000	0.211110 
617.000000	0.214030 
616.000000	0.216990 
615.000000	0.219920 
614.000000	0.222970 
613.000000	0.225680 
612.000000	0.228450 
611.000000	0.231070 
610.000000	0.233760 
609.000000	0.236620 
608.000000	0.239310 
607.000000	0.242020 
606.000000	0.244810 
605.000000	0.247660 
604.000000	0.250510 
603.000000	0.253160 
602.000000	0.255910 
601.000000	0.258570 
600.000000	0.261240 
599.000000	0.264000 
598.000000	0.266830 
597.000000	0.269750 
596.000000	0.272540 
595.000000	0.275480 
594.000000	0.278190 
593.000000	0.281110 
592.000000	0.283900 
591.000000	0.286810 
590.000000	0.289580 
589.000000	0.292640 
588.000000	0.295640 
587.000000	0.298810 
586.000000	0.301910 
585.000000	0.305120 
584.000000	0.308160 
583.000000	0.311260 
582.000000	0.314270 
581.000000	0.317350 
580.000000	0.320560 
579.000000	0.323790 
578.000000	0.326910 
577.000000	0.330470 
576.000000	0.333910 
575.000000	0.337490 
574.000000	0.340820 
573.000000	0.344380 
572.000000	0.347870 
571.000000	0.351460 
570.000000	0.355170 
569.000000	0.358950 
568.000000	0.362970 
567.000000	0.366900 
566.000000	0.370950 
565.000000	0.375080 
564.000000	0.378990 
563.000000	0.383220 
562.000000	0.387450 
561.000000	0.392030 
560.000000	0.396550 
559.000000	0.401150 
558.000000	0.406310 
557.000000	0.411060 
556.000000	0.415910 
555.000000	0.420550 
554.000000	0.425010 
553.000000	0.429760 
552.000000	0.434370 
551.000000	0.438980 
550.000000	0.444030 
549.000000	0.448850 
548.000000	0.453620 
547.000000	0.458460 
546.000000	0.463000 
545.000000	0.467880 
544.000000	0.472600 
543.000000	0.477270 
542.000000	0.481980 
541.000000	0.486680 
540.000000	0.491450 
539.000000	0.496040 
538.000000	0.500730 
537.000000	0.505290 
536.000000	0.509670 
535.000000	0.513870 
534.000000	0.518130 
533.000000	0.522130 
532.000000	0.526330 
531.000000	0.530450 
530.000000	0.534210 
529.000000	0.538000 
528.000000	0.541650 
527.000000	0.545160 
526.000000	0.548210 
525.000000	0.551240 
524.000000	0.553710 
523.000000	0.556430 
522.000000	0.558770 
521.000000	0.561220 
520.000000	0.563490 
519.000000	0.565280 
518.000000	0.566760 
517.000000	0.568170 
516.000000	0.569530 
515.000000	0.570439 
514.000000	0.571110 
513.000000	0.571780 
512.000000	0.572130 
511.000000	0.572480 
510.000000	0.572260 
509.000000	0.571930 
508.000000	0.571310 
507.000000	0.570560 
506.000000	0.569240 
505.000000	0.568310 
504.000000	0.566720 
503.000000	0.565140 
502.000000	0.563150 
501.000000	0.560900 
500.000000	0.558400 
499.000000	0.555750 
498.000000	0.552840 
497.000000	0.549780 
496.000000	0.546880 
495.000000	0.543370 
494.000000	0.539950 
493.000000	0.536200 
492.000000	0.532170 
491.000000	0.528290 
490.000000	0.523860 
489.000000	0.519610 
488.000000	0.515440 
487.000000	0.511080 
486.000000	0.506270 
485.000000	0.501669 
484.000000	0.496880 
483.000000	0.491870 
482.000000	0.486640 
481.000000	0.481640 
480.000000	0.476700 
479.000000	0.471540 
478.000000	0.466250 
477.000000	0.460790 
476.000000	0.455470 
475.000000	0.450000 
474.000000	0.443780 
473.000000	0.438050 
472.000000	0.432290 
471.000000	0.426290 
470.000000	0.420440 
469.000000	0.414750 
468.000000	0.408790 
467.000000	0.403150 
466.000000	0.397000 
465.000000	0.391300 
464.000000	0.385400 
463.000000	0.379840 
462.000000	0.374040 
461.000000	0.368840 
460.000000	0.363090 
459.000000	0.358030 
458.000000	0.352320 
457.000000	0.347190 
456.000000	0.342050 
455.000000	0.336730 
454.000000	0.331490 
453.000000	0.326210 
452.000000	0.321120 
451.000000	0.316490 
450.000000	0.311590 
449.000000	0.307100 
448.000000	0.302840 
447.000000	0.298760 
446.000000	0.294650 
445.000000	0.290670 
444.000000	0.287030 
443.000000	0.283710 
442.000000	0.280170 
441.000000	0.277470 
440.000000	0.274530 
439.000000	0.272520 
438.000000	0.269970 
437.000000	0.268570 
436.000000	0.267070 
435.000000	0.265810 
434.000000	0.264940 
433.000000	0.264580 
432.000000	0.264340 
431.000000	0.264560 
430.000000	0.265220 
429.000000	0.266090 
428.000000	0.267500 
427.000000	0.269000 
426.000000	0.270920 
425.000000	0.273180 
424.000000	0.275970 
423.000000	0.279390 
422.000000	0.282790 
421.000000	0.286920 
420.000000	0.290960 
419.000000	0.295410 
418.000000	0.300180 
417.000000	0.305550 
416.000000	0.311330 
415.000000	0.317360 
414.000000	0.324030 
413.000000	0.330590 
412.000000	0.337680 
411.000000	0.344730 
410.000000	0.352010 
409.000000	0.359850 
408.000000	0.368240 
407.000000	0.376750 
406.000000	0.385290 
405.000000	0.393710 
404.000000	0.402060 
403.000000	0.410700 
402.000000	0.419220 
401.000000	0.427650 
400.000000	0.436440 

