PE UV                   SPECTRUM    ASCII       PEDS        1.60        
  -1
23MS143.SP
24/10/17
15:22:13.00
24/10/17
15:23:13.00


400.000000
1









4444

SCAN
1
1


0.0
480.0
2.00
MANUAL



UV/VIS




































#HDR
-1
-1
#GR
NM
A
0.00000011920928955078
0.0
700.000000
1.000000
301
8
0.460240
0.096560
#DATA
700.000000	0.096560 
699.000000	0.097370 
698.000000	0.098030 
697.000000	0.098890 
696.000000	0.099700 
695.000000	0.100710 
694.000000	0.101620 
693.000000	0.102680 
692.000000	0.103870 
691.000000	0.105050 
690.000000	0.106190 
689.000000	0.107580 
688.000000	0.108910 
687.000000	0.110140 
686.000000	0.111480 
685.000000	0.112900 
684.000000	0.114300 
683.000000	0.116270 
682.000000	0.117930 
681.000000	0.119700 
680.000000	0.121470 
679.000000	0.123360 
678.000000	0.125250 
677.000000	0.127320 
676.000000	0.129130 
675.000000	0.131000 
674.000000	0.133060 
673.000000	0.135210 
672.000000	0.137280 
671.000000	0.139520 
670.000000	0.141830 
669.000000	0.144120 
668.000000	0.146380 
667.000000	0.148800 
666.000000	0.151190 
665.000000	0.153480 
664.000000	0.155950 
663.000000	0.158580 
662.000000	0.161390 
661.000000	0.164200 
660.000000	0.166880 
659.000000	0.169770 
658.000000	0.172540 
657.000000	0.175410 
656.000000	0.178240 
655.000000	0.181200 
654.000000	0.184320 
653.000000	0.187390 
652.000000	0.190660 
651.000000	0.193990 
650.000000	0.197360 
649.000000	0.200820 
648.000000	0.204070 
647.000000	0.207310 
646.000000	0.210540 
645.000000	0.213980 
644.000000	0.217290 
643.000000	0.220810 
642.000000	0.224280 
641.000000	0.227630 
640.000000	0.230890 
639.000000	0.234240 
638.000000	0.237490 
637.000000	0.240750 
636.000000	0.243820 
635.000000	0.247080 
634.000000	0.250470 
633.000000	0.253820 
632.000000	0.257270 
631.000000	0.260620 
630.000000	0.263850 
629.000000	0.267100 
628.000000	0.270270 
627.000000	0.273390 
626.000000	0.276450 
625.000000	0.279500 
624.000000	0.282840 
623.000000	0.285930 
622.000000	0.289020 
621.000000	0.292120 
620.000000	0.295170 
619.000000	0.297960 
618.000000	0.300830 
617.000000	0.303620 
616.000000	0.306280 
615.000000	0.309110 
614.000000	0.311960 
613.000000	0.314550 
612.000000	0.316850 
611.000000	0.319220 
610.000000	0.321630 
609.000000	0.323910 
608.000000	0.326120 
607.000000	0.328360 
606.000000	0.330600 
605.000000	0.332720 
604.000000	0.334880 
603.000000	0.336940 
602.000000	0.339010 
601.000000	0.341100 
600.000000	0.342960 
599.000000	0.344880 
598.000000	0.346730 
597.000000	0.348580 
596.000000	0.350490 
595.000000	0.352290 
594.000000	0.354240 
593.000000	0.356180 
592.000000	0.358040 
591.000000	0.359930 
590.000000	0.361730 
589.000000	0.363540 
588.000000	0.365340 
587.000000	0.367180 
586.000000	0.369320 
585.000000	0.371310 
584.000000	0.373160 
583.000000	0.375010 
582.000000	0.376920 
581.000000	0.378930 
580.000000	0.380820 
579.000000	0.382800 
578.000000	0.384800 
577.000000	0.386890 
576.000000	0.389120 
575.000000	0.391160 
574.000000	0.393380 
573.000000	0.395730 
572.000000	0.397730 
571.000000	0.399940 
570.000000	0.402040 
569.000000	0.404520 
568.000000	0.406720 
567.000000	0.409200 
566.000000	0.411510 
565.000000	0.413840 
564.000000	0.416350 
563.000000	0.418870 
562.000000	0.421190 
561.000000	0.423560 
560.000000	0.426000 
559.000000	0.428260 
558.000000	0.427970 
557.000000	0.430410 
556.000000	0.432890 
555.000000	0.435120 
554.000000	0.437090 
553.000000	0.439370 
552.000000	0.441390 
551.000000	0.443380 
550.000000	0.445320 
549.000000	0.447130 
548.000000	0.448930 
547.000000	0.450630 
546.000000	0.451970 
545.000000	0.453610 
544.000000	0.454860 
543.000000	0.456060 
542.000000	0.457130 
541.000000	0.458210 
540.000000	0.458810 
539.000000	0.459280 
538.000000	0.459660 
537.000000	0.460130 
536.000000	0.460240 
535.000000	0.460200 
534.000000	0.459990 
533.000000	0.459800 
532.000000	0.459170 
531.000000	0.458310 
530.000000	0.457340 
529.000000	0.456350 
528.000000	0.455080 
527.000000	0.453370 
526.000000	0.451870 
525.000000	0.449820 
524.000000	0.447700 
523.000000	0.445520 
522.000000	0.443100 
521.000000	0.440590 
520.000000	0.437780 
519.000000	0.434650 
518.000000	0.431610 
517.000000	0.428460 
516.000000	0.424930 
515.000000	0.421560 
514.000000	0.417800 
513.000000	0.413930 
512.000000	0.410120 
511.000000	0.406040 
510.000000	0.401820 
509.000000	0.397510 
508.000000	0.392990 
507.000000	0.388390 
506.000000	0.383770 
505.000000	0.379260 
504.000000	0.374510 
503.000000	0.369770 
502.000000	0.364910 
501.000000	0.360080 
500.000000	0.354930 
499.000000	0.349820 
498.000000	0.344730 
497.000000	0.339640 
496.000000	0.334680 
495.000000	0.329760 
494.000000	0.324950 
493.000000	0.320060 
492.000000	0.315450 
491.000000	0.310710 
490.000000	0.305610 
489.000000	0.301280 
488.000000	0.296650 
487.000000	0.292220 
486.000000	0.287990 
485.000000	0.283490 
484.000000	0.279350 
483.000000	0.275240 
482.000000	0.271030 
481.000000	0.267400 
480.000000	0.263480 
479.000000	0.259710 
478.000000	0.256120 
477.000000	0.252600 
476.000000	0.249180 
475.000000	0.245800 
474.000000	0.242430 
473.000000	0.239400 
472.000000	0.236450 
471.000000	0.233620 
470.000000	0.230630 
469.000000	0.228420 
468.000000	0.225780 
467.000000	0.223500 
466.000000	0.221210 
465.000000	0.219280 
464.000000	0.217480 
463.000000	0.215640 
462.000000	0.214070 
461.000000	0.212740 
460.000000	0.211630 
459.000000	0.210290 
458.000000	0.209230 
457.000000	0.208190 
456.000000	0.207950 
455.000000	0.207420 
454.000000	0.206950 
453.000000	0.206970 
452.000000	0.207050 
451.000000	0.206790 
450.000000	0.207390 
449.000000	0.208070 
448.000000	0.208810 
447.000000	0.209640 
446.000000	0.210920 
445.000000	0.212350 
444.000000	0.214090 
443.000000	0.216030 
442.000000	0.218410 
441.000000	0.220940 
440.000000	0.223790 
439.000000	0.226540 
438.000000	0.230110 
437.000000	0.233450 
436.000000	0.236950 
435.000000	0.240940 
434.000000	0.245010 
433.000000	0.250000 
432.000000	0.254670 
431.000000	0.259060 
430.000000	0.264410 
429.000000	0.269870 
428.000000	0.275200 
427.000000	0.280760 
426.000000	0.286420 
425.000000	0.292730 
424.000000	0.298950 
423.000000	0.305800 
422.000000	0.312780 
421.000000	0.322290 
420.000000	0.328980 
419.000000	0.335750 
418.000000	0.342540 
417.000000	0.349660 
416.000000	0.356620 
415.000000	0.363800 
414.000000	0.370980 
413.000000	0.378180 
412.000000	0.385440 
411.000000	0.392630 
410.000000	0.399580 
409.000000	0.406310 
408.000000	0.413030 
407.000000	0.419430 
406.000000	0.426070 
405.000000	0.431940 
404.000000	0.437880 
403.000000	0.443270 
402.000000	0.448430 
401.000000	0.453540 
400.000000	0.458340 

