PE UV                   SPECTRUM    ASCII       PEDS        1.60        
  -1
23MS145.SP
24/10/17
15:26:28.00
24/10/17
15:27:33.00


400.000000
1









4444

SCAN
1
1


0.0
480.0
2.00
MANUAL



UV/VIS




































#HDR
-1
-1
#GR
NM
A
0.00000011920928955078
0.0
700.000000
1.000000
301
8
0.484260
0.026440
#DATA
700.000000	0.026440 
699.000000	0.026980 
698.000000	0.027530 
697.000000	0.028070 
696.000000	0.028570 
695.000000	0.029150 
694.000000	0.029860 
693.000000	0.030420 
692.000000	0.031230 
691.000000	0.031860 
690.000000	0.032580 
689.000000	0.033430 
688.000000	0.034240 
687.000000	0.035080 
686.000000	0.035950 
685.000000	0.036860 
684.000000	0.037860 
683.000000	0.039450 
682.000000	0.040640 
681.000000	0.041790 
680.000000	0.042860 
679.000000	0.044370 
678.000000	0.045440 
677.000000	0.046900 
676.000000	0.048220 
675.000000	0.049580 
674.000000	0.051140 
673.000000	0.052680 
672.000000	0.054290 
671.000000	0.055990 
670.000000	0.057610 
669.000000	0.059280 
668.000000	0.060990 
667.000000	0.062680 
666.000000	0.064670 
665.000000	0.066520 
664.000000	0.068660 
663.000000	0.070810 
662.000000	0.072990 
661.000000	0.075250 
660.000000	0.077470 
659.000000	0.079750 
658.000000	0.082140 
657.000000	0.084430 
656.000000	0.087090 
655.000000	0.089740 
654.000000	0.092500 
653.000000	0.095280 
652.000000	0.098200 
651.000000	0.101060 
650.000000	0.104020 
649.000000	0.107100 
648.000000	0.110040 
647.000000	0.113190 
646.000000	0.116350 
645.000000	0.119590 
644.000000	0.122950 
643.000000	0.126330 
642.000000	0.129660 
641.000000	0.132870 
640.000000	0.136160 
639.000000	0.139400 
638.000000	0.142630 
637.000000	0.145960 
636.000000	0.149330 
635.000000	0.152890 
634.000000	0.156430 
633.000000	0.160010 
632.000000	0.163610 
631.000000	0.167060 
630.000000	0.170560 
629.000000	0.174100 
628.000000	0.177630 
627.000000	0.181260 
626.000000	0.184840 
625.000000	0.188510 
624.000000	0.192330 
623.000000	0.196200 
622.000000	0.199740 
621.000000	0.203330 
620.000000	0.206950 
619.000000	0.210560 
618.000000	0.214200 
617.000000	0.217950 
616.000000	0.221570 
615.000000	0.225370 
614.000000	0.229000 
613.000000	0.232540 
612.000000	0.235850 
611.000000	0.239030 
610.000000	0.242390 
609.000000	0.245780 
608.000000	0.249140 
607.000000	0.252500 
606.000000	0.255830 
605.000000	0.259280 
604.000000	0.262580 
603.000000	0.265780 
602.000000	0.268980 
601.000000	0.272170 
600.000000	0.275490 
599.000000	0.278790 
598.000000	0.282150 
597.000000	0.285490 
596.000000	0.288750 
595.000000	0.292200 
594.000000	0.295570 
593.000000	0.298890 
592.000000	0.302260 
591.000000	0.305530 
590.000000	0.309040 
589.000000	0.312630 
588.000000	0.316000 
587.000000	0.319670 
586.000000	0.323350 
585.000000	0.327090 
584.000000	0.330640 
583.000000	0.334250 
582.000000	0.337730 
581.000000	0.341360 
580.000000	0.344840 
579.000000	0.348590 
578.000000	0.352330 
577.000000	0.356250 
576.000000	0.360020 
575.000000	0.364000 
574.000000	0.367760 
573.000000	0.371620 
572.000000	0.375320 
571.000000	0.379230 
570.000000	0.383130 
569.000000	0.387340 
568.000000	0.391500 
567.000000	0.395490 
566.000000	0.399630 
565.000000	0.403690 
564.000000	0.407660 
563.000000	0.411680 
562.000000	0.415730 
561.000000	0.419810 
560.000000	0.423780 
559.000000	0.427890 
558.000000	0.431800 
557.000000	0.435740 
556.000000	0.439650 
555.000000	0.443140 
554.000000	0.446500 
553.000000	0.449940 
552.000000	0.453400 
551.000000	0.456510 
550.000000	0.459530 
549.000000	0.462520 
548.000000	0.465330 
547.000000	0.467920 
546.000000	0.470330 
545.000000	0.472550 
544.000000	0.474670 
543.000000	0.476520 
542.000000	0.478220 
541.000000	0.479820 
540.000000	0.481190 
539.000000	0.482230 
538.000000	0.482950 
537.000000	0.483860 
536.000000	0.484130 
535.000000	0.484260 
534.000000	0.484130 
533.000000	0.483860 
532.000000	0.483070 
531.000000	0.482110 
530.000000	0.480800 
529.000000	0.479370 
528.000000	0.477720 
527.000000	0.475460 
526.000000	0.473490 
525.000000	0.470820 
524.000000	0.468050 
523.000000	0.465020 
522.000000	0.461530 
521.000000	0.458100 
520.000000	0.454160 
519.000000	0.449990 
518.000000	0.445740 
517.000000	0.441340 
516.000000	0.436730 
515.000000	0.431920 
514.000000	0.426670 
513.000000	0.421240 
512.000000	0.415560 
511.000000	0.409570 
510.000000	0.403550 
509.000000	0.397530 
508.000000	0.391110 
507.000000	0.384770 
506.000000	0.378420 
505.000000	0.371720 
504.000000	0.364780 
503.000000	0.357770 
502.000000	0.350550 
501.000000	0.343260 
500.000000	0.335730 
499.000000	0.328310 
498.000000	0.320970 
497.000000	0.313790 
496.000000	0.306470 
495.000000	0.299160 
494.000000	0.291860 
493.000000	0.284320 
492.000000	0.277190 
491.000000	0.269990 
490.000000	0.262260 
489.000000	0.255400 
488.000000	0.248610 
487.000000	0.241750 
486.000000	0.235140 
485.000000	0.228350 
484.000000	0.221690 
483.000000	0.215010 
482.000000	0.208420 
481.000000	0.201960 
480.000000	0.195930 
479.000000	0.189950 
478.000000	0.184210 
477.000000	0.178570 
476.000000	0.173090 
475.000000	0.167300 
474.000000	0.161910 
473.000000	0.156850 
472.000000	0.151560 
471.000000	0.146860 
470.000000	0.142140 
469.000000	0.137890 
468.000000	0.133790 
467.000000	0.130030 
466.000000	0.125900 
465.000000	0.122440 
464.000000	0.119120 
463.000000	0.116030 
462.000000	0.113150 
461.000000	0.110540 
460.000000	0.108410 
459.000000	0.106240 
458.000000	0.104340 
457.000000	0.102700 
456.000000	0.101540 
455.000000	0.100220 
454.000000	0.099390 
453.000000	0.098730 
452.000000	0.098620 
451.000000	0.098350 
450.000000	0.098540 
449.000000	0.099340 
448.000000	0.099620 
447.000000	0.100590 
446.000000	0.102010 
445.000000	0.103640 
444.000000	0.105600 
443.000000	0.108060 
442.000000	0.110800 
441.000000	0.113510 
440.000000	0.116800 
439.000000	0.120380 
438.000000	0.124150 
437.000000	0.128410 
436.000000	0.132610 
435.000000	0.137620 
434.000000	0.142900 
433.000000	0.148930 
432.000000	0.153880 
431.000000	0.159490 
430.000000	0.165710 
429.000000	0.171800 
428.000000	0.178470 
427.000000	0.185520 
426.000000	0.192550 
425.000000	0.200340 
424.000000	0.208020 
423.000000	0.215950 
422.000000	0.223690 
421.000000	0.230350 
420.000000	0.238470 
419.000000	0.246650 
418.000000	0.255010 
417.000000	0.263810 
416.000000	0.272790 
415.000000	0.281720 
414.000000	0.290490 
413.000000	0.299350 
412.000000	0.307930 
411.000000	0.316540 
410.000000	0.324930 
409.000000	0.333520 
408.000000	0.342290 
407.000000	0.350430 
406.000000	0.358580 
405.000000	0.366000 
404.000000	0.373150 
403.000000	0.379990 
402.000000	0.386510 
401.000000	0.392690 
400.000000	0.398660 

