PE UV                   SPECTRUM    ASCII       PEDS        1.60        
  -1
23MS144.SP
24/10/17
15:14:26.00
24/10/17
15:15:51.00


400.000000
1









4444

SCAN
1
1


0.0
480.0
2.00
MANUAL



UV/VIS




































#HDR
-1
-1
#GR
NM
A
0.00000011920928955078
0.0
700.000000
1.000000
301
8
0.556890
0.025860
#DATA
700.000000	0.025860 
699.000000	0.026380 
698.000000	0.027150 
697.000000	0.027760 
696.000000	0.028360 
695.000000	0.029150 
694.000000	0.029880 
693.000000	0.030650 
692.000000	0.031660 
691.000000	0.032400 
690.000000	0.033310 
689.000000	0.034260 
688.000000	0.035180 
687.000000	0.036130 
686.000000	0.037190 
685.000000	0.038330 
684.000000	0.039470 
683.000000	0.040960 
682.000000	0.042310 
681.000000	0.043700 
680.000000	0.044990 
679.000000	0.046540 
678.000000	0.048030 
677.000000	0.049560 
676.000000	0.051320 
675.000000	0.052890 
674.000000	0.054650 
673.000000	0.056470 
672.000000	0.058240 
671.000000	0.060380 
670.000000	0.062230 
669.000000	0.064170 
668.000000	0.066199 
667.000000	0.068230 
666.000000	0.070499 
665.000000	0.072660 
664.000000	0.075200 
663.000000	0.077600 
662.000000	0.080220 
661.000000	0.082760 
660.000000	0.085310 
659.000000	0.087920 
658.000000	0.090720 
657.000000	0.093530 
656.000000	0.096449 
655.000000	0.099480 
654.000000	0.102590 
653.000000	0.105900 
652.000000	0.109240 
651.000000	0.112510 
650.000000	0.115910 
649.000000	0.119330 
648.000000	0.122850 
647.000000	0.126390 
646.000000	0.130000 
645.000000	0.133830 
644.000000	0.137640 
643.000000	0.141580 
642.000000	0.145390 
641.000000	0.149100 
640.000000	0.152780 
639.000000	0.156530 
638.000000	0.160360 
637.000000	0.164220 
636.000000	0.168100 
635.000000	0.172190 
634.000000	0.176280 
633.000000	0.180410 
632.000000	0.184730 
631.000000	0.188720 
630.000000	0.192730 
629.000000	0.196840 
628.000000	0.200910 
627.000000	0.205190 
626.000000	0.209330 
625.000000	0.213530 
624.000000	0.217920 
623.000000	0.222170 
622.000000	0.226290 
621.000000	0.230460 
620.000000	0.234600 
619.000000	0.238780 
618.000000	0.242970 
617.000000	0.247290 
616.000000	0.251500 
615.000000	0.255760 
614.000000	0.260090 
613.000000	0.264070 
612.000000	0.267840 
611.000000	0.271620 
610.000000	0.275530 
609.000000	0.279390 
608.000000	0.283220 
607.000000	0.287190 
606.000000	0.291080 
605.000000	0.294940 
604.000000	0.298730 
603.000000	0.302430 
602.000000	0.306150 
601.000000	0.309890 
600.000000	0.313680 
599.000000	0.317440 
598.000000	0.321330 
597.000000	0.325130 
596.000000	0.329000 
595.000000	0.333020 
594.000000	0.336810 
593.000000	0.340610 
592.000000	0.344490 
591.000000	0.348340 
590.000000	0.352320 
589.000000	0.356450 
588.000000	0.360600 
587.000000	0.364770 
586.000000	0.369150 
585.000000	0.373230 
584.000000	0.377490 
583.000000	0.381470 
582.000000	0.385650 
581.000000	0.389790 
580.000000	0.393980 
579.000000	0.398280 
578.000000	0.402500 
577.000000	0.407110 
576.000000	0.411610 
575.000000	0.416130 
574.000000	0.420470 
573.000000	0.425000 
572.000000	0.429420 
571.000000	0.434030 
570.000000	0.438600 
569.000000	0.443390 
568.000000	0.448250 
567.000000	0.452950 
566.000000	0.457760 
565.000000	0.462420 
564.000000	0.467050 
563.000000	0.471580 
562.000000	0.476170 
561.000000	0.481100 
560.000000	0.485780 
559.000000	0.490480 
558.000000	0.495350 
557.000000	0.499980 
556.000000	0.504480 
555.000000	0.508800 
554.000000	0.512640 
553.000000	0.516580 
552.000000	0.520450 
551.000000	0.524300 
550.000000	0.527830 
549.000000	0.531220 
548.000000	0.534690 
547.000000	0.537620 
546.000000	0.540460 
545.000000	0.543190 
544.000000	0.545560 
543.000000	0.547810 
542.000000	0.549860 
541.000000	0.551610 
540.000000	0.553400 
539.000000	0.554490 
538.000000	0.555410 
537.000000	0.556300 
536.000000	0.556660 
535.000000	0.556890 
534.000000	0.556640 
533.000000	0.556470 
532.000000	0.555620 
531.000000	0.554600 
530.000000	0.553180 
529.000000	0.551480 
528.000000	0.549490 
527.000000	0.547170 
526.000000	0.544610 
525.000000	0.541610 
524.000000	0.538680 
523.000000	0.534930 
522.000000	0.531060 
521.000000	0.527140 
520.000000	0.522480 
519.000000	0.517850 
518.000000	0.512970 
517.000000	0.507760 
516.000000	0.502400 
515.000000	0.497070 
514.000000	0.490840 
513.000000	0.484720 
512.000000	0.478380 
511.000000	0.471470 
510.000000	0.464560 
509.000000	0.457510 
508.000000	0.450210 
507.000000	0.442910 
506.000000	0.435530 
505.000000	0.427870 
504.000000	0.420000 
503.000000	0.411850 
502.000000	0.403380 
501.000000	0.395130 
500.000000	0.386420 
499.000000	0.377920 
498.000000	0.369330 
497.000000	0.361180 
496.000000	0.352920 
495.000000	0.344200 
494.000000	0.335610 
493.000000	0.327020 
492.000000	0.318710 
491.000000	0.310200 
490.000000	0.301510 
489.000000	0.293390 
488.000000	0.285720 
487.000000	0.277930 
486.000000	0.270070 
485.000000	0.262350 
484.000000	0.254510 
483.000000	0.246650 
482.000000	0.238920 
481.000000	0.231810 
480.000000	0.224530 
479.000000	0.217760 
478.000000	0.211100 
477.000000	0.204400 
476.000000	0.198100 
475.000000	0.191500 
474.000000	0.185070 
473.000000	0.179030 
472.000000	0.173040 
471.000000	0.167430 
470.000000	0.161990 
469.000000	0.157240 
468.000000	0.152290 
467.000000	0.147890 
466.000000	0.143340 
465.000000	0.139200 
464.000000	0.135250 
463.000000	0.131550 
462.000000	0.128350 
461.000000	0.125450 
460.000000	0.122800 
459.000000	0.120190 
458.000000	0.118050 
457.000000	0.115990 
456.000000	0.114480 
455.000000	0.113120 
454.000000	0.111990 
453.000000	0.111270 
452.000000	0.110840 
451.000000	0.110440 
450.000000	0.110400 
449.000000	0.111140 
448.000000	0.111860 
447.000000	0.112680 
446.000000	0.114330 
445.000000	0.116080 
444.000000	0.118530 
443.000000	0.121060 
442.000000	0.124040 
441.000000	0.127240 
440.000000	0.130970 
439.000000	0.135080 
438.000000	0.139600 
437.000000	0.144100 
436.000000	0.149440 
435.000000	0.155190 
434.000000	0.160940 
433.000000	0.167710 
432.000000	0.173850 
431.000000	0.180360 
430.000000	0.187140 
429.000000	0.194500 
428.000000	0.202010 
427.000000	0.210040 
426.000000	0.218350 
425.000000	0.226920 
424.000000	0.236350 
423.000000	0.245650 
422.000000	0.254250 
421.000000	0.262710 
420.000000	0.272160 
419.000000	0.281740 
418.000000	0.291480 
417.000000	0.301900 
416.000000	0.312110 
415.000000	0.322310 
414.000000	0.332810 
413.000000	0.343050 
412.000000	0.352940 
411.000000	0.362920 
410.000000	0.372510 
409.000000	0.382600 
408.000000	0.392930 
407.000000	0.402520 
406.000000	0.411830 
405.000000	0.420570 
404.000000	0.429050 
403.000000	0.437000 
402.000000	0.444590 
401.000000	0.451990 
400.000000	0.458980 

