PE UV                   SPECTRUM    ASCII       PEDS        1.60        
  -1
23MS262.SP
24/10/18
16:03:16.00
24/10/18
16:04:16.00


400.000000
1









4444

SCAN
1
1


0.0
480.0
2.00
MANUAL



UV/VIS




































#HDR
-1
-1
#GR
NM
A
0.00000011920928955078
0.0
700.000000
1.000000
301
8
0.342580
0.024030
#DATA
700.000000	0.024030 
699.000000	0.024450 
698.000000	0.024690 
697.000000	0.025180 
696.000000	0.025520 
695.000000	0.025940 
694.000000	0.026470 
693.000000	0.026970 
692.000000	0.027470 
691.000000	0.028010 
690.000000	0.028570 
689.000000	0.029120 
688.000000	0.029740 
687.000000	0.030410 
686.000000	0.030880 
685.000000	0.031650 
684.000000	0.032400 
683.000000	0.032990 
682.000000	0.033760 
681.000000	0.034590 
680.000000	0.035430 
679.000000	0.036290 
678.000000	0.037200 
677.000000	0.038100 
676.000000	0.039120 
675.000000	0.040070 
674.000000	0.041270 
673.000000	0.042400 
672.000000	0.043440 
671.000000	0.044680 
670.000000	0.045720 
669.000000	0.046900 
668.000000	0.048130 
667.000000	0.049410 
666.000000	0.050610 
665.000000	0.052000 
664.000000	0.053420 
663.000000	0.054940 
662.000000	0.056540 
661.000000	0.058110 
660.000000	0.059620 
659.000000	0.061280 
658.000000	0.062790 
657.000000	0.064560 
656.000000	0.066320 
655.000000	0.068160 
654.000000	0.070120 
653.000000	0.071910 
652.000000	0.073969 
651.000000	0.076060 
650.000000	0.078190 
649.000000	0.080150 
648.000000	0.082100 
647.000000	0.084349 
646.000000	0.086470 
645.000000	0.088890 
644.000000	0.091189 
643.000000	0.093530 
642.000000	0.095790 
641.000000	0.098040 
640.000000	0.100300 
639.000000	0.102540 
638.000000	0.104720 
637.000000	0.107140 
636.000000	0.109490 
635.000000	0.111960 
634.000000	0.114360 
633.000000	0.116860 
632.000000	0.119310 
631.000000	0.121750 
630.000000	0.124130 
629.000000	0.126570 
628.000000	0.129040 
627.000000	0.131630 
626.000000	0.134130 
625.000000	0.136710 
624.000000	0.139240 
623.000000	0.141960 
622.000000	0.144440 
621.000000	0.147050 
620.000000	0.149400 
619.000000	0.151980 
618.000000	0.154290 
617.000000	0.157010 
616.000000	0.159530 
615.000000	0.162300 
614.000000	0.164810 
613.000000	0.167070 
612.000000	0.169370 
611.000000	0.171780 
610.000000	0.174010 
609.000000	0.176440 
608.000000	0.178670 
607.000000	0.181080 
606.000000	0.183500 
605.000000	0.185750 
604.000000	0.188100 
603.000000	0.190360 
602.000000	0.192580 
601.000000	0.194770 
600.000000	0.197040 
599.000000	0.199260 
598.000000	0.201630 
597.000000	0.204060 
596.000000	0.206380 
595.000000	0.208640 
594.000000	0.210970 
593.000000	0.213300 
592.000000	0.215610 
591.000000	0.217890 
590.000000	0.220410 
589.000000	0.222830 
588.000000	0.225200 
587.000000	0.227820 
586.000000	0.230430 
585.000000	0.233000 
584.000000	0.235460 
583.000000	0.237870 
582.000000	0.240480 
581.000000	0.242770 
580.000000	0.245450 
579.000000	0.247870 
578.000000	0.250480 
577.000000	0.253180 
576.000000	0.255990 
575.000000	0.258480 
574.000000	0.261200 
573.000000	0.263840 
572.000000	0.266410 
571.000000	0.269170 
570.000000	0.271830 
569.000000	0.274740 
568.000000	0.277670 
567.000000	0.280430 
566.000000	0.283250 
565.000000	0.286010 
564.000000	0.288870 
563.000000	0.291470 
562.000000	0.294280 
561.000000	0.297120 
560.000000	0.299840 
559.000000	0.302680 
558.000000	0.306170 
557.000000	0.308990 
556.000000	0.311740 
555.000000	0.314180 
554.000000	0.316510 
553.000000	0.318900 
552.000000	0.321210 
551.000000	0.323440 
550.000000	0.325640 
549.000000	0.327600 
548.000000	0.329680 
547.000000	0.331440 
546.000000	0.333060 
545.000000	0.334580 
544.000000	0.335950 
543.000000	0.337260 
542.000000	0.338550 
541.000000	0.339590 
540.000000	0.340460 
539.000000	0.341180 
538.000000	0.341750 
537.000000	0.342240 
536.000000	0.342450 
535.000000	0.342520 
534.000000	0.342580 
533.000000	0.342290 
532.000000	0.341750 
531.000000	0.341180 
530.000000	0.340210 
529.000000	0.339230 
528.000000	0.338020 
527.000000	0.336610 
526.000000	0.335060 
525.000000	0.333390 
524.000000	0.331350 
523.000000	0.329350 
522.000000	0.326970 
521.000000	0.324520 
520.000000	0.321740 
519.000000	0.318890 
518.000000	0.316040 
517.000000	0.312910 
516.000000	0.309750 
515.000000	0.306440 
514.000000	0.302610 
513.000000	0.299060 
512.000000	0.295220 
511.000000	0.291150 
510.000000	0.286970 
509.000000	0.282670 
508.000000	0.278290 
507.000000	0.273940 
506.000000	0.269530 
505.000000	0.264960 
504.000000	0.260180 
503.000000	0.255320 
502.000000	0.250300 
501.000000	0.245240 
500.000000	0.240190 
499.000000	0.234900 
498.000000	0.229950 
497.000000	0.224980 
496.000000	0.219880 
495.000000	0.214910 
494.000000	0.209610 
493.000000	0.204670 
492.000000	0.199670 
491.000000	0.194410 
490.000000	0.189410 
489.000000	0.184770 
488.000000	0.180310 
487.000000	0.175570 
486.000000	0.170910 
485.000000	0.166100 
484.000000	0.161540 
483.000000	0.157060 
482.000000	0.152400 
481.000000	0.147900 
480.000000	0.143720 
479.000000	0.139610 
478.000000	0.135650 
477.000000	0.131960 
476.000000	0.128160 
475.000000	0.124340 
474.000000	0.120670 
473.000000	0.117090 
472.000000	0.113700 
471.000000	0.110270 
470.000000	0.107220 
469.000000	0.104160 
468.000000	0.101650 
467.000000	0.099130 
466.000000	0.096460 
465.000000	0.093960 
464.000000	0.091950 
463.000000	0.089780 
462.000000	0.087850 
461.000000	0.086300 
460.000000	0.084790 
459.000000	0.083380 
458.000000	0.082620 
457.000000	0.081300 
456.000000	0.080430 
455.000000	0.079659 
454.000000	0.079190 
453.000000	0.079000 
452.000000	0.078960 
451.000000	0.078830 
450.000000	0.079170 
449.000000	0.079420 
448.000000	0.079940 
447.000000	0.080930 
446.000000	0.081830 
445.000000	0.083340 
444.000000	0.084580 
443.000000	0.086340 
442.000000	0.088100 
441.000000	0.090590 
440.000000	0.092600 
439.000000	0.095330 
438.000000	0.098200 
437.000000	0.101110 
436.000000	0.104280 
435.000000	0.108060 
434.000000	0.111540 
433.000000	0.115570 
432.000000	0.119090 
431.000000	0.123320 
430.000000	0.127650 
429.000000	0.132250 
428.000000	0.136850 
427.000000	0.141900 
426.000000	0.146610 
425.000000	0.152240 
424.000000	0.157610 
423.000000	0.163410 
422.000000	0.168680 
421.000000	0.174400 
420.000000	0.180010 
419.000000	0.185760 
418.000000	0.191650 
417.000000	0.198150 
416.000000	0.204290 
415.000000	0.210620 
414.000000	0.216820 
413.000000	0.222990 
412.000000	0.228880 
411.000000	0.234940 
410.000000	0.240830 
409.000000	0.246900 
408.000000	0.252900 
407.000000	0.258750 
406.000000	0.264360 
405.000000	0.269530 
404.000000	0.274500 
403.000000	0.279170 
402.000000	0.283790 
401.000000	0.288240 
400.000000	0.292230 

