PE UV                   SPECTRUM    ASCII       PEDS        1.60        
  -1
23MS234.SP
24/09/24
17:15:57.00
24/09/24
17:18:20.00


400.000000
1









4444

SCAN
1
1


0.0
480.0
2.00
MANUAL



UV/VIS




































#HDR
-1
-1
#GR
NM
A
0.00000011920928955078
0.0
700.000000
1.000000
301
8
0.761310
0.065000
#DATA
700.000000	0.065000 
699.000000	0.067309 
698.000000	0.069510 
697.000000	0.071940 
696.000000	0.074149 
695.000000	0.076560 
694.000000	0.079159 
693.000000	0.081760 
692.000000	0.084480 
691.000000	0.087310 
690.000000	0.090250 
689.000000	0.093210 
688.000000	0.096269 
687.000000	0.099400 
686.000000	0.102620 
685.000000	0.105860 
684.000000	0.109290 
683.000000	0.113760 
682.000000	0.117800 
681.000000	0.121740 
680.000000	0.125720 
679.000000	0.129870 
678.000000	0.133910 
677.000000	0.138170 
676.000000	0.142410 
675.000000	0.146730 
674.000000	0.151300 
673.000000	0.155860 
672.000000	0.160430 
671.000000	0.165170 
670.000000	0.169900 
669.000000	0.174560 
668.000000	0.179370 
667.000000	0.183990 
666.000000	0.188800 
665.000000	0.193730 
664.000000	0.198830 
663.000000	0.204210 
662.000000	0.209490 
661.000000	0.214810 
660.000000	0.220180 
659.000000	0.225580 
658.000000	0.230910 
657.000000	0.236270 
656.000000	0.241690 
655.000000	0.247150 
654.000000	0.252840 
653.000000	0.258680 
652.000000	0.264500 
651.000000	0.270400 
650.000000	0.276020 
649.000000	0.281850 
648.000000	0.287400 
647.000000	0.293070 
646.000000	0.298780 
645.000000	0.304460 
644.000000	0.310200 
643.000000	0.315940 
642.000000	0.321400 
641.000000	0.326770 
640.000000	0.331940 
639.000000	0.337050 
638.000000	0.342120 
637.000000	0.346960 
636.000000	0.351820 
635.000000	0.356800 
634.000000	0.361790 
633.000000	0.366600 
632.000000	0.371540 
631.000000	0.376130 
630.000000	0.380770 
629.000000	0.385090 
628.000000	0.389300 
627.000000	0.393520 
626.000000	0.397710 
625.000000	0.401810 
624.000000	0.405800 
623.000000	0.409850 
622.000000	0.413690 
621.000000	0.417310 
620.000000	0.420790 
619.000000	0.424180 
618.000000	0.427320 
617.000000	0.430460 
616.000000	0.433610 
615.000000	0.436620 
614.000000	0.439470 
613.000000	0.442070 
612.000000	0.444350 
611.000000	0.446580 
610.000000	0.448690 
609.000000	0.450820 
608.000000	0.452750 
607.000000	0.454550 
606.000000	0.456370 
605.000000	0.458030 
604.000000	0.459620 
603.000000	0.461030 
602.000000	0.462320 
601.000000	0.463630 
600.000000	0.464850 
599.000000	0.465980 
598.000000	0.467040 
597.000000	0.468170 
596.000000	0.469010 
595.000000	0.469970 
594.000000	0.470720 
593.000000	0.471620 
592.000000	0.472380 
591.000000	0.473230 
590.000000	0.473950 
589.000000	0.474630 
588.000000	0.475320 
587.000000	0.476070 
586.000000	0.476700 
585.000000	0.477640 
584.000000	0.478380 
583.000000	0.479190 
582.000000	0.479870 
581.000000	0.480790 
580.000000	0.481560 
579.000000	0.482560 
578.000000	0.483540 
577.000000	0.484660 
576.000000	0.485840 
575.000000	0.487040 
574.000000	0.488330 
573.000000	0.489710 
572.000000	0.491170 
571.000000	0.492630 
570.000000	0.494130 
569.000000	0.495940 
568.000000	0.497820 
567.000000	0.499830 
566.000000	0.501830 
565.000000	0.503910 
564.000000	0.506170 
563.000000	0.508510 
562.000000	0.510880 
561.000000	0.513470 
560.000000	0.516220 
559.000000	0.518830 
558.000000	0.522170 
557.000000	0.525160 
556.000000	0.528290 
555.000000	0.531550 
554.000000	0.534359 
553.000000	0.537460 
552.000000	0.540780 
551.000000	0.543870 
550.000000	0.547260 
549.000000	0.550420 
548.000000	0.553980 
547.000000	0.557200 
546.000000	0.560250 
545.000000	0.563760 
544.000000	0.566930 
543.000000	0.570180 
542.000000	0.573390 
541.000000	0.576410 
540.000000	0.579670 
539.000000	0.582780 
538.000000	0.585700 
537.000000	0.588820 
536.000000	0.591750 
535.000000	0.594710 
534.000000	0.597150 
533.000000	0.599590 
532.000000	0.602079 
531.000000	0.604480 
530.000000	0.606480 
529.000000	0.608780 
528.000000	0.610739 
527.000000	0.612170 
526.000000	0.613920 
525.000000	0.615150 
524.000000	0.616240 
523.000000	0.617110 
522.000000	0.617830 
521.000000	0.618430 
520.000000	0.619040 
519.000000	0.619170 
518.000000	0.619160 
517.000000	0.619030 
516.000000	0.618490 
515.000000	0.618009 
514.000000	0.617060 
513.000000	0.616480 
512.000000	0.615280 
511.000000	0.614070 
510.000000	0.612830 
509.000000	0.611170 
508.000000	0.609180 
507.000000	0.607590 
506.000000	0.605240 
505.000000	0.603450 
504.000000	0.601060 
503.000000	0.598490 
502.000000	0.595870 
501.000000	0.593070 
500.000000	0.590100 
499.000000	0.587100 
498.000000	0.583610 
497.000000	0.580700 
496.000000	0.577590 
495.000000	0.574570 
494.000000	0.571070 
493.000000	0.567260 
492.000000	0.564020 
491.000000	0.560580 
490.000000	0.556910 
489.000000	0.553820 
488.000000	0.550120 
487.000000	0.546680 
486.000000	0.543370 
485.000000	0.539880 
484.000000	0.536020 
483.000000	0.532360 
482.000000	0.528340 
481.000000	0.524980 
480.000000	0.521200 
479.000000	0.517770 
478.000000	0.514250 
477.000000	0.510730 
476.000000	0.506880 
475.000000	0.503200 
474.000000	0.499630 
473.000000	0.495920 
472.000000	0.492200 
471.000000	0.488380 
470.000000	0.484840 
469.000000	0.481170 
468.000000	0.477400 
467.000000	0.474030 
466.000000	0.470230 
465.000000	0.467000 
464.000000	0.463330 
463.000000	0.459870 
462.000000	0.456570 
461.000000	0.453160 
460.000000	0.449810 
459.000000	0.446450 
458.000000	0.443340 
457.000000	0.440400 
456.000000	0.437340 
455.000000	0.434630 
454.000000	0.431400 
453.000000	0.428770 
452.000000	0.425930 
451.000000	0.423010 
450.000000	0.420370 
449.000000	0.418410 
448.000000	0.415960 
447.000000	0.414050 
446.000000	0.412440 
445.000000	0.410950 
444.000000	0.409460 
443.000000	0.408530 
442.000000	0.407410 
441.000000	0.407230 
440.000000	0.407410 
439.000000	0.407830 
438.000000	0.408550 
437.000000	0.409330 
436.000000	0.410600 
435.000000	0.412780 
434.000000	0.414540 
433.000000	0.417260 
432.000000	0.420490 
431.000000	0.423660 
430.000000	0.427360 
429.000000	0.431530 
428.000000	0.435970 
427.000000	0.440780 
426.000000	0.445530 
425.000000	0.452390 
424.000000	0.458210 
423.000000	0.465020 
422.000000	0.472220 
421.000000	0.478100 
420.000000	0.485700 
419.000000	0.493450 
418.000000	0.501580 
417.000000	0.510270 
416.000000	0.518180 
415.000000	0.542780 
414.000000	0.616150 
413.000000	0.641490 
412.000000	0.641100 
411.000000	0.645510 
410.000000	0.655420 
409.000000	0.664630 
408.000000	0.672260 
407.000000	0.680550 
406.000000	0.687510 
405.000000	0.694360 
404.000000	0.705830 
403.000000	0.721040 
402.000000	0.734060 
401.000000	0.746300 
400.000000	0.761310 

