PE UV                   SPECTRUM    ASCII       PEDS        1.60        
  -1
23MS007.SP
24/10/21
15:33:15.00
24/10/21
15:34:18.00


400.000000
1









4444

SCAN
1
1


0.0
480.0
2.00
MANUAL



UV/VIS




































#HDR
-1
-1
#GR
NM
A
0.00000011920928955078
0.0
700.000000
1.000000
301
8
0.251030
0.011060
#DATA
700.000000	0.011060 
699.000000	0.011300 
698.000000	0.011610 
697.000000	0.011930 
696.000000	0.012220 
695.000000	0.012660 
694.000000	0.012910 
693.000000	0.013280 
692.000000	0.013620 
691.000000	0.014030 
690.000000	0.014420 
689.000000	0.014920 
688.000000	0.015300 
687.000000	0.015860 
686.000000	0.016410 
685.000000	0.016860 
684.000000	0.017420 
683.000000	0.017860 
682.000000	0.018300 
681.000000	0.018990 
680.000000	0.019610 
679.000000	0.020140 
678.000000	0.020730 
677.000000	0.021550 
676.000000	0.022150 
675.000000	0.023050 
674.000000	0.023710 
673.000000	0.024580 
672.000000	0.025490 
671.000000	0.026230 
670.000000	0.027210 
669.000000	0.028020 
668.000000	0.029030 
667.000000	0.029880 
666.000000	0.030940 
665.000000	0.031990 
664.000000	0.033040 
663.000000	0.034080 
662.000000	0.035230 
661.000000	0.036380 
660.000000	0.037610 
659.000000	0.038840 
658.000000	0.040140 
657.000000	0.041440 
656.000000	0.042760 
655.000000	0.043970 
654.000000	0.045490 
653.000000	0.046880 
652.000000	0.048350 
651.000000	0.049890 
650.000000	0.051640 
649.000000	0.053160 
648.000000	0.054680 
647.000000	0.056260 
646.000000	0.057850 
645.000000	0.059550 
644.000000	0.061270 
643.000000	0.063049 
642.000000	0.064879 
641.000000	0.066620 
640.000000	0.068340 
639.000000	0.069970 
638.000000	0.071710 
637.000000	0.073490 
636.000000	0.075270 
635.000000	0.077049 
634.000000	0.078930 
633.000000	0.080780 
632.000000	0.082780 
631.000000	0.084490 
630.000000	0.086510 
629.000000	0.088280 
628.000000	0.090210 
627.000000	0.092070 
626.000000	0.093770 
625.000000	0.095890 
624.000000	0.097850 
623.000000	0.099680 
622.000000	0.101740 
621.000000	0.103710 
620.000000	0.105640 
619.000000	0.107490 
618.000000	0.109330 
617.000000	0.111190 
616.000000	0.113130 
615.000000	0.115070 
614.000000	0.117030 
613.000000	0.118750 
612.000000	0.120580 
611.000000	0.122320 
610.000000	0.124080 
609.000000	0.125900 
608.000000	0.127570 
607.000000	0.129270 
606.000000	0.130980 
605.000000	0.132840 
604.000000	0.134570 
603.000000	0.136250 
602.000000	0.138120 
601.000000	0.139810 
600.000000	0.141530 
599.000000	0.143140 
598.000000	0.144800 
597.000000	0.146540 
596.000000	0.148290 
595.000000	0.150180 
594.000000	0.151750 
593.000000	0.153620 
592.000000	0.155420 
591.000000	0.157330 
590.000000	0.159030 
589.000000	0.160760 
588.000000	0.162620 
587.000000	0.164470 
586.000000	0.166450 
585.000000	0.168420 
584.000000	0.170340 
583.000000	0.172120 
582.000000	0.173940 
581.000000	0.175940 
580.000000	0.177770 
579.000000	0.179710 
578.000000	0.181610 
577.000000	0.183580 
576.000000	0.185700 
575.000000	0.187720 
574.000000	0.189800 
573.000000	0.191830 
572.000000	0.193980 
571.000000	0.195950 
570.000000	0.198020 
569.000000	0.200010 
568.000000	0.202130 
567.000000	0.204370 
566.000000	0.206470 
565.000000	0.208750 
564.000000	0.210840 
563.000000	0.213010 
562.000000	0.215140 
561.000000	0.217320 
560.000000	0.219500 
559.000000	0.221520 
558.000000	0.223230 
557.000000	0.225330 
556.000000	0.227410 
555.000000	0.229270 
554.000000	0.231180 
553.000000	0.233210 
552.000000	0.234880 
551.000000	0.236340 
550.000000	0.238060 
549.000000	0.239660 
548.000000	0.241060 
547.000000	0.242510 
546.000000	0.243720 
545.000000	0.244990 
544.000000	0.246100 
543.000000	0.247100 
542.000000	0.247990 
541.000000	0.248710 
540.000000	0.249380 
539.000000	0.250070 
538.000000	0.250450 
537.000000	0.250860 
536.000000	0.251020 
535.000000	0.251030 
534.000000	0.251010 
533.000000	0.250720 
532.000000	0.250440 
531.000000	0.250000 
530.000000	0.249240 
529.000000	0.248460 
528.000000	0.247520 
527.000000	0.246470 
526.000000	0.245170 
525.000000	0.243710 
524.000000	0.242230 
523.000000	0.240690 
522.000000	0.238950 
521.000000	0.237050 
520.000000	0.235000 
519.000000	0.232970 
518.000000	0.230740 
517.000000	0.228270 
516.000000	0.225760 
515.000000	0.223250 
514.000000	0.220560 
513.000000	0.217810 
512.000000	0.215030 
511.000000	0.212070 
510.000000	0.208970 
509.000000	0.205850 
508.000000	0.202470 
507.000000	0.199010 
506.000000	0.195570 
505.000000	0.192050 
504.000000	0.188560 
503.000000	0.185000 
502.000000	0.181360 
501.000000	0.177600 
500.000000	0.173790 
499.000000	0.169670 
498.000000	0.165810 
497.000000	0.161770 
496.000000	0.158030 
495.000000	0.154040 
494.000000	0.150320 
493.000000	0.146550 
492.000000	0.142710 
491.000000	0.139070 
490.000000	0.135110 
489.000000	0.131300 
488.000000	0.127860 
487.000000	0.124100 
486.000000	0.120380 
485.000000	0.116910 
484.000000	0.113460 
483.000000	0.110170 
482.000000	0.106740 
481.000000	0.103470 
480.000000	0.100180 
479.000000	0.096910 
478.000000	0.093940 
477.000000	0.090960 
476.000000	0.087780 
475.000000	0.085180 
474.000000	0.082350 
473.000000	0.079650 
472.000000	0.077070 
471.000000	0.074520 
470.000000	0.072140 
469.000000	0.069760 
468.000000	0.067710 
467.000000	0.065519 
466.000000	0.063390 
465.000000	0.061790 
464.000000	0.059990 
463.000000	0.058400 
462.000000	0.057000 
461.000000	0.055710 
460.000000	0.054420 
459.000000	0.053450 
458.000000	0.052340 
457.000000	0.051490 
456.000000	0.050830 
455.000000	0.050350 
454.000000	0.050000 
453.000000	0.049510 
452.000000	0.049420 
451.000000	0.049460 
450.000000	0.049610 
449.000000	0.049570 
448.000000	0.050060 
447.000000	0.050690 
446.000000	0.051430 
445.000000	0.052180 
444.000000	0.053310 
443.000000	0.054800 
442.000000	0.055850 
441.000000	0.057230 
440.000000	0.059160 
439.000000	0.061240 
438.000000	0.063070 
437.000000	0.065360 
436.000000	0.067610 
435.000000	0.070420 
434.000000	0.072929 
433.000000	0.075890 
432.000000	0.078740 
431.000000	0.081690 
430.000000	0.085070 
429.000000	0.088740 
428.000000	0.092090 
427.000000	0.095820 
426.000000	0.099360 
425.000000	0.103250 
424.000000	0.107230 
423.000000	0.111540 
422.000000	0.115940 
421.000000	0.120330 
420.000000	0.124790 
419.000000	0.129110 
418.000000	0.133560 
417.000000	0.138140 
416.000000	0.142530 
415.000000	0.147280 
414.000000	0.151870 
413.000000	0.156650 
412.000000	0.161330 
411.000000	0.166170 
410.000000	0.170740 
409.000000	0.175150 
408.000000	0.179630 
407.000000	0.183940 
406.000000	0.188030 
405.000000	0.192010 
404.000000	0.195990 
403.000000	0.199540 
402.000000	0.203100 
401.000000	0.206580 
400.000000	0.209770 

