PE UV                   SPECTRUM    ASCII       PEDS        1.60        
  -1
23MS146.SP
24/09/23
15:52:41.00
24/09/23
15:54:05.00


400.000000
1









4444

SCAN
1
1


0.0
480.0
2.00
MANUAL



UV/VIS




































#HDR
-1
-1
#GR
NM
A
0.00000011920928955078
0.0
700.000000
1.000000
301
8
0.265790
0.018130
#DATA
700.000000	0.018130 
699.000000	0.018620 
698.000000	0.019280 
697.000000	0.019890 
696.000000	0.020600 
695.000000	0.021370 
694.000000	0.022070 
693.000000	0.022780 
692.000000	0.023650 
691.000000	0.024330 
690.000000	0.025160 
689.000000	0.026160 
688.000000	0.026980 
687.000000	0.027910 
686.000000	0.028850 
685.000000	0.029830 
684.000000	0.030900 
683.000000	0.031840 
682.000000	0.032820 
681.000000	0.033950 
680.000000	0.035030 
679.000000	0.036230 
678.000000	0.037410 
677.000000	0.038650 
676.000000	0.039980 
675.000000	0.041250 
674.000000	0.042470 
673.000000	0.043740 
672.000000	0.045030 
671.000000	0.046440 
670.000000	0.047720 
669.000000	0.049100 
668.000000	0.050430 
667.000000	0.052030 
666.000000	0.053420 
665.000000	0.054890 
664.000000	0.056400 
663.000000	0.057860 
662.000000	0.059350 
661.000000	0.061040 
660.000000	0.062570 
659.000000	0.064170 
658.000000	0.065800 
657.000000	0.067530 
656.000000	0.069190 
655.000000	0.070819 
654.000000	0.072500 
653.000000	0.074130 
652.000000	0.075910 
651.000000	0.077640 
650.000000	0.079460 
649.000000	0.081379 
648.000000	0.083070 
647.000000	0.084940 
646.000000	0.086620 
645.000000	0.088390 
644.000000	0.090240 
643.000000	0.091960 
642.000000	0.093890 
641.000000	0.095510 
640.000000	0.097300 
639.000000	0.098840 
638.000000	0.100670 
637.000000	0.102280 
636.000000	0.103900 
635.000000	0.105510 
634.000000	0.107140 
633.000000	0.108820 
632.000000	0.110480 
631.000000	0.112160 
630.000000	0.113820 
629.000000	0.115340 
628.000000	0.116930 
627.000000	0.118510 
626.000000	0.120100 
625.000000	0.121640 
624.000000	0.123210 
623.000000	0.124620 
622.000000	0.126150 
621.000000	0.127620 
620.000000	0.129150 
619.000000	0.130560 
618.000000	0.131930 
617.000000	0.133300 
616.000000	0.134680 
615.000000	0.136150 
614.000000	0.137480 
613.000000	0.138720 
612.000000	0.139940 
611.000000	0.141140 
610.000000	0.142390 
609.000000	0.143450 
608.000000	0.144590 
607.000000	0.145670 
606.000000	0.146790 
605.000000	0.147900 
604.000000	0.148990 
603.000000	0.149990 
602.000000	0.151110 
601.000000	0.152210 
600.000000	0.153140 
599.000000	0.154200 
598.000000	0.155140 
597.000000	0.156060 
596.000000	0.157050 
595.000000	0.158240 
594.000000	0.159210 
593.000000	0.160300 
592.000000	0.161350 
591.000000	0.162370 
590.000000	0.163370 
589.000000	0.164310 
588.000000	0.165320 
587.000000	0.166450 
586.000000	0.167440 
585.000000	0.168680 
584.000000	0.169690 
583.000000	0.170720 
582.000000	0.171870 
581.000000	0.172950 
580.000000	0.174090 
579.000000	0.175230 
578.000000	0.176290 
577.000000	0.177630 
576.000000	0.178720 
575.000000	0.180130 
574.000000	0.181420 
573.000000	0.182740 
572.000000	0.184090 
571.000000	0.185430 
570.000000	0.186850 
569.000000	0.188220 
568.000000	0.189700 
567.000000	0.191220 
566.000000	0.192880 
565.000000	0.194430 
564.000000	0.196280 
563.000000	0.197830 
562.000000	0.199420 
561.000000	0.201320 
560.000000	0.203620 
559.000000	0.205730 
558.000000	0.207510 
557.000000	0.209680 
556.000000	0.211450 
555.000000	0.213470 
554.000000	0.215350 
553.000000	0.217320 
552.000000	0.219130 
551.000000	0.221200 
550.000000	0.223050 
549.000000	0.225080 
548.000000	0.227250 
547.000000	0.229070 
546.000000	0.230920 
545.000000	0.232850 
544.000000	0.234860 
543.000000	0.236820 
542.000000	0.238640 
541.000000	0.240430 
540.000000	0.242160 
539.000000	0.243830 
538.000000	0.245650 
537.000000	0.247320 
536.000000	0.249050 
535.000000	0.250580 
534.000000	0.252180 
533.000000	0.253720 
532.000000	0.255040 
531.000000	0.256370 
530.000000	0.257600 
529.000000	0.258880 
528.000000	0.259910 
527.000000	0.261110 
526.000000	0.261990 
525.000000	0.262820 
524.000000	0.263480 
523.000000	0.264070 
522.000000	0.264590 
521.000000	0.265040 
520.000000	0.265260 
519.000000	0.265530 
518.000000	0.265770 
517.000000	0.265790 
516.000000	0.265600 
515.000000	0.265420 
514.000000	0.265080 
513.000000	0.264690 
512.000000	0.264470 
511.000000	0.263710 
510.000000	0.263090 
509.000000	0.262150 
508.000000	0.261440 
507.000000	0.260340 
506.000000	0.259310 
505.000000	0.258250 
504.000000	0.257010 
503.000000	0.255580 
502.000000	0.254380 
501.000000	0.252650 
500.000000	0.251020 
499.000000	0.249360 
498.000000	0.247660 
497.000000	0.245700 
496.000000	0.243900 
495.000000	0.241940 
494.000000	0.239890 
493.000000	0.238100 
492.000000	0.236100 
491.000000	0.234060 
490.000000	0.231860 
489.000000	0.229810 
488.000000	0.227730 
487.000000	0.225760 
486.000000	0.223220 
485.000000	0.220820 
484.000000	0.218570 
483.000000	0.216430 
482.000000	0.214140 
481.000000	0.211920 
480.000000	0.209600 
479.000000	0.207190 
478.000000	0.204910 
477.000000	0.202630 
476.000000	0.200320 
475.000000	0.197940 
474.000000	0.195720 
473.000000	0.193260 
472.000000	0.191110 
471.000000	0.188910 
470.000000	0.186470 
469.000000	0.184190 
468.000000	0.181660 
467.000000	0.179410 
466.000000	0.177180 
465.000000	0.174970 
464.000000	0.172700 
463.000000	0.170420 
462.000000	0.168400 
461.000000	0.166470 
460.000000	0.164310 
459.000000	0.162330 
458.000000	0.160220 
457.000000	0.158460 
456.000000	0.156550 
455.000000	0.154720 
454.000000	0.152940 
453.000000	0.151030 
452.000000	0.149430 
451.000000	0.147710 
450.000000	0.146300 
449.000000	0.144750 
448.000000	0.143330 
447.000000	0.141850 
446.000000	0.140900 
445.000000	0.139690 
444.000000	0.138570 
443.000000	0.137820 
442.000000	0.136990 
441.000000	0.136270 
440.000000	0.135810 
439.000000	0.135570 
438.000000	0.135120 
437.000000	0.135190 
436.000000	0.135270 
435.000000	0.135600 
434.000000	0.135990 
433.000000	0.136570 
432.000000	0.137280 
431.000000	0.138180 
430.000000	0.139220 
429.000000	0.140600 
428.000000	0.142080 
427.000000	0.143700 
426.000000	0.145290 
425.000000	0.147000 
424.000000	0.149440 
423.000000	0.151600 
422.000000	0.154460 
421.000000	0.156300 
420.000000	0.158940 
419.000000	0.161870 
418.000000	0.165080 
417.000000	0.168290 
416.000000	0.171710 
415.000000	0.175340 
414.000000	0.179060 
413.000000	0.182960 
412.000000	0.186890 
411.000000	0.191030 
410.000000	0.195190 
409.000000	0.199540 
408.000000	0.203800 
407.000000	0.208160 
406.000000	0.212420 
405.000000	0.216830 
404.000000	0.220970 
403.000000	0.225330 
402.000000	0.229590 
401.000000	0.233930 
400.000000	0.238270 

