PE UV                   SPECTRUM    ASCII       PEDS        1.60        
  -1
23MS218.SP
24/10/18
15:11:04.00
24/10/18
15:12:19.00


400.000000
1









4444

SCAN
1
1


0.0
480.0
2.00
MANUAL



UV/VIS




































#HDR
-1
-1
#GR
NM
A
0.00000011920928955078
0.0
700.000000
1.000000
301
8
0.128040
0.005000
#DATA
700.000000	0.005000 
699.000000	0.005200 
698.000000	0.005280 
697.000000	0.005450 
696.000000	0.005640 
695.000000	0.005810 
694.000000	0.006050 
693.000000	0.006150 
692.000000	0.006430 
691.000000	0.006600 
690.000000	0.006730 
689.000000	0.006990 
688.000000	0.007180 
687.000000	0.007570 
686.000000	0.007740 
685.000000	0.008140 
684.000000	0.008319 
683.000000	0.008420 
682.000000	0.008770 
681.000000	0.009160 
680.000000	0.009350 
679.000000	0.009610 
678.000000	0.010010 
677.000000	0.010410 
676.000000	0.010730 
675.000000	0.011100 
674.000000	0.011630 
673.000000	0.012020 
672.000000	0.012340 
671.000000	0.012860 
670.000000	0.013340 
669.000000	0.013710 
668.000000	0.014190 
667.000000	0.014680 
666.000000	0.015080 
665.000000	0.015710 
664.000000	0.016180 
663.000000	0.016820 
662.000000	0.017370 
661.000000	0.017960 
660.000000	0.018500 
659.000000	0.019110 
658.000000	0.019740 
657.000000	0.020360 
656.000000	0.021080 
655.000000	0.021760 
654.000000	0.022510 
653.000000	0.023110 
652.000000	0.023950 
651.000000	0.024740 
650.000000	0.025450 
649.000000	0.026270 
648.000000	0.027020 
647.000000	0.027890 
646.000000	0.028780 
645.000000	0.029640 
644.000000	0.030570 
643.000000	0.031410 
642.000000	0.032230 
641.000000	0.033120 
640.000000	0.034000 
639.000000	0.034850 
638.000000	0.035650 
637.000000	0.036610 
636.000000	0.037500 
635.000000	0.038520 
634.000000	0.039310 
633.000000	0.040320 
632.000000	0.041200 
631.000000	0.042170 
630.000000	0.043070 
629.000000	0.044060 
628.000000	0.045020 
627.000000	0.046050 
626.000000	0.046950 
625.000000	0.047900 
624.000000	0.048850 
623.000000	0.049830 
622.000000	0.050800 
621.000000	0.051750 
620.000000	0.052800 
619.000000	0.053750 
618.000000	0.054680 
617.000000	0.055670 
616.000000	0.056670 
615.000000	0.057700 
614.000000	0.058630 
613.000000	0.059560 
612.000000	0.060450 
611.000000	0.061300 
610.000000	0.062220 
609.000000	0.063170 
608.000000	0.064120 
607.000000	0.064990 
606.000000	0.065800 
605.000000	0.066700 
604.000000	0.067560 
603.000000	0.068419 
602.000000	0.069270 
601.000000	0.070150 
600.000000	0.071069 
599.000000	0.071910 
598.000000	0.072850 
597.000000	0.073800 
596.000000	0.074649 
595.000000	0.075480 
594.000000	0.076470 
593.000000	0.077310 
592.000000	0.078229 
591.000000	0.079089 
590.000000	0.080180 
589.000000	0.081050 
588.000000	0.082010 
587.000000	0.082980 
586.000000	0.083990 
585.000000	0.084889 
584.000000	0.085910 
583.000000	0.086830 
582.000000	0.087929 
581.000000	0.088789 
580.000000	0.089850 
579.000000	0.090850 
578.000000	0.091829 
577.000000	0.092830 
576.000000	0.093960 
575.000000	0.094780 
574.000000	0.096000 
573.000000	0.096980 
572.000000	0.098040 
571.000000	0.099110 
570.000000	0.100150 
569.000000	0.101350 
568.000000	0.102510 
567.000000	0.103600 
566.000000	0.104700 
565.000000	0.105760 
564.000000	0.106920 
563.000000	0.108040 
562.000000	0.109210 
561.000000	0.110300 
560.000000	0.111450 
559.000000	0.112500 
558.000000	0.113700 
557.000000	0.114610 
556.000000	0.115810 
555.000000	0.116710 
554.000000	0.117570 
553.000000	0.118550 
552.000000	0.119420 
551.000000	0.120410 
550.000000	0.121200 
549.000000	0.121980 
548.000000	0.122850 
547.000000	0.123610 
546.000000	0.124170 
545.000000	0.124700 
544.000000	0.125210 
543.000000	0.125750 
542.000000	0.126310 
541.000000	0.126780 
540.000000	0.127110 
539.000000	0.127350 
538.000000	0.127610 
537.000000	0.127830 
536.000000	0.127880 
535.000000	0.128020 
534.000000	0.128040 
533.000000	0.127880 
532.000000	0.127680 
531.000000	0.127400 
530.000000	0.126970 
529.000000	0.126730 
528.000000	0.126350 
527.000000	0.125720 
526.000000	0.125030 
525.000000	0.124520 
524.000000	0.123710 
523.000000	0.122920 
522.000000	0.122010 
521.000000	0.121130 
520.000000	0.120020 
519.000000	0.118920 
518.000000	0.117940 
517.000000	0.116740 
516.000000	0.115510 
515.000000	0.114260 
514.000000	0.112790 
513.000000	0.111390 
512.000000	0.109950 
511.000000	0.108370 
510.000000	0.106890 
509.000000	0.105250 
508.000000	0.103680 
507.000000	0.102010 
506.000000	0.100290 
505.000000	0.098660 
504.000000	0.096850 
503.000000	0.094839 
502.000000	0.092869 
501.000000	0.090990 
500.000000	0.089250 
499.000000	0.086999 
498.000000	0.085260 
497.000000	0.083200 
496.000000	0.081320 
495.000000	0.079380 
494.000000	0.077260 
493.000000	0.075350 
492.000000	0.073480 
491.000000	0.071160 
490.000000	0.069340 
489.000000	0.067510 
488.000000	0.065870 
487.000000	0.063950 
486.000000	0.062180 
485.000000	0.060100 
484.000000	0.058280 
483.000000	0.056540 
482.000000	0.054740 
481.000000	0.052970 
480.000000	0.051300 
479.000000	0.049610 
478.000000	0.048220 
477.000000	0.046630 
476.000000	0.045130 
475.000000	0.043710 
474.000000	0.042170 
473.000000	0.040670 
472.000000	0.039260 
471.000000	0.037840 
470.000000	0.036800 
469.000000	0.035670 
468.000000	0.034600 
467.000000	0.033600 
466.000000	0.032440 
465.000000	0.031540 
464.000000	0.030750 
463.000000	0.029780 
462.000000	0.029000 
461.000000	0.028220 
460.000000	0.027660 
459.000000	0.027240 
458.000000	0.026920 
457.000000	0.026410 
456.000000	0.025970 
455.000000	0.025640 
454.000000	0.025330 
453.000000	0.025040 
452.000000	0.025210 
451.000000	0.025180 
450.000000	0.025250 
449.000000	0.025180 
448.000000	0.025420 
447.000000	0.025690 
446.000000	0.026140 
445.000000	0.026580 
444.000000	0.026950 
443.000000	0.027640 
442.000000	0.028200 
441.000000	0.029130 
440.000000	0.029950 
439.000000	0.030870 
438.000000	0.032060 
437.000000	0.032980 
436.000000	0.034290 
435.000000	0.035620 
434.000000	0.036710 
433.000000	0.038430 
432.000000	0.039590 
431.000000	0.041320 
430.000000	0.042980 
429.000000	0.044580 
428.000000	0.046240 
427.000000	0.048300 
426.000000	0.049960 
425.000000	0.052230 
424.000000	0.054220 
423.000000	0.056430 
422.000000	0.058120 
421.000000	0.059870 
420.000000	0.062070 
419.000000	0.064320 
418.000000	0.066629 
417.000000	0.069139 
416.000000	0.071420 
415.000000	0.073800 
414.000000	0.076100 
413.000000	0.078470 
412.000000	0.080670 
411.000000	0.083020 
410.000000	0.085370 
409.000000	0.087760 
408.000000	0.090110 
407.000000	0.092420 
406.000000	0.094630 
405.000000	0.096780 
404.000000	0.098590 
403.000000	0.100410 
402.000000	0.102260 
401.000000	0.104020 
400.000000	0.105560 

