PE UV                   SPECTRUM    ASCII       PEDS        1.60        
  -1
23MS006.SP
24/10/21
15:44:00.00
24/10/21
15:45:03.00


400.000000
1









4444

SCAN
1
1


0.0
480.0
2.00
MANUAL



UV/VIS




































#HDR
-1
-1
#GR
NM
A
0.00000011920928955078
0.0
700.000000
1.000000
301
8
0.145330
0.014910
#DATA
700.000000	0.014910 
699.000000	0.015040 
698.000000	0.015240 
697.000000	0.015330 
696.000000	0.015560 
695.000000	0.015770 
694.000000	0.015910 
693.000000	0.016160 
692.000000	0.016250 
691.000000	0.016510 
690.000000	0.016730 
689.000000	0.017040 
688.000000	0.017260 
687.000000	0.017480 
686.000000	0.017730 
685.000000	0.018070 
684.000000	0.018330 
683.000000	0.018760 
682.000000	0.019120 
681.000000	0.019390 
680.000000	0.019710 
679.000000	0.020120 
678.000000	0.020490 
677.000000	0.020850 
676.000000	0.021180 
675.000000	0.021720 
674.000000	0.022150 
673.000000	0.022580 
672.000000	0.023150 
671.000000	0.023490 
670.000000	0.024070 
669.000000	0.024460 
668.000000	0.025110 
667.000000	0.025490 
666.000000	0.026090 
665.000000	0.026590 
664.000000	0.027170 
663.000000	0.027870 
662.000000	0.028420 
661.000000	0.029070 
660.000000	0.029740 
659.000000	0.030380 
658.000000	0.031080 
657.000000	0.031790 
656.000000	0.032550 
655.000000	0.033240 
654.000000	0.034080 
653.000000	0.034840 
652.000000	0.035590 
651.000000	0.036540 
650.000000	0.037250 
649.000000	0.038060 
648.000000	0.039040 
647.000000	0.039810 
646.000000	0.040730 
645.000000	0.041700 
644.000000	0.042680 
643.000000	0.043520 
642.000000	0.044440 
641.000000	0.045270 
640.000000	0.046310 
639.000000	0.047220 
638.000000	0.048180 
637.000000	0.049170 
636.000000	0.050210 
635.000000	0.051160 
634.000000	0.052180 
633.000000	0.053160 
632.000000	0.054190 
631.000000	0.055020 
630.000000	0.056050 
629.000000	0.057130 
628.000000	0.058190 
627.000000	0.059230 
626.000000	0.060110 
625.000000	0.061270 
624.000000	0.062420 
623.000000	0.063310 
622.000000	0.064420 
621.000000	0.065390 
620.000000	0.066559 
619.000000	0.067540 
618.000000	0.068560 
617.000000	0.069639 
616.000000	0.070730 
615.000000	0.071710 
614.000000	0.072750 
613.000000	0.073690 
612.000000	0.074630 
611.000000	0.075660 
610.000000	0.076500 
609.000000	0.077530 
608.000000	0.078450 
607.000000	0.079380 
606.000000	0.080370 
605.000000	0.081379 
604.000000	0.082340 
603.000000	0.083150 
602.000000	0.084070 
601.000000	0.085040 
600.000000	0.085950 
599.000000	0.086890 
598.000000	0.087840 
597.000000	0.088750 
596.000000	0.089680 
595.000000	0.090710 
594.000000	0.091560 
593.000000	0.092490 
592.000000	0.093400 
591.000000	0.094420 
590.000000	0.095400 
589.000000	0.096379 
588.000000	0.097320 
587.000000	0.098340 
586.000000	0.099390 
585.000000	0.100430 
584.000000	0.101440 
583.000000	0.102480 
582.000000	0.103410 
581.000000	0.104440 
580.000000	0.105570 
579.000000	0.106560 
578.000000	0.107590 
577.000000	0.108690 
576.000000	0.109750 
575.000000	0.110930 
574.000000	0.111940 
573.000000	0.112970 
572.000000	0.114120 
571.000000	0.115230 
570.000000	0.116500 
569.000000	0.117790 
568.000000	0.118910 
567.000000	0.120130 
566.000000	0.121270 
565.000000	0.122470 
564.000000	0.123530 
563.000000	0.124760 
562.000000	0.125790 
561.000000	0.126980 
560.000000	0.128300 
559.000000	0.129540 
558.000000	0.130080 
557.000000	0.131150 
556.000000	0.132230 
555.000000	0.133340 
554.000000	0.134270 
553.000000	0.135310 
552.000000	0.136220 
551.000000	0.136960 
550.000000	0.138040 
549.000000	0.138990 
548.000000	0.139720 
547.000000	0.140520 
546.000000	0.141140 
545.000000	0.141830 
544.000000	0.142380 
543.000000	0.142960 
542.000000	0.143490 
541.000000	0.143900 
540.000000	0.144360 
539.000000	0.144800 
538.000000	0.144980 
537.000000	0.145220 
536.000000	0.145200 
535.000000	0.145270 
534.000000	0.145330 
533.000000	0.145070 
532.000000	0.145030 
531.000000	0.144840 
530.000000	0.144470 
529.000000	0.143830 
528.000000	0.143540 
527.000000	0.143060 
526.000000	0.142340 
525.000000	0.141610 
524.000000	0.140810 
523.000000	0.140000 
522.000000	0.139060 
521.000000	0.137990 
520.000000	0.136920 
519.000000	0.135840 
518.000000	0.134680 
517.000000	0.133220 
516.000000	0.132080 
515.000000	0.130740 
514.000000	0.129230 
513.000000	0.127700 
512.000000	0.126360 
511.000000	0.124840 
510.000000	0.123270 
509.000000	0.121450 
508.000000	0.119920 
507.000000	0.118130 
506.000000	0.116200 
505.000000	0.114350 
504.000000	0.112440 
503.000000	0.110410 
502.000000	0.108480 
501.000000	0.106330 
500.000000	0.104450 
499.000000	0.102240 
498.000000	0.100330 
497.000000	0.098220 
496.000000	0.096220 
495.000000	0.094070 
494.000000	0.092020 
493.000000	0.089969 
492.000000	0.087880 
491.000000	0.085810 
490.000000	0.083840 
489.000000	0.081830 
488.000000	0.080030 
487.000000	0.078090 
486.000000	0.076000 
485.000000	0.074090 
484.000000	0.072289 
483.000000	0.070459 
482.000000	0.068669 
481.000000	0.066910 
480.000000	0.065320 
479.000000	0.063510 
478.000000	0.061980 
477.000000	0.060410 
476.000000	0.058800 
475.000000	0.057360 
474.000000	0.055810 
473.000000	0.054270 
472.000000	0.053040 
471.000000	0.051620 
470.000000	0.050370 
469.000000	0.049010 
468.000000	0.048070 
467.000000	0.046910 
466.000000	0.045820 
465.000000	0.044750 
464.000000	0.043860 
463.000000	0.042920 
462.000000	0.042150 
461.000000	0.041450 
460.000000	0.040610 
459.000000	0.040410 
458.000000	0.039690 
457.000000	0.039240 
456.000000	0.038950 
455.000000	0.038640 
454.000000	0.038540 
453.000000	0.038250 
452.000000	0.038100 
451.000000	0.038210 
450.000000	0.038190 
449.000000	0.038200 
448.000000	0.038520 
447.000000	0.038790 
446.000000	0.039250 
445.000000	0.039720 
444.000000	0.040500 
443.000000	0.041160 
442.000000	0.041780 
441.000000	0.042390 
440.000000	0.043500 
439.000000	0.044440 
438.000000	0.045540 
437.000000	0.046770 
436.000000	0.048020 
435.000000	0.049330 
434.000000	0.051040 
433.000000	0.052670 
432.000000	0.053920 
431.000000	0.055520 
430.000000	0.057310 
429.000000	0.059390 
428.000000	0.061140 
427.000000	0.063250 
426.000000	0.065199 
425.000000	0.067250 
424.000000	0.069209 
423.000000	0.071780 
422.000000	0.073880 
421.000000	0.076380 
420.000000	0.078710 
419.000000	0.080930 
418.000000	0.083400 
417.000000	0.085930 
416.000000	0.088450 
415.000000	0.091050 
414.000000	0.093450 
413.000000	0.095930 
412.000000	0.098290 
411.000000	0.100680 
410.000000	0.102980 
409.000000	0.105470 
408.000000	0.108090 
407.000000	0.110260 
406.000000	0.112640 
405.000000	0.114550 
404.000000	0.116690 
403.000000	0.118660 
402.000000	0.120560 
401.000000	0.122290 
400.000000	0.124080 

