PE UV                   SPECTRUM    ASCII       PEDS        1.60        
  -1
23MS225.SP
24/10/18
15:53:52.00
24/10/18
15:55:07.00


400.000000
1









4444

SCAN
1
1


0.0
480.0
2.00
MANUAL



UV/VIS




































#HDR
-1
-1
#GR
NM
A
0.00000011920928955078
0.0
700.000000
1.000000
301
8
0.601200
0.026150
#DATA
700.000000	0.026150 
699.000000	0.026840 
698.000000	0.027390 
697.000000	0.028070 
696.000000	0.028860 
695.000000	0.029630 
694.000000	0.030440 
693.000000	0.031280 
692.000000	0.032160 
691.000000	0.033070 
690.000000	0.033900 
689.000000	0.034870 
688.000000	0.035930 
687.000000	0.036990 
686.000000	0.038040 
685.000000	0.039300 
684.000000	0.040510 
683.000000	0.041820 
682.000000	0.043310 
681.000000	0.044740 
680.000000	0.046140 
679.000000	0.047570 
678.000000	0.049060 
677.000000	0.050670 
676.000000	0.052400 
675.000000	0.054130 
674.000000	0.056050 
673.000000	0.058010 
672.000000	0.059700 
671.000000	0.061730 
670.000000	0.063650 
669.000000	0.065740 
668.000000	0.067770 
667.000000	0.070010 
666.000000	0.072280 
665.000000	0.074579 
664.000000	0.077030 
663.000000	0.079570 
662.000000	0.082150 
661.000000	0.084690 
660.000000	0.087270 
659.000000	0.090070 
658.000000	0.092799 
657.000000	0.095580 
656.000000	0.098750 
655.000000	0.101770 
654.000000	0.104950 
653.000000	0.108060 
652.000000	0.111440 
651.000000	0.114740 
650.000000	0.118170 
649.000000	0.121620 
648.000000	0.125150 
647.000000	0.128740 
646.000000	0.132360 
645.000000	0.136170 
644.000000	0.140060 
643.000000	0.143770 
642.000000	0.147490 
641.000000	0.151160 
640.000000	0.154910 
639.000000	0.158580 
638.000000	0.162220 
637.000000	0.166120 
636.000000	0.169970 
635.000000	0.173990 
634.000000	0.177970 
633.000000	0.181950 
632.000000	0.186070 
631.000000	0.190090 
630.000000	0.194020 
629.000000	0.198270 
628.000000	0.202560 
627.000000	0.206850 
626.000000	0.211080 
625.000000	0.215500 
624.000000	0.219770 
623.000000	0.224150 
622.000000	0.228480 
621.000000	0.232860 
620.000000	0.237240 
619.000000	0.241590 
618.000000	0.245890 
617.000000	0.250510 
616.000000	0.254980 
615.000000	0.259540 
614.000000	0.263920 
613.000000	0.268000 
612.000000	0.272100 
611.000000	0.276170 
610.000000	0.280300 
609.000000	0.284520 
608.000000	0.288550 
607.000000	0.292700 
606.000000	0.296970 
605.000000	0.301070 
604.000000	0.305010 
603.000000	0.308940 
602.000000	0.312960 
601.000000	0.317040 
600.000000	0.321180 
599.000000	0.325340 
598.000000	0.329650 
597.000000	0.333840 
596.000000	0.337950 
595.000000	0.342140 
594.000000	0.346330 
593.000000	0.350410 
592.000000	0.354670 
591.000000	0.359040 
590.000000	0.363570 
589.000000	0.368000 
588.000000	0.372580 
587.000000	0.377350 
586.000000	0.381980 
585.000000	0.386560 
584.000000	0.391080 
583.000000	0.395660 
582.000000	0.400230 
581.000000	0.404840 
580.000000	0.409550 
579.000000	0.414310 
578.000000	0.418980 
577.000000	0.424030 
576.000000	0.429070 
575.000000	0.433990 
574.000000	0.438880 
573.000000	0.443760 
572.000000	0.448820 
571.000000	0.454010 
570.000000	0.459070 
569.000000	0.464450 
568.000000	0.469860 
567.000000	0.475010 
566.000000	0.480370 
565.000000	0.485390 
564.000000	0.490810 
563.000000	0.495950 
562.000000	0.501320 
561.000000	0.506880 
560.000000	0.512310 
559.000000	0.517630 
558.000000	0.523640 
557.000000	0.528930 
556.000000	0.534130 
555.000000	0.539070 
554.000000	0.543710 
553.000000	0.548410 
552.000000	0.552990 
551.000000	0.557520 
550.000000	0.561730 
549.000000	0.565810 
548.000000	0.569920 
547.000000	0.573530 
546.000000	0.576810 
545.000000	0.580210 
544.000000	0.583149 
543.000000	0.586050 
542.000000	0.588910 
541.000000	0.591310 
540.000000	0.593710 
539.000000	0.595490 
538.000000	0.597040 
537.000000	0.598500 
536.000000	0.599689 
535.000000	0.600430 
534.000000	0.600890 
533.000000	0.601200 
532.000000	0.601010 
531.000000	0.600570 
530.000000	0.599590 
529.000000	0.598469 
528.000000	0.597040 
527.000000	0.595080 
526.000000	0.593140 
525.000000	0.590500 
524.000000	0.587589 
523.000000	0.584600 
522.000000	0.580890 
521.000000	0.577030 
520.000000	0.572980 
519.000000	0.568580 
518.000000	0.563980 
517.000000	0.559250 
516.000000	0.553920 
515.000000	0.548490 
514.000000	0.542360 
513.000000	0.536460 
512.000000	0.529980 
511.000000	0.523210 
510.000000	0.516170 
509.000000	0.509090 
508.000000	0.502030 
507.000000	0.494620 
506.000000	0.486820 
505.000000	0.478900 
504.000000	0.470720 
503.000000	0.462210 
502.000000	0.453620 
501.000000	0.444940 
500.000000	0.436130 
499.000000	0.427090 
498.000000	0.418350 
497.000000	0.409430 
496.000000	0.400450 
495.000000	0.391320 
494.000000	0.381960 
493.000000	0.373020 
492.000000	0.364040 
491.000000	0.354950 
490.000000	0.345950 
489.000000	0.337390 
488.000000	0.329220 
487.000000	0.320630 
486.000000	0.312030 
485.000000	0.303230 
484.000000	0.294490 
483.000000	0.286160 
482.000000	0.277660 
481.000000	0.269520 
480.000000	0.261880 
479.000000	0.254360 
478.000000	0.246920 
477.000000	0.239480 
476.000000	0.232360 
475.000000	0.225010 
474.000000	0.217910 
473.000000	0.210930 
472.000000	0.204260 
471.000000	0.197940 
470.000000	0.192110 
469.000000	0.186160 
468.000000	0.180690 
467.000000	0.175390 
466.000000	0.169930 
465.000000	0.165050 
464.000000	0.160320 
463.000000	0.155900 
462.000000	0.152030 
461.000000	0.148420 
460.000000	0.145090 
459.000000	0.141980 
458.000000	0.139380 
457.000000	0.136680 
456.000000	0.134370 
455.000000	0.132390 
454.000000	0.130520 
453.000000	0.129320 
452.000000	0.128590 
451.000000	0.127620 
450.000000	0.127420 
449.000000	0.127320 
448.000000	0.127460 
447.000000	0.128300 
446.000000	0.129380 
445.000000	0.130910 
444.000000	0.132490 
443.000000	0.135070 
442.000000	0.137200 
441.000000	0.140400 
440.000000	0.143800 
439.000000	0.147650 
438.000000	0.152190 
437.000000	0.156490 
436.000000	0.161560 
435.000000	0.167020 
434.000000	0.172720 
433.000000	0.179150 
432.000000	0.185000 
431.000000	0.191780 
430.000000	0.198610 
429.000000	0.206010 
428.000000	0.213850 
427.000000	0.221940 
426.000000	0.230480 
425.000000	0.239530 
424.000000	0.248420 
423.000000	0.257940 
422.000000	0.266890 
421.000000	0.276340 
420.000000	0.286080 
419.000000	0.296120 
418.000000	0.306340 
417.000000	0.317220 
416.000000	0.327780 
415.000000	0.338610 
414.000000	0.349350 
413.000000	0.359870 
412.000000	0.370310 
411.000000	0.381060 
410.000000	0.391700 
409.000000	0.402450 
408.000000	0.413550 
407.000000	0.423880 
406.000000	0.433810 
405.000000	0.443470 
404.000000	0.452360 
403.000000	0.461120 
402.000000	0.469350 
401.000000	0.477670 
400.000000	0.485450 

