PE UV                   SPECTRUM    ASCII       PEDS        1.60        
  -1
23MS025.SP
24/10/21
15:23:48.00
24/10/21
15:25:53.00


400.000000
1









4444

SCAN
1
1


0.0
480.0
2.00
MANUAL



UV/VIS




































#HDR
-1
-1
#GR
NM
A
0.00000011920928955078
0.0
700.000000
1.000000
301
8
0.306250
0.021590
#DATA
700.000000	0.021590 
699.000000	0.021880 
698.000000	0.022300 
697.000000	0.022580 
696.000000	0.023020 
695.000000	0.023440 
694.000000	0.023750 
693.000000	0.024220 
692.000000	0.024580 
691.000000	0.025030 
690.000000	0.025550 
689.000000	0.026110 
688.000000	0.026630 
687.000000	0.027180 
686.000000	0.027790 
685.000000	0.028370 
684.000000	0.029060 
683.000000	0.029690 
682.000000	0.030240 
681.000000	0.031070 
680.000000	0.031840 
679.000000	0.032610 
678.000000	0.033430 
677.000000	0.034480 
676.000000	0.035220 
675.000000	0.036360 
674.000000	0.037060 
673.000000	0.038170 
672.000000	0.039210 
671.000000	0.040140 
670.000000	0.041300 
669.000000	0.042350 
668.000000	0.043600 
667.000000	0.044730 
666.000000	0.045980 
665.000000	0.047250 
664.000000	0.048340 
663.000000	0.049690 
662.000000	0.050910 
661.000000	0.052240 
660.000000	0.053770 
659.000000	0.055280 
658.000000	0.056830 
657.000000	0.058370 
656.000000	0.059840 
655.000000	0.061390 
654.000000	0.063060 
653.000000	0.064699 
652.000000	0.066320 
651.000000	0.068190 
650.000000	0.070060 
649.000000	0.071990 
648.000000	0.073840 
647.000000	0.075720 
646.000000	0.077549 
645.000000	0.079600 
644.000000	0.081620 
643.000000	0.083660 
642.000000	0.085760 
641.000000	0.087830 
640.000000	0.089870 
639.000000	0.092030 
638.000000	0.093950 
637.000000	0.096129 
636.000000	0.098220 
635.000000	0.100280 
634.000000	0.102440 
633.000000	0.104690 
632.000000	0.107010 
631.000000	0.109180 
630.000000	0.111420 
629.000000	0.113550 
628.000000	0.115910 
627.000000	0.118240 
626.000000	0.120200 
625.000000	0.122600 
624.000000	0.124980 
623.000000	0.127190 
622.000000	0.129590 
621.000000	0.131830 
620.000000	0.134320 
619.000000	0.136480 
618.000000	0.138690 
617.000000	0.140990 
616.000000	0.143240 
615.000000	0.145500 
614.000000	0.147770 
613.000000	0.149990 
612.000000	0.152080 
611.000000	0.154130 
610.000000	0.156160 
609.000000	0.158350 
608.000000	0.160430 
607.000000	0.162360 
606.000000	0.164460 
605.000000	0.166580 
604.000000	0.168730 
603.000000	0.170600 
602.000000	0.172840 
601.000000	0.175070 
600.000000	0.177190 
599.000000	0.179150 
598.000000	0.181170 
597.000000	0.183190 
596.000000	0.185200 
595.000000	0.187310 
594.000000	0.189410 
593.000000	0.191640 
592.000000	0.193740 
591.000000	0.195980 
590.000000	0.198150 
589.000000	0.200190 
588.000000	0.202350 
587.000000	0.204500 
586.000000	0.206830 
585.000000	0.209160 
584.000000	0.211450 
583.000000	0.213630 
582.000000	0.215780 
581.000000	0.218110 
580.000000	0.220390 
579.000000	0.222620 
578.000000	0.224850 
577.000000	0.227220 
576.000000	0.229540 
575.000000	0.232030 
574.000000	0.234440 
573.000000	0.236970 
572.000000	0.239430 
571.000000	0.241950 
570.000000	0.244360 
569.000000	0.246730 
568.000000	0.249150 
567.000000	0.251760 
566.000000	0.254280 
565.000000	0.256890 
564.000000	0.259400 
563.000000	0.261920 
562.000000	0.264570 
561.000000	0.267100 
560.000000	0.269430 
559.000000	0.271950 
558.000000	0.274010 
557.000000	0.276580 
556.000000	0.278940 
555.000000	0.281200 
554.000000	0.283340 
553.000000	0.285560 
552.000000	0.287560 
551.000000	0.289350 
550.000000	0.291400 
549.000000	0.293090 
548.000000	0.294870 
547.000000	0.296430 
546.000000	0.297820 
545.000000	0.299380 
544.000000	0.300700 
543.000000	0.301840 
542.000000	0.302860 
541.000000	0.303790 
540.000000	0.304520 
539.000000	0.305280 
538.000000	0.305710 
537.000000	0.306080 
536.000000	0.306250 
535.000000	0.306170 
534.000000	0.306160 
533.000000	0.305810 
532.000000	0.305430 
531.000000	0.304860 
530.000000	0.303980 
529.000000	0.303190 
528.000000	0.302030 
527.000000	0.300730 
526.000000	0.299260 
525.000000	0.297600 
524.000000	0.295720 
523.000000	0.293820 
522.000000	0.291810 
521.000000	0.289430 
520.000000	0.287140 
519.000000	0.284640 
518.000000	0.282100 
517.000000	0.279220 
516.000000	0.276300 
515.000000	0.273170 
514.000000	0.269880 
513.000000	0.266510 
512.000000	0.263320 
511.000000	0.259760 
510.000000	0.256130 
509.000000	0.252260 
508.000000	0.248370 
507.000000	0.244380 
506.000000	0.240160 
505.000000	0.235970 
504.000000	0.231710 
503.000000	0.227410 
502.000000	0.223150 
501.000000	0.218660 
500.000000	0.214160 
499.000000	0.209520 
498.000000	0.205080 
497.000000	0.200310 
496.000000	0.195730 
495.000000	0.191050 
494.000000	0.186570 
493.000000	0.182150 
492.000000	0.177530 
491.000000	0.173260 
490.000000	0.168810 
489.000000	0.164350 
488.000000	0.160260 
487.000000	0.155910 
486.000000	0.151510 
485.000000	0.147270 
484.000000	0.143180 
483.000000	0.139220 
482.000000	0.135330 
481.000000	0.131460 
480.000000	0.127690 
479.000000	0.123970 
478.000000	0.120330 
477.000000	0.116680 
476.000000	0.113170 
475.000000	0.110080 
474.000000	0.106640 
473.000000	0.103650 
472.000000	0.100770 
471.000000	0.097629 
470.000000	0.095010 
469.000000	0.092290 
468.000000	0.089750 
467.000000	0.087249 
466.000000	0.084889 
465.000000	0.082770 
464.000000	0.080980 
463.000000	0.079010 
462.000000	0.077390 
461.000000	0.076070 
460.000000	0.074640 
459.000000	0.073460 
458.000000	0.072260 
457.000000	0.071499 
456.000000	0.070450 
455.000000	0.069959 
454.000000	0.069580 
453.000000	0.069110 
452.000000	0.068860 
451.000000	0.069240 
450.000000	0.069170 
449.000000	0.069600 
448.000000	0.070020 
447.000000	0.070860 
446.000000	0.071600 
445.000000	0.072620 
444.000000	0.074079 
443.000000	0.075579 
442.000000	0.077070 
441.000000	0.078970 
440.000000	0.080990 
439.000000	0.083419 
438.000000	0.085970 
437.000000	0.088609 
436.000000	0.091439 
435.000000	0.094659 
434.000000	0.097960 
433.000000	0.101220 
432.000000	0.104740 
431.000000	0.108360 
430.000000	0.112500 
429.000000	0.116530 
428.000000	0.120970 
427.000000	0.125480 
426.000000	0.129640 
425.000000	0.133970 
424.000000	0.138680 
423.000000	0.143840 
422.000000	0.149020 
421.000000	0.154380 
420.000000	0.159640 
419.000000	0.164860 
418.000000	0.170090 
417.000000	0.175600 
416.000000	0.180780 
415.000000	0.186410 
414.000000	0.191860 
413.000000	0.197350 
412.000000	0.203070 
411.000000	0.208520 
410.000000	0.213860 
409.000000	0.219320 
408.000000	0.224560 
407.000000	0.229530 
406.000000	0.234350 
405.000000	0.238930 
404.000000	0.243530 
403.000000	0.247820 
402.000000	0.251920 
401.000000	0.255970 
400.000000	0.260020 

