PE UV                   SPECTRUM    ASCII       PEDS        1.60        
  -1
23MS240.SP
24/10/18
15:46:51.00
24/10/18
15:48:02.00


400.000000
1









4444

SCAN
1
1


0.0
480.0
2.00
MANUAL



UV/VIS




































#HDR
-1
-1
#GR
NM
A
0.00000011920928955078
0.0
700.000000
1.000000
301
8
0.445840
0.018930
#DATA
700.000000	0.018930 
699.000000	0.019450 
698.000000	0.019810 
697.000000	0.020400 
696.000000	0.020940 
695.000000	0.021540 
694.000000	0.022220 
693.000000	0.022830 
692.000000	0.023570 
691.000000	0.024270 
690.000000	0.024850 
689.000000	0.025700 
688.000000	0.026540 
687.000000	0.027380 
686.000000	0.028160 
685.000000	0.029190 
684.000000	0.030100 
683.000000	0.031390 
682.000000	0.032370 
681.000000	0.033580 
680.000000	0.034530 
679.000000	0.035760 
678.000000	0.037070 
677.000000	0.038360 
676.000000	0.039620 
675.000000	0.041000 
674.000000	0.042570 
673.000000	0.044020 
672.000000	0.045360 
671.000000	0.046980 
670.000000	0.048490 
669.000000	0.050140 
668.000000	0.051770 
667.000000	0.053590 
666.000000	0.055310 
665.000000	0.057160 
664.000000	0.058930 
663.000000	0.061000 
662.000000	0.062970 
661.000000	0.065010 
660.000000	0.067110 
659.000000	0.069349 
658.000000	0.071620 
657.000000	0.073890 
656.000000	0.076340 
655.000000	0.078839 
654.000000	0.081350 
653.000000	0.083739 
652.000000	0.086370 
651.000000	0.089149 
650.000000	0.091869 
649.000000	0.094750 
648.000000	0.097670 
647.000000	0.100540 
646.000000	0.103540 
645.000000	0.106520 
644.000000	0.109560 
643.000000	0.112740 
642.000000	0.115770 
641.000000	0.118920 
640.000000	0.122040 
639.000000	0.125020 
638.000000	0.128090 
637.000000	0.131360 
636.000000	0.134510 
635.000000	0.137710 
634.000000	0.140900 
633.000000	0.144140 
632.000000	0.147400 
631.000000	0.150840 
630.000000	0.154050 
629.000000	0.157510 
628.000000	0.160870 
627.000000	0.164310 
626.000000	0.167670 
625.000000	0.170970 
624.000000	0.174340 
623.000000	0.177770 
622.000000	0.181100 
621.000000	0.184570 
620.000000	0.188170 
619.000000	0.191510 
618.000000	0.194930 
617.000000	0.198540 
616.000000	0.201970 
615.000000	0.205290 
614.000000	0.208740 
613.000000	0.211870 
612.000000	0.215090 
611.000000	0.218180 
610.000000	0.221370 
609.000000	0.224520 
608.000000	0.227630 
607.000000	0.230710 
606.000000	0.233830 
605.000000	0.236810 
604.000000	0.239810 
603.000000	0.242800 
602.000000	0.245840 
601.000000	0.248980 
600.000000	0.252100 
599.000000	0.255120 
598.000000	0.258210 
597.000000	0.261330 
596.000000	0.264310 
595.000000	0.267400 
594.000000	0.270510 
593.000000	0.273610 
592.000000	0.276750 
591.000000	0.279940 
590.000000	0.283330 
589.000000	0.286570 
588.000000	0.289820 
587.000000	0.293150 
586.000000	0.296490 
585.000000	0.299810 
584.000000	0.303110 
583.000000	0.306490 
582.000000	0.310000 
581.000000	0.313150 
580.000000	0.316590 
579.000000	0.319930 
578.000000	0.323420 
577.000000	0.326950 
576.000000	0.330530 
575.000000	0.333910 
574.000000	0.337590 
573.000000	0.341090 
572.000000	0.344780 
571.000000	0.348490 
570.000000	0.352160 
569.000000	0.355920 
568.000000	0.359690 
567.000000	0.363240 
566.000000	0.366970 
565.000000	0.370700 
564.000000	0.374530 
563.000000	0.378280 
562.000000	0.382370 
561.000000	0.386230 
560.000000	0.389970 
559.000000	0.393690 
558.000000	0.397350 
557.000000	0.400890 
556.000000	0.404610 
555.000000	0.407960 
554.000000	0.411120 
553.000000	0.414380 
552.000000	0.417590 
551.000000	0.420520 
550.000000	0.423330 
549.000000	0.425940 
548.000000	0.428720 
547.000000	0.430980 
546.000000	0.433060 
545.000000	0.435260 
544.000000	0.437070 
543.000000	0.438970 
542.000000	0.440550 
541.000000	0.441900 
540.000000	0.443170 
539.000000	0.443990 
538.000000	0.444730 
537.000000	0.445450 
536.000000	0.445700 
535.000000	0.445840 
534.000000	0.445680 
533.000000	0.445420 
532.000000	0.444790 
531.000000	0.443680 
530.000000	0.442360 
529.000000	0.441170 
528.000000	0.439560 
527.000000	0.437580 
526.000000	0.435430 
525.000000	0.432960 
524.000000	0.430140 
523.000000	0.427380 
522.000000	0.424100 
521.000000	0.420790 
520.000000	0.416960 
519.000000	0.413150 
518.000000	0.409450 
517.000000	0.405120 
516.000000	0.400710 
515.000000	0.396050 
514.000000	0.390840 
513.000000	0.385790 
512.000000	0.380680 
511.000000	0.375190 
510.000000	0.369820 
509.000000	0.364080 
508.000000	0.358310 
507.000000	0.352070 
506.000000	0.345860 
505.000000	0.339630 
504.000000	0.332970 
503.000000	0.326330 
502.000000	0.319580 
501.000000	0.312870 
500.000000	0.306030 
499.000000	0.299210 
498.000000	0.292440 
497.000000	0.285450 
496.000000	0.278570 
495.000000	0.271520 
494.000000	0.264420 
493.000000	0.257460 
492.000000	0.250830 
491.000000	0.244040 
490.000000	0.237280 
489.000000	0.230780 
488.000000	0.224540 
487.000000	0.218180 
486.000000	0.211750 
485.000000	0.204840 
484.000000	0.198550 
483.000000	0.192500 
482.000000	0.186420 
481.000000	0.180590 
480.000000	0.175020 
479.000000	0.169330 
478.000000	0.164100 
477.000000	0.158570 
476.000000	0.153300 
475.000000	0.148160 
474.000000	0.143180 
473.000000	0.138180 
472.000000	0.133730 
471.000000	0.129150 
470.000000	0.125070 
469.000000	0.121050 
468.000000	0.117310 
467.000000	0.113840 
466.000000	0.109980 
465.000000	0.106700 
464.000000	0.103680 
463.000000	0.100840 
462.000000	0.098260 
461.000000	0.096150 
460.000000	0.093990 
459.000000	0.092160 
458.000000	0.090440 
457.000000	0.088960 
456.000000	0.087609 
455.000000	0.086660 
454.000000	0.085780 
453.000000	0.085490 
452.000000	0.085389 
451.000000	0.085260 
450.000000	0.085360 
449.000000	0.085780 
448.000000	0.086580 
447.000000	0.087530 
446.000000	0.088920 
445.000000	0.090700 
444.000000	0.092310 
443.000000	0.094570 
442.000000	0.096970 
441.000000	0.099890 
440.000000	0.103030 
439.000000	0.106340 
438.000000	0.110450 
437.000000	0.114260 
436.000000	0.118600 
435.000000	0.123400 
434.000000	0.127960 
433.000000	0.133340 
432.000000	0.138100 
431.000000	0.143650 
430.000000	0.149500 
429.000000	0.155460 
428.000000	0.161930 
427.000000	0.168580 
426.000000	0.175480 
425.000000	0.182310 
424.000000	0.189490 
423.000000	0.196920 
422.000000	0.204050 
421.000000	0.211060 
420.000000	0.219130 
419.000000	0.227050 
418.000000	0.235180 
417.000000	0.243590 
416.000000	0.251630 
415.000000	0.259820 
414.000000	0.268040 
413.000000	0.276000 
412.000000	0.284050 
411.000000	0.292430 
410.000000	0.300370 
409.000000	0.308810 
408.000000	0.316770 
407.000000	0.324720 
406.000000	0.332060 
405.000000	0.339100 
404.000000	0.345700 
403.000000	0.352000 
402.000000	0.358140 
401.000000	0.364250 
400.000000	0.369730 

