PE UV                   SPECTRUM    ASCII       PEDS        1.60        
  -1
23MS002.SP
24/10/21
15:41:55.00
24/10/21
15:43:07.00


400.000000
1









4444

SCAN
1
1


0.0
480.0
2.00
MANUAL



UV/VIS




































#HDR
-1
-1
#GR
NM
A
0.00000011920928955078
0.0
700.000000
1.000000
301
8
0.295540
0.019540
#DATA
700.000000	0.019540 
699.000000	0.019890 
698.000000	0.020270 
697.000000	0.020610 
696.000000	0.020960 
695.000000	0.021280 
694.000000	0.021630 
693.000000	0.022030 
692.000000	0.022470 
691.000000	0.022860 
690.000000	0.023370 
689.000000	0.024030 
688.000000	0.024410 
687.000000	0.024980 
686.000000	0.025560 
685.000000	0.026080 
684.000000	0.026660 
683.000000	0.027500 
682.000000	0.028100 
681.000000	0.028860 
680.000000	0.029700 
679.000000	0.030490 
678.000000	0.031150 
677.000000	0.032120 
676.000000	0.032860 
675.000000	0.033850 
674.000000	0.034690 
673.000000	0.035650 
672.000000	0.036640 
671.000000	0.037580 
670.000000	0.038660 
669.000000	0.039700 
668.000000	0.040890 
667.000000	0.041960 
666.000000	0.043050 
665.000000	0.044210 
664.000000	0.045590 
663.000000	0.046850 
662.000000	0.048120 
661.000000	0.049490 
660.000000	0.050980 
659.000000	0.052480 
658.000000	0.053980 
657.000000	0.055370 
656.000000	0.056940 
655.000000	0.058400 
654.000000	0.060140 
653.000000	0.061960 
652.000000	0.063650 
651.000000	0.065490 
650.000000	0.067290 
649.000000	0.069139 
648.000000	0.070990 
647.000000	0.072730 
646.000000	0.074670 
645.000000	0.076680 
644.000000	0.078729 
643.000000	0.080740 
642.000000	0.082830 
641.000000	0.084800 
640.000000	0.086830 
639.000000	0.088830 
638.000000	0.090750 
637.000000	0.092880 
636.000000	0.094900 
635.000000	0.096970 
634.000000	0.099260 
633.000000	0.101400 
632.000000	0.103630 
631.000000	0.105680 
630.000000	0.107880 
629.000000	0.110010 
628.000000	0.112130 
627.000000	0.114340 
626.000000	0.116480 
625.000000	0.118790 
624.000000	0.121080 
623.000000	0.123320 
622.000000	0.125630 
621.000000	0.127810 
620.000000	0.129930 
619.000000	0.132060 
618.000000	0.134330 
617.000000	0.136450 
616.000000	0.138650 
615.000000	0.140940 
614.000000	0.143210 
613.000000	0.145260 
612.000000	0.147360 
611.000000	0.149300 
610.000000	0.151300 
609.000000	0.153240 
608.000000	0.155210 
607.000000	0.157250 
606.000000	0.159270 
605.000000	0.161320 
604.000000	0.163360 
603.000000	0.165230 
602.000000	0.167330 
601.000000	0.169130 
600.000000	0.171240 
599.000000	0.173210 
598.000000	0.175180 
597.000000	0.177180 
596.000000	0.179120 
595.000000	0.181280 
594.000000	0.183230 
593.000000	0.185270 
592.000000	0.187290 
591.000000	0.189340 
590.000000	0.191320 
589.000000	0.193290 
588.000000	0.195450 
587.000000	0.197580 
586.000000	0.199840 
585.000000	0.202060 
584.000000	0.204230 
583.000000	0.206390 
582.000000	0.208370 
581.000000	0.210570 
580.000000	0.212620 
579.000000	0.214870 
578.000000	0.217000 
577.000000	0.219330 
576.000000	0.221660 
575.000000	0.224060 
574.000000	0.226370 
573.000000	0.228690 
572.000000	0.230990 
571.000000	0.233290 
570.000000	0.235590 
569.000000	0.237950 
568.000000	0.240530 
567.000000	0.243020 
566.000000	0.245430 
565.000000	0.247860 
564.000000	0.250280 
563.000000	0.252700 
562.000000	0.254970 
561.000000	0.257520 
560.000000	0.259900 
559.000000	0.262320 
558.000000	0.264310 
557.000000	0.266640 
556.000000	0.268920 
555.000000	0.271190 
554.000000	0.273190 
553.000000	0.275380 
552.000000	0.277320 
551.000000	0.279010 
550.000000	0.281000 
549.000000	0.282730 
548.000000	0.284510 
547.000000	0.285990 
546.000000	0.287360 
545.000000	0.288710 
544.000000	0.290050 
543.000000	0.291080 
542.000000	0.292040 
541.000000	0.292980 
540.000000	0.293690 
539.000000	0.294420 
538.000000	0.294870 
537.000000	0.295260 
536.000000	0.295530 
535.000000	0.295540 
534.000000	0.295500 
533.000000	0.295130 
532.000000	0.294760 
531.000000	0.294210 
530.000000	0.293460 
529.000000	0.292410 
528.000000	0.291510 
527.000000	0.290270 
526.000000	0.288660 
525.000000	0.287170 
524.000000	0.285440 
523.000000	0.283580 
522.000000	0.281560 
521.000000	0.279340 
520.000000	0.277050 
519.000000	0.274650 
518.000000	0.272000 
517.000000	0.269250 
516.000000	0.266530 
515.000000	0.263480 
514.000000	0.260400 
513.000000	0.257270 
512.000000	0.254080 
511.000000	0.250470 
510.000000	0.246870 
509.000000	0.243020 
508.000000	0.239400 
507.000000	0.235480 
506.000000	0.231400 
505.000000	0.227510 
504.000000	0.223580 
503.000000	0.219300 
502.000000	0.215040 
501.000000	0.210740 
500.000000	0.206220 
499.000000	0.201450 
498.000000	0.196990 
497.000000	0.192580 
496.000000	0.188290 
495.000000	0.183870 
494.000000	0.179510 
493.000000	0.175240 
492.000000	0.170590 
491.000000	0.166330 
490.000000	0.161910 
489.000000	0.157550 
488.000000	0.153600 
487.000000	0.149300 
486.000000	0.145260 
485.000000	0.141290 
484.000000	0.137320 
483.000000	0.133370 
482.000000	0.129490 
481.000000	0.125640 
480.000000	0.121940 
479.000000	0.118330 
478.000000	0.114850 
477.000000	0.111520 
476.000000	0.108020 
475.000000	0.105010 
474.000000	0.101760 
473.000000	0.098680 
472.000000	0.095680 
471.000000	0.092760 
470.000000	0.090000 
469.000000	0.087310 
468.000000	0.084920 
467.000000	0.082770 
466.000000	0.080330 
465.000000	0.078420 
464.000000	0.076380 
463.000000	0.074520 
462.000000	0.072880 
461.000000	0.071550 
460.000000	0.070000 
459.000000	0.068920 
458.000000	0.067800 
457.000000	0.066900 
456.000000	0.066070 
455.000000	0.065660 
454.000000	0.065199 
453.000000	0.064650 
452.000000	0.064510 
451.000000	0.064670 
450.000000	0.064780 
449.000000	0.065000 
448.000000	0.065510 
447.000000	0.066360 
446.000000	0.066940 
445.000000	0.068099 
444.000000	0.069480 
443.000000	0.070960 
442.000000	0.072580 
441.000000	0.074219 
440.000000	0.076240 
439.000000	0.078770 
438.000000	0.080820 
437.000000	0.083510 
436.000000	0.086170 
435.000000	0.089399 
434.000000	0.092480 
433.000000	0.095760 
432.000000	0.099060 
431.000000	0.102860 
430.000000	0.106650 
429.000000	0.110420 
428.000000	0.114430 
427.000000	0.118660 
426.000000	0.122820 
425.000000	0.127610 
424.000000	0.132150 
423.000000	0.137170 
422.000000	0.142250 
421.000000	0.148420 
420.000000	0.153360 
419.000000	0.158120 
418.000000	0.163240 
417.000000	0.168650 
416.000000	0.173720 
415.000000	0.179250 
414.000000	0.184780 
413.000000	0.190080 
412.000000	0.195570 
411.000000	0.200710 
410.000000	0.205840 
409.000000	0.210930 
408.000000	0.216130 
407.000000	0.221100 
406.000000	0.225900 
405.000000	0.230240 
404.000000	0.234850 
403.000000	0.238990 
402.000000	0.243020 
401.000000	0.246780 
400.000000	0.250290 

