PE UV                   SPECTRUM    ASCII       PEDS        1.60        
  -1
23MS070.SP
24/10/22
14:49:27.00
24/10/22
14:50:32.00


400.000000
1









4444

SCAN
1
1


0.0
480.0
2.00
MANUAL



UV/VIS




































#HDR
-1
-1
#GR
NM
A
0.00000011920928955078
0.0
700.000000
1.000000
301
8
0.574110
0.020130
#DATA
700.000000	0.020130 
699.000000	0.020780 
698.000000	0.021470 
697.000000	0.022090 
696.000000	0.022980 
695.000000	0.023680 
694.000000	0.024460 
693.000000	0.025290 
692.000000	0.026120 
691.000000	0.026890 
690.000000	0.027830 
689.000000	0.028930 
688.000000	0.030050 
687.000000	0.031100 
686.000000	0.032230 
685.000000	0.033380 
684.000000	0.034530 
683.000000	0.036340 
682.000000	0.037690 
681.000000	0.039080 
680.000000	0.040450 
679.000000	0.041900 
678.000000	0.043660 
677.000000	0.045360 
676.000000	0.046970 
675.000000	0.048540 
674.000000	0.050420 
673.000000	0.052230 
672.000000	0.054270 
671.000000	0.056200 
670.000000	0.058350 
669.000000	0.060340 
668.000000	0.062570 
667.000000	0.064810 
666.000000	0.067110 
665.000000	0.069470 
664.000000	0.071840 
663.000000	0.074370 
662.000000	0.076890 
661.000000	0.079600 
660.000000	0.082500 
659.000000	0.085400 
658.000000	0.088270 
657.000000	0.091270 
656.000000	0.094360 
655.000000	0.097360 
654.000000	0.100610 
653.000000	0.103840 
652.000000	0.107320 
651.000000	0.110870 
650.000000	0.114610 
649.000000	0.118290 
648.000000	0.121940 
647.000000	0.125810 
646.000000	0.129560 
645.000000	0.133360 
644.000000	0.137370 
643.000000	0.141370 
642.000000	0.145510 
641.000000	0.149440 
640.000000	0.153450 
639.000000	0.157440 
638.000000	0.161550 
637.000000	0.165590 
636.000000	0.169650 
635.000000	0.173710 
634.000000	0.177890 
633.000000	0.182260 
632.000000	0.186830 
631.000000	0.191100 
630.000000	0.195500 
629.000000	0.199900 
628.000000	0.204190 
627.000000	0.208540 
626.000000	0.212720 
625.000000	0.217200 
624.000000	0.221540 
623.000000	0.226060 
622.000000	0.230540 
621.000000	0.235040 
620.000000	0.239530 
619.000000	0.243960 
618.000000	0.248310 
617.000000	0.252550 
616.000000	0.256890 
615.000000	0.261300 
614.000000	0.265780 
613.000000	0.270010 
612.000000	0.274060 
611.000000	0.278060 
610.000000	0.282220 
609.000000	0.286350 
608.000000	0.290230 
607.000000	0.294100 
606.000000	0.298050 
605.000000	0.302000 
604.000000	0.305970 
603.000000	0.309990 
602.000000	0.314130 
601.000000	0.317910 
600.000000	0.321970 
599.000000	0.325750 
598.000000	0.329790 
597.000000	0.333460 
596.000000	0.337400 
595.000000	0.341510 
594.000000	0.345400 
593.000000	0.349590 
592.000000	0.353750 
591.000000	0.357830 
590.000000	0.361980 
589.000000	0.366050 
588.000000	0.370180 
587.000000	0.374400 
586.000000	0.378760 
585.000000	0.383120 
584.000000	0.387470 
583.000000	0.391810 
582.000000	0.396150 
581.000000	0.400430 
580.000000	0.404740 
579.000000	0.408980 
578.000000	0.413480 
577.000000	0.418050 
576.000000	0.422550 
575.000000	0.427370 
574.000000	0.431970 
573.000000	0.436970 
572.000000	0.441720 
571.000000	0.446600 
570.000000	0.451140 
569.000000	0.455890 
568.000000	0.460770 
567.000000	0.465660 
566.000000	0.470640 
565.000000	0.475600 
564.000000	0.480580 
563.000000	0.485640 
562.000000	0.490400 
561.000000	0.495420 
560.000000	0.500110 
559.000000	0.504900 
558.000000	0.509910 
557.000000	0.514680 
556.000000	0.519570 
555.000000	0.524010 
554.000000	0.528140 
553.000000	0.532540 
552.000000	0.536450 
551.000000	0.540330 
550.000000	0.544000 
549.000000	0.547540 
548.000000	0.550840 
547.000000	0.554150 
546.000000	0.556940 
545.000000	0.559780 
544.000000	0.562490 
543.000000	0.564820 
542.000000	0.566910 
541.000000	0.568760 
540.000000	0.570270 
539.000000	0.571720 
538.000000	0.572550 
537.000000	0.573470 
536.000000	0.573800 
535.000000	0.574110 
534.000000	0.574020 
533.000000	0.573410 
532.000000	0.572680 
531.000000	0.571590 
530.000000	0.570070 
529.000000	0.568350 
528.000000	0.566290 
527.000000	0.563720 
526.000000	0.560910 
525.000000	0.557710 
524.000000	0.554190 
523.000000	0.550590 
522.000000	0.546330 
521.000000	0.542220 
520.000000	0.537660 
519.000000	0.532640 
518.000000	0.527620 
517.000000	0.521970 
516.000000	0.515980 
515.000000	0.509970 
514.000000	0.503650 
513.000000	0.497240 
512.000000	0.490590 
511.000000	0.483900 
510.000000	0.476650 
509.000000	0.468960 
508.000000	0.461360 
507.000000	0.453300 
506.000000	0.445250 
505.000000	0.437110 
504.000000	0.428800 
503.000000	0.420470 
502.000000	0.412130 
501.000000	0.403410 
500.000000	0.394360 
499.000000	0.385440 
498.000000	0.376340 
497.000000	0.367150 
496.000000	0.358240 
495.000000	0.348950 
494.000000	0.340150 
493.000000	0.331440 
492.000000	0.322760 
491.000000	0.313970 
490.000000	0.305100 
489.000000	0.296790 
488.000000	0.288130 
487.000000	0.279750 
486.000000	0.271350 
485.000000	0.263130 
484.000000	0.255050 
483.000000	0.247340 
482.000000	0.239420 
481.000000	0.231950 
480.000000	0.224320 
479.000000	0.216950 
478.000000	0.209670 
477.000000	0.202660 
476.000000	0.195960 
475.000000	0.189260 
474.000000	0.182890 
473.000000	0.176780 
472.000000	0.170770 
471.000000	0.165010 
470.000000	0.159210 
469.000000	0.153860 
468.000000	0.148990 
467.000000	0.143980 
466.000000	0.139290 
465.000000	0.135200 
464.000000	0.131420 
463.000000	0.127590 
462.000000	0.124410 
461.000000	0.121030 
460.000000	0.118540 
459.000000	0.115780 
458.000000	0.113340 
457.000000	0.111590 
456.000000	0.109840 
455.000000	0.108610 
454.000000	0.107530 
453.000000	0.106740 
452.000000	0.106240 
451.000000	0.106070 
450.000000	0.106270 
449.000000	0.107010 
448.000000	0.107700 
447.000000	0.108880 
446.000000	0.110640 
445.000000	0.112370 
444.000000	0.114770 
443.000000	0.117520 
442.000000	0.120780 
441.000000	0.124510 
440.000000	0.128520 
439.000000	0.132980 
438.000000	0.137820 
437.000000	0.142860 
436.000000	0.148130 
435.000000	0.153930 
434.000000	0.160090 
433.000000	0.166570 
432.000000	0.173540 
431.000000	0.180520 
430.000000	0.188200 
429.000000	0.196190 
428.000000	0.204580 
427.000000	0.212950 
426.000000	0.221450 
425.000000	0.230180 
424.000000	0.239400 
423.000000	0.249260 
422.000000	0.258930 
421.000000	0.268410 
420.000000	0.278680 
419.000000	0.288940 
418.000000	0.299250 
417.000000	0.309760 
416.000000	0.320100 
415.000000	0.330720 
414.000000	0.341550 
413.000000	0.352140 
412.000000	0.363070 
411.000000	0.373860 
410.000000	0.384610 
409.000000	0.395270 
408.000000	0.405400 
407.000000	0.415220 
406.000000	0.424480 
405.000000	0.433640 
404.000000	0.442380 
403.000000	0.450910 
402.000000	0.458910 
401.000000	0.467010 
400.000000	0.474190 

