PE UV                   SPECTRUM    ASCII       PEDS        1.60        
  -1
23MS176.SP
24/10/17
15:31:16.00
24/10/17
15:32:21.00


400.000000
1









4444

SCAN
1
1


0.0
480.0
2.00
MANUAL



UV/VIS




































#HDR
-1
-1
#GR
NM
A
0.00000011920928955078
0.0
700.000000
1.000000
301
8
0.447310
0.020080
#DATA
700.000000	0.020080 
699.000000	0.020550 
698.000000	0.021140 
697.000000	0.021690 
696.000000	0.022250 
695.000000	0.022850 
694.000000	0.023450 
693.000000	0.024120 
692.000000	0.024750 
691.000000	0.025630 
690.000000	0.026180 
689.000000	0.026980 
688.000000	0.027860 
687.000000	0.028740 
686.000000	0.029640 
685.000000	0.030580 
684.000000	0.031490 
683.000000	0.032780 
682.000000	0.033730 
681.000000	0.034830 
680.000000	0.036030 
679.000000	0.037270 
678.000000	0.038550 
677.000000	0.040050 
676.000000	0.041360 
675.000000	0.042740 
674.000000	0.044190 
673.000000	0.045740 
672.000000	0.047160 
671.000000	0.048730 
670.000000	0.050280 
669.000000	0.051880 
668.000000	0.053550 
667.000000	0.055280 
666.000000	0.057170 
665.000000	0.059040 
664.000000	0.060930 
663.000000	0.062900 
662.000000	0.064860 
661.000000	0.066930 
660.000000	0.069010 
659.000000	0.071179 
658.000000	0.073560 
657.000000	0.075810 
656.000000	0.078280 
655.000000	0.080699 
654.000000	0.083140 
653.000000	0.085670 
652.000000	0.088330 
651.000000	0.090939 
650.000000	0.093690 
649.000000	0.096660 
648.000000	0.099410 
647.000000	0.102380 
646.000000	0.105260 
645.000000	0.108320 
644.000000	0.111390 
643.000000	0.114430 
642.000000	0.117570 
641.000000	0.120800 
640.000000	0.123720 
639.000000	0.126820 
638.000000	0.129910 
637.000000	0.133100 
636.000000	0.136130 
635.000000	0.139370 
634.000000	0.142570 
633.000000	0.145840 
632.000000	0.149110 
631.000000	0.152450 
630.000000	0.155720 
629.000000	0.159080 
628.000000	0.162400 
627.000000	0.165790 
626.000000	0.169090 
625.000000	0.172380 
624.000000	0.175820 
623.000000	0.179140 
622.000000	0.182520 
621.000000	0.185930 
620.000000	0.189350 
619.000000	0.192820 
618.000000	0.196490 
617.000000	0.199920 
616.000000	0.203240 
615.000000	0.206590 
614.000000	0.210030 
613.000000	0.213300 
612.000000	0.216300 
611.000000	0.219480 
610.000000	0.222650 
609.000000	0.225800 
608.000000	0.228960 
607.000000	0.232110 
606.000000	0.235110 
605.000000	0.238110 
604.000000	0.241220 
603.000000	0.244220 
602.000000	0.247300 
601.000000	0.250440 
600.000000	0.253560 
599.000000	0.256660 
598.000000	0.259720 
597.000000	0.262720 
596.000000	0.265810 
595.000000	0.268900 
594.000000	0.271870 
593.000000	0.275060 
592.000000	0.278260 
591.000000	0.281450 
590.000000	0.284740 
589.000000	0.288080 
588.000000	0.291290 
587.000000	0.294560 
586.000000	0.297960 
585.000000	0.301320 
584.000000	0.304770 
583.000000	0.308090 
582.000000	0.311400 
581.000000	0.314690 
580.000000	0.318200 
579.000000	0.321550 
578.000000	0.324980 
577.000000	0.328470 
576.000000	0.332000 
575.000000	0.335460 
574.000000	0.339140 
573.000000	0.342750 
572.000000	0.346410 
571.000000	0.350100 
570.000000	0.353780 
569.000000	0.357560 
568.000000	0.361300 
567.000000	0.364900 
566.000000	0.368630 
565.000000	0.372400 
564.000000	0.376150 
563.000000	0.379930 
562.000000	0.383730 
561.000000	0.387660 
560.000000	0.391330 
559.000000	0.395020 
558.000000	0.398700 
557.000000	0.402360 
556.000000	0.406020 
555.000000	0.409420 
554.000000	0.412600 
553.000000	0.415620 
552.000000	0.418680 
551.000000	0.421860 
550.000000	0.424710 
549.000000	0.427340 
548.000000	0.429990 
547.000000	0.432380 
546.000000	0.434530 
545.000000	0.436780 
544.000000	0.438520 
543.000000	0.440390 
542.000000	0.442040 
541.000000	0.443390 
540.000000	0.444660 
539.000000	0.445640 
538.000000	0.446200 
537.000000	0.446890 
536.000000	0.447210 
535.000000	0.447310 
534.000000	0.447080 
533.000000	0.446950 
532.000000	0.446120 
531.000000	0.445180 
530.000000	0.443950 
529.000000	0.442800 
528.000000	0.441070 
527.000000	0.439190 
526.000000	0.437230 
525.000000	0.434470 
524.000000	0.432000 
523.000000	0.429030 
522.000000	0.425640 
521.000000	0.422370 
520.000000	0.418800 
519.000000	0.414930 
518.000000	0.411040 
517.000000	0.406850 
516.000000	0.402400 
515.000000	0.397810 
514.000000	0.392740 
513.000000	0.387520 
512.000000	0.382100 
511.000000	0.376800 
510.000000	0.371290 
509.000000	0.365820 
508.000000	0.359980 
507.000000	0.353820 
506.000000	0.347590 
505.000000	0.341210 
504.000000	0.334560 
503.000000	0.328070 
502.000000	0.321180 
501.000000	0.314690 
500.000000	0.307790 
499.000000	0.301100 
498.000000	0.294160 
497.000000	0.287210 
496.000000	0.280460 
495.000000	0.273160 
494.000000	0.266130 
493.000000	0.259410 
492.000000	0.252740 
491.000000	0.246050 
490.000000	0.239120 
489.000000	0.232470 
488.000000	0.226140 
487.000000	0.219850 
486.000000	0.213540 
485.000000	0.206900 
484.000000	0.200590 
483.000000	0.194260 
482.000000	0.188260 
481.000000	0.182710 
480.000000	0.177220 
479.000000	0.171490 
478.000000	0.166100 
477.000000	0.160510 
476.000000	0.155300 
475.000000	0.150000 
474.000000	0.145060 
473.000000	0.140280 
472.000000	0.135450 
471.000000	0.131300 
470.000000	0.126900 
469.000000	0.123120 
468.000000	0.118900 
467.000000	0.115330 
466.000000	0.111630 
465.000000	0.108340 
464.000000	0.105230 
463.000000	0.102460 
462.000000	0.099800 
461.000000	0.097410 
460.000000	0.095310 
459.000000	0.093479 
458.000000	0.091560 
457.000000	0.089930 
456.000000	0.088870 
455.000000	0.087880 
454.000000	0.086900 
453.000000	0.086410 
452.000000	0.086380 
451.000000	0.086110 
450.000000	0.086240 
449.000000	0.086790 
448.000000	0.087370 
447.000000	0.088260 
446.000000	0.089719 
445.000000	0.091259 
444.000000	0.093270 
443.000000	0.095260 
442.000000	0.097830 
441.000000	0.100430 
440.000000	0.103440 
439.000000	0.107040 
438.000000	0.110870 
437.000000	0.114790 
436.000000	0.118900 
435.000000	0.123600 
434.000000	0.128110 
433.000000	0.133600 
432.000000	0.138680 
431.000000	0.143990 
430.000000	0.149650 
429.000000	0.156010 
428.000000	0.162260 
427.000000	0.169070 
426.000000	0.175620 
425.000000	0.182550 
424.000000	0.189650 
423.000000	0.197180 
422.000000	0.204130 
421.000000	0.211620 
420.000000	0.219540 
419.000000	0.227400 
418.000000	0.235470 
417.000000	0.243840 
416.000000	0.252060 
415.000000	0.259990 
414.000000	0.268150 
413.000000	0.276230 
412.000000	0.284180 
411.000000	0.292410 
410.000000	0.300680 
409.000000	0.308770 
408.000000	0.316970 
407.000000	0.324540 
406.000000	0.332060 
405.000000	0.338660 
404.000000	0.345420 
403.000000	0.351710 
402.000000	0.357790 
401.000000	0.363700 
400.000000	0.369450 

