PE UV                   SPECTRUM    ASCII       PEDS        1.60        
  -1
23MS098.SP
24/10/22
14:58:18.00
24/10/22
15:00:24.00


400.000000
1









4444

SCAN
1
1


0.0
480.0
2.00
MANUAL



UV/VIS




































#HDR
-1
-1
#GR
NM
A
0.00000011920928955078
0.0
700.000000
1.000000
301
8
0.372380
0.016720
#DATA
700.000000	0.016720 
699.000000	0.017180 
698.000000	0.017570 
697.000000	0.018000 
696.000000	0.018440 
695.000000	0.018980 
694.000000	0.019540 
693.000000	0.020100 
692.000000	0.020740 
691.000000	0.021180 
690.000000	0.021800 
689.000000	0.022450 
688.000000	0.023160 
687.000000	0.023860 
686.000000	0.024470 
685.000000	0.025270 
684.000000	0.026040 
683.000000	0.027180 
682.000000	0.028090 
681.000000	0.029050 
680.000000	0.029960 
679.000000	0.030980 
678.000000	0.031930 
677.000000	0.033060 
676.000000	0.034020 
675.000000	0.035260 
674.000000	0.036430 
673.000000	0.037620 
672.000000	0.038850 
671.000000	0.040170 
670.000000	0.041440 
669.000000	0.042720 
668.000000	0.044140 
667.000000	0.045650 
666.000000	0.047110 
665.000000	0.048710 
664.000000	0.050330 
663.000000	0.051990 
662.000000	0.053570 
661.000000	0.055240 
660.000000	0.057100 
659.000000	0.058840 
658.000000	0.060820 
657.000000	0.062760 
656.000000	0.064769 
655.000000	0.066850 
654.000000	0.068970 
653.000000	0.071110 
652.000000	0.073140 
651.000000	0.075560 
650.000000	0.077880 
649.000000	0.080250 
648.000000	0.082559 
647.000000	0.085100 
646.000000	0.087620 
645.000000	0.090100 
644.000000	0.092750 
643.000000	0.095300 
642.000000	0.097870 
641.000000	0.100430 
640.000000	0.102970 
639.000000	0.105630 
638.000000	0.108230 
637.000000	0.110850 
636.000000	0.113630 
635.000000	0.116370 
634.000000	0.118980 
633.000000	0.121760 
632.000000	0.124480 
631.000000	0.127170 
630.000000	0.129950 
629.000000	0.132860 
628.000000	0.135730 
627.000000	0.138590 
626.000000	0.141380 
625.000000	0.144270 
624.000000	0.147040 
623.000000	0.149870 
622.000000	0.152640 
621.000000	0.155570 
620.000000	0.158300 
619.000000	0.161230 
618.000000	0.164090 
617.000000	0.167000 
616.000000	0.169870 
615.000000	0.172690 
614.000000	0.175400 
613.000000	0.178080 
612.000000	0.180650 
611.000000	0.183120 
610.000000	0.185890 
609.000000	0.188420 
608.000000	0.191190 
607.000000	0.193860 
606.000000	0.196440 
605.000000	0.198940 
604.000000	0.201490 
603.000000	0.203920 
602.000000	0.206430 
601.000000	0.208900 
600.000000	0.211620 
599.000000	0.214170 
598.000000	0.216780 
597.000000	0.219210 
596.000000	0.221790 
595.000000	0.224310 
594.000000	0.226920 
593.000000	0.229380 
592.000000	0.232060 
591.000000	0.234640 
590.000000	0.237430 
589.000000	0.240160 
588.000000	0.242980 
587.000000	0.245680 
586.000000	0.248460 
585.000000	0.251230 
584.000000	0.253910 
583.000000	0.256680 
582.000000	0.259550 
581.000000	0.262170 
580.000000	0.265140 
579.000000	0.267960 
578.000000	0.270890 
577.000000	0.273840 
576.000000	0.276650 
575.000000	0.279640 
574.000000	0.282550 
573.000000	0.285500 
572.000000	0.288650 
571.000000	0.291700 
570.000000	0.294850 
569.000000	0.298010 
568.000000	0.301120 
567.000000	0.304180 
566.000000	0.307280 
565.000000	0.310330 
564.000000	0.313550 
563.000000	0.316710 
562.000000	0.319750 
561.000000	0.323130 
560.000000	0.326080 
559.000000	0.329200 
558.000000	0.332460 
557.000000	0.335400 
556.000000	0.338340 
555.000000	0.341030 
554.000000	0.343750 
553.000000	0.346440 
552.000000	0.348890 
551.000000	0.351460 
550.000000	0.353890 
549.000000	0.356160 
548.000000	0.358150 
547.000000	0.360160 
546.000000	0.362010 
545.000000	0.363780 
544.000000	0.365350 
543.000000	0.366780 
542.000000	0.368210 
541.000000	0.369360 
540.000000	0.370270 
539.000000	0.371120 
538.000000	0.371740 
537.000000	0.372240 
536.000000	0.372340 
535.000000	0.372370 
534.000000	0.372380 
533.000000	0.371940 
532.000000	0.371380 
531.000000	0.370740 
530.000000	0.369600 
529.000000	0.368290 
528.000000	0.366910 
527.000000	0.365400 
526.000000	0.363610 
525.000000	0.361540 
524.000000	0.359420 
523.000000	0.356960 
522.000000	0.354020 
521.000000	0.351290 
520.000000	0.348250 
519.000000	0.345060 
518.000000	0.341710 
517.000000	0.338240 
516.000000	0.334540 
515.000000	0.330650 
514.000000	0.326630 
513.000000	0.322240 
512.000000	0.317780 
511.000000	0.313370 
510.000000	0.308610 
509.000000	0.303830 
508.000000	0.299170 
507.000000	0.294140 
506.000000	0.288920 
505.000000	0.283590 
504.000000	0.278000 
503.000000	0.272680 
502.000000	0.267000 
501.000000	0.261510 
500.000000	0.255610 
499.000000	0.250000 
498.000000	0.244400 
497.000000	0.238730 
496.000000	0.233000 
495.000000	0.227120 
494.000000	0.221280 
493.000000	0.215400 
492.000000	0.209840 
491.000000	0.204220 
490.000000	0.198810 
489.000000	0.193420 
488.000000	0.188110 
487.000000	0.182900 
486.000000	0.177590 
485.000000	0.172190 
484.000000	0.166750 
483.000000	0.161610 
482.000000	0.156380 
481.000000	0.151670 
480.000000	0.146920 
479.000000	0.142530 
478.000000	0.138000 
477.000000	0.133340 
476.000000	0.129140 
475.000000	0.124880 
474.000000	0.120550 
473.000000	0.116360 
472.000000	0.112720 
471.000000	0.109050 
470.000000	0.105290 
469.000000	0.102130 
468.000000	0.099060 
467.000000	0.095880 
466.000000	0.092850 
465.000000	0.090320 
464.000000	0.087730 
463.000000	0.085110 
462.000000	0.083140 
461.000000	0.081220 
460.000000	0.079519 
459.000000	0.077840 
458.000000	0.076490 
457.000000	0.075370 
456.000000	0.074360 
455.000000	0.073560 
454.000000	0.072800 
453.000000	0.072420 
452.000000	0.072060 
451.000000	0.072170 
450.000000	0.072380 
449.000000	0.072640 
448.000000	0.073260 
447.000000	0.073990 
446.000000	0.075220 
445.000000	0.076550 
444.000000	0.078210 
443.000000	0.079800 
442.000000	0.082080 
441.000000	0.084410 
440.000000	0.087010 
439.000000	0.089770 
438.000000	0.092860 
437.000000	0.096250 
436.000000	0.099680 
435.000000	0.103850 
434.000000	0.107760 
433.000000	0.111940 
432.000000	0.116450 
431.000000	0.120800 
430.000000	0.125510 
429.000000	0.130420 
428.000000	0.136050 
427.000000	0.141810 
426.000000	0.147200 
425.000000	0.153400 
424.000000	0.159310 
423.000000	0.165350 
422.000000	0.171170 
421.000000	0.177140 
420.000000	0.183640 
419.000000	0.190250 
418.000000	0.196920 
417.000000	0.203990 
416.000000	0.210950 
415.000000	0.218010 
414.000000	0.224720 
413.000000	0.231380 
412.000000	0.238150 
411.000000	0.244820 
410.000000	0.251670 
409.000000	0.258610 
408.000000	0.265270 
407.000000	0.271620 
406.000000	0.277740 
405.000000	0.283570 
404.000000	0.289110 
403.000000	0.294420 
402.000000	0.299620 
401.000000	0.304600 
400.000000	0.309150 

