PE UV                   SPECTRUM    ASCII       PEDS        1.60        
  -1
23MS080.SP
24/10/22
14:42:34.00
24/10/22
14:44:46.00


400.000000
1









4444

SCAN
1
1


0.0
480.0
2.00
MANUAL



UV/VIS




































#HDR
-1
-1
#GR
NM
A
0.00000011920928955078
0.0
700.000000
1.000000
301
8
0.267660
0.029520
#DATA
700.000000	0.029520 
699.000000	0.030780 
698.000000	0.031900 
697.000000	0.033190 
696.000000	0.034490 
695.000000	0.035840 
694.000000	0.037300 
693.000000	0.038730 
692.000000	0.040290 
691.000000	0.041850 
690.000000	0.043480 
689.000000	0.045230 
688.000000	0.046990 
687.000000	0.048650 
686.000000	0.050470 
685.000000	0.052330 
684.000000	0.054270 
683.000000	0.056780 
682.000000	0.058910 
681.000000	0.061180 
680.000000	0.063370 
679.000000	0.065500 
678.000000	0.067750 
677.000000	0.070190 
676.000000	0.072550 
675.000000	0.074880 
674.000000	0.077369 
673.000000	0.079990 
672.000000	0.082570 
671.000000	0.085150 
670.000000	0.087710 
669.000000	0.090329 
668.000000	0.092960 
667.000000	0.095580 
666.000000	0.098380 
665.000000	0.101240 
664.000000	0.104040 
663.000000	0.107050 
662.000000	0.110040 
661.000000	0.113000 
660.000000	0.115890 
659.000000	0.118880 
658.000000	0.121900 
657.000000	0.124860 
656.000000	0.127880 
655.000000	0.130930 
654.000000	0.134240 
653.000000	0.137360 
652.000000	0.140550 
651.000000	0.143740 
650.000000	0.146830 
649.000000	0.149900 
648.000000	0.152900 
647.000000	0.156060 
646.000000	0.159000 
645.000000	0.162090 
644.000000	0.165230 
643.000000	0.168200 
642.000000	0.171100 
641.000000	0.173910 
640.000000	0.176680 
639.000000	0.179320 
638.000000	0.181920 
637.000000	0.184400 
636.000000	0.186950 
635.000000	0.189420 
634.000000	0.191910 
633.000000	0.194280 
632.000000	0.196610 
631.000000	0.198680 
630.000000	0.200770 
629.000000	0.202740 
628.000000	0.204810 
627.000000	0.206690 
626.000000	0.208450 
625.000000	0.210230 
624.000000	0.211850 
623.000000	0.213400 
622.000000	0.214830 
621.000000	0.216020 
620.000000	0.217180 
619.000000	0.218310 
618.000000	0.219360 
617.000000	0.220270 
616.000000	0.221130 
615.000000	0.221820 
614.000000	0.222380 
613.000000	0.222950 
612.000000	0.223270 
611.000000	0.223400 
610.000000	0.223670 
609.000000	0.223820 
608.000000	0.223870 
607.000000	0.223630 
606.000000	0.223520 
605.000000	0.223260 
604.000000	0.222850 
603.000000	0.222400 
602.000000	0.221930 
601.000000	0.221220 
600.000000	0.220750 
599.000000	0.219940 
598.000000	0.219190 
597.000000	0.218240 
596.000000	0.217290 
595.000000	0.216270 
594.000000	0.215210 
593.000000	0.214200 
592.000000	0.213050 
591.000000	0.211820 
590.000000	0.210610 
589.000000	0.209330 
588.000000	0.208050 
587.000000	0.206670 
586.000000	0.205330 
585.000000	0.203910 
584.000000	0.202550 
583.000000	0.201250 
582.000000	0.199990 
581.000000	0.198720 
580.000000	0.197530 
579.000000	0.196090 
578.000000	0.194860 
577.000000	0.193540 
576.000000	0.192170 
575.000000	0.191060 
574.000000	0.189710 
573.000000	0.188550 
572.000000	0.187380 
571.000000	0.186350 
570.000000	0.185160 
569.000000	0.184160 
568.000000	0.183110 
567.000000	0.182020 
566.000000	0.180980 
565.000000	0.179980 
564.000000	0.179150 
563.000000	0.178250 
562.000000	0.177290 
561.000000	0.176630 
560.000000	0.175710 
559.000000	0.174950 
558.000000	0.174020 
557.000000	0.173310 
556.000000	0.172500 
555.000000	0.171890 
554.000000	0.171430 
553.000000	0.170770 
552.000000	0.170130 
551.000000	0.169690 
550.000000	0.169200 
549.000000	0.168590 
548.000000	0.168130 
547.000000	0.167700 
546.000000	0.167240 
545.000000	0.166740 
544.000000	0.166340 
543.000000	0.165790 
542.000000	0.165480 
541.000000	0.165040 
540.000000	0.164500 
539.000000	0.163960 
538.000000	0.163530 
537.000000	0.162990 
536.000000	0.162370 
535.000000	0.161870 
534.000000	0.161450 
533.000000	0.160740 
532.000000	0.160180 
531.000000	0.159630 
530.000000	0.158870 
529.000000	0.158110 
528.000000	0.157520 
527.000000	0.156710 
526.000000	0.156040 
525.000000	0.155270 
524.000000	0.154480 
523.000000	0.153650 
522.000000	0.152790 
521.000000	0.152040 
520.000000	0.151140 
519.000000	0.150190 
518.000000	0.149360 
517.000000	0.148530 
516.000000	0.147560 
515.000000	0.146780 
514.000000	0.146000 
513.000000	0.144970 
512.000000	0.144120 
511.000000	0.143270 
510.000000	0.142450 
509.000000	0.141590 
508.000000	0.140750 
507.000000	0.139940 
506.000000	0.139220 
505.000000	0.138480 
504.000000	0.137750 
503.000000	0.136980 
502.000000	0.136440 
501.000000	0.135820 
500.000000	0.134980 
499.000000	0.134550 
498.000000	0.134050 
497.000000	0.133540 
496.000000	0.133110 
495.000000	0.132740 
494.000000	0.132490 
493.000000	0.132280 
492.000000	0.131970 
491.000000	0.131800 
490.000000	0.131840 
489.000000	0.131790 
488.000000	0.131710 
487.000000	0.131660 
486.000000	0.131840 
485.000000	0.131870 
484.000000	0.131930 
483.000000	0.132230 
482.000000	0.132420 
481.000000	0.132670 
480.000000	0.132860 
479.000000	0.133360 
478.000000	0.133660 
477.000000	0.134140 
476.000000	0.134640 
475.000000	0.135010 
474.000000	0.135530 
473.000000	0.135750 
472.000000	0.136440 
471.000000	0.136980 
470.000000	0.137300 
469.000000	0.137850 
468.000000	0.138720 
467.000000	0.139100 
466.000000	0.139390 
465.000000	0.140050 
464.000000	0.140730 
463.000000	0.141200 
462.000000	0.141690 
461.000000	0.142090 
460.000000	0.142780 
459.000000	0.143130 
458.000000	0.143370 
457.000000	0.144280 
456.000000	0.144790 
455.000000	0.145100 
454.000000	0.145790 
453.000000	0.146330 
452.000000	0.147050 
451.000000	0.147670 
450.000000	0.148130 
449.000000	0.149040 
448.000000	0.149670 
447.000000	0.150530 
446.000000	0.151270 
445.000000	0.151900 
444.000000	0.153260 
443.000000	0.154260 
442.000000	0.155680 
441.000000	0.156990 
440.000000	0.158440 
439.000000	0.159860 
438.000000	0.161490 
437.000000	0.162990 
436.000000	0.164720 
435.000000	0.167010 
434.000000	0.169010 
433.000000	0.171180 
432.000000	0.173740 
431.000000	0.176000 
430.000000	0.178460 
429.000000	0.181010 
428.000000	0.183850 
427.000000	0.187010 
426.000000	0.189970 
425.000000	0.193170 
424.000000	0.196240 
423.000000	0.199610 
422.000000	0.202630 
421.000000	0.205420 
420.000000	0.208640 
419.000000	0.212120 
418.000000	0.215540 
417.000000	0.219130 
416.000000	0.222650 
415.000000	0.226230 
414.000000	0.229770 
413.000000	0.233010 
412.000000	0.236400 
411.000000	0.239550 
410.000000	0.242870 
409.000000	0.245940 
408.000000	0.248940 
407.000000	0.251930 
406.000000	0.254620 
405.000000	0.257110 
404.000000	0.259580 
403.000000	0.261920 
402.000000	0.263920 
401.000000	0.265970 
400.000000	0.267660 

