PE UV                   SPECTRUM    ASCII       PEDS        1.60        
  -1
23MS251.SP
24/10/18
15:57:47.00
24/10/18
15:59:38.00


400.000000
1









4444

SCAN
1
1


0.0
480.0
2.00
MANUAL



UV/VIS




































#HDR
-1
-1
#GR
NM
A
0.00000011920928955078
0.0
700.000000
1.000000
301
8
0.287530
0.017930
#DATA
700.000000	0.017930 
699.000000	0.018280 
698.000000	0.018510 
697.000000	0.018860 
696.000000	0.019270 
695.000000	0.019570 
694.000000	0.019950 
693.000000	0.020310 
692.000000	0.020570 
691.000000	0.021110 
690.000000	0.021500 
689.000000	0.022010 
688.000000	0.022510 
687.000000	0.023060 
686.000000	0.023500 
685.000000	0.024170 
684.000000	0.024760 
683.000000	0.025450 
682.000000	0.026100 
681.000000	0.026830 
680.000000	0.027550 
679.000000	0.028270 
678.000000	0.029000 
677.000000	0.029770 
676.000000	0.030600 
675.000000	0.031400 
674.000000	0.032320 
673.000000	0.033170 
672.000000	0.034010 
671.000000	0.035060 
670.000000	0.035990 
669.000000	0.036930 
668.000000	0.038040 
667.000000	0.039080 
666.000000	0.040070 
665.000000	0.041160 
664.000000	0.042350 
663.000000	0.043600 
662.000000	0.044700 
661.000000	0.046120 
660.000000	0.047380 
659.000000	0.048760 
658.000000	0.050200 
657.000000	0.051610 
656.000000	0.053090 
655.000000	0.054630 
654.000000	0.056150 
653.000000	0.057540 
652.000000	0.059310 
651.000000	0.061010 
650.000000	0.062750 
649.000000	0.064500 
648.000000	0.066280 
647.000000	0.068070 
646.000000	0.069870 
645.000000	0.071810 
644.000000	0.073719 
643.000000	0.075579 
642.000000	0.077600 
641.000000	0.079540 
640.000000	0.081390 
639.000000	0.083200 
638.000000	0.085100 
637.000000	0.087140 
636.000000	0.089050 
635.000000	0.091030 
634.000000	0.092920 
633.000000	0.095070 
632.000000	0.097080 
631.000000	0.099210 
630.000000	0.101270 
629.000000	0.103390 
628.000000	0.105460 
627.000000	0.107540 
626.000000	0.109510 
625.000000	0.111630 
624.000000	0.113690 
623.000000	0.115920 
622.000000	0.118010 
621.000000	0.120200 
620.000000	0.122440 
619.000000	0.124560 
618.000000	0.126560 
617.000000	0.128750 
616.000000	0.130820 
615.000000	0.132900 
614.000000	0.135140 
613.000000	0.137050 
612.000000	0.138970 
611.000000	0.140990 
610.000000	0.142940 
609.000000	0.145010 
608.000000	0.146880 
607.000000	0.148690 
606.000000	0.150710 
605.000000	0.152480 
604.000000	0.154490 
603.000000	0.156450 
602.000000	0.158370 
601.000000	0.160320 
600.000000	0.162260 
599.000000	0.164160 
598.000000	0.166240 
597.000000	0.168120 
596.000000	0.169980 
595.000000	0.172010 
594.000000	0.174000 
593.000000	0.175960 
592.000000	0.177990 
591.000000	0.180060 
590.000000	0.182090 
589.000000	0.184130 
588.000000	0.186150 
587.000000	0.188200 
586.000000	0.190360 
585.000000	0.192540 
584.000000	0.194770 
583.000000	0.196870 
582.000000	0.199100 
581.000000	0.201050 
580.000000	0.203300 
579.000000	0.205390 
578.000000	0.207570 
577.000000	0.209820 
576.000000	0.212170 
575.000000	0.214270 
574.000000	0.216680 
573.000000	0.218970 
572.000000	0.221320 
571.000000	0.223670 
570.000000	0.225910 
569.000000	0.228190 
568.000000	0.230630 
567.000000	0.233000 
566.000000	0.235420 
565.000000	0.237860 
564.000000	0.240380 
563.000000	0.242750 
562.000000	0.245130 
561.000000	0.247650 
560.000000	0.250020 
559.000000	0.252270 
558.000000	0.254930 
557.000000	0.257350 
556.000000	0.259800 
555.000000	0.262070 
554.000000	0.264070 
553.000000	0.266110 
552.000000	0.268150 
551.000000	0.270100 
550.000000	0.271910 
549.000000	0.273600 
548.000000	0.275470 
547.000000	0.277070 
546.000000	0.278450 
545.000000	0.279840 
544.000000	0.281180 
543.000000	0.282380 
542.000000	0.283490 
541.000000	0.284400 
540.000000	0.285180 
539.000000	0.285930 
538.000000	0.286430 
537.000000	0.286950 
536.000000	0.287210 
535.000000	0.287440 
534.000000	0.287530 
533.000000	0.287360 
532.000000	0.287070 
531.000000	0.286670 
530.000000	0.285870 
529.000000	0.285250 
528.000000	0.284340 
527.000000	0.283160 
526.000000	0.281870 
525.000000	0.280420 
524.000000	0.278860 
523.000000	0.277220 
522.000000	0.275320 
521.000000	0.273410 
520.000000	0.271300 
519.000000	0.269080 
518.000000	0.266660 
517.000000	0.264090 
516.000000	0.261410 
515.000000	0.258550 
514.000000	0.255390 
513.000000	0.252430 
512.000000	0.249250 
511.000000	0.246050 
510.000000	0.242700 
509.000000	0.239130 
508.000000	0.235440 
507.000000	0.231830 
506.000000	0.227810 
505.000000	0.224090 
504.000000	0.220010 
503.000000	0.215920 
502.000000	0.211890 
501.000000	0.207700 
500.000000	0.203590 
499.000000	0.199210 
498.000000	0.195040 
497.000000	0.190450 
496.000000	0.186190 
495.000000	0.181950 
494.000000	0.177530 
493.000000	0.173330 
492.000000	0.169220 
491.000000	0.164860 
490.000000	0.160640 
489.000000	0.156750 
488.000000	0.152830 
487.000000	0.148670 
486.000000	0.144570 
485.000000	0.140540 
484.000000	0.136610 
483.000000	0.132830 
482.000000	0.129090 
481.000000	0.125450 
480.000000	0.121810 
479.000000	0.118160 
478.000000	0.114710 
477.000000	0.111390 
476.000000	0.108080 
475.000000	0.104870 
474.000000	0.101820 
473.000000	0.098890 
472.000000	0.095949 
471.000000	0.093140 
470.000000	0.090570 
469.000000	0.087790 
468.000000	0.085540 
467.000000	0.083180 
466.000000	0.080820 
465.000000	0.078729 
464.000000	0.076990 
463.000000	0.075130 
462.000000	0.073469 
461.000000	0.072010 
460.000000	0.070639 
459.000000	0.069300 
458.000000	0.068560 
457.000000	0.067390 
456.000000	0.066780 
455.000000	0.066020 
454.000000	0.065420 
453.000000	0.065240 
452.000000	0.065290 
451.000000	0.064830 
450.000000	0.065100 
449.000000	0.065260 
448.000000	0.065570 
447.000000	0.066400 
446.000000	0.067040 
445.000000	0.068040 
444.000000	0.068849 
443.000000	0.070400 
442.000000	0.071780 
441.000000	0.073680 
440.000000	0.075509 
439.000000	0.077650 
438.000000	0.080230 
437.000000	0.082530 
436.000000	0.085090 
435.000000	0.087999 
434.000000	0.090770 
433.000000	0.094130 
432.000000	0.097059 
431.000000	0.100560 
430.000000	0.104170 
429.000000	0.108000 
428.000000	0.112010 
427.000000	0.116050 
426.000000	0.119930 
425.000000	0.124310 
424.000000	0.128460 
423.000000	0.133280 
422.000000	0.137600 
421.000000	0.142050 
420.000000	0.146910 
419.000000	0.151820 
418.000000	0.156760 
417.000000	0.161960 
416.000000	0.166740 
415.000000	0.171910 
414.000000	0.177350 
413.000000	0.182540 
412.000000	0.187650 
411.000000	0.193000 
410.000000	0.198010 
409.000000	0.203350 
408.000000	0.208180 
407.000000	0.213030 
406.000000	0.217660 
405.000000	0.222340 
404.000000	0.226400 
403.000000	0.230500 
402.000000	0.234540 
401.000000	0.238320 
400.000000	0.241880 

