PE UV                   SPECTRUM    ASCII       PEDS        1.60        
  -1
23MS010.SP
24/10/21
15:21:01.00
24/10/21
15:22:08.00


400.000000
1









4444

SCAN
1
1


0.0
480.0
2.00
MANUAL



UV/VIS




































#HDR
-1
-1
#GR
NM
A
0.00000011920928955078
0.0
700.000000
1.000000
301
8
0.463920
0.018110
#DATA
700.000000	0.018110 
699.000000	0.018590 
698.000000	0.019190 
697.000000	0.019660 
696.000000	0.020300 
695.000000	0.020970 
694.000000	0.021540 
693.000000	0.022310 
692.000000	0.022950 
691.000000	0.023650 
690.000000	0.024530 
689.000000	0.025340 
688.000000	0.026160 
687.000000	0.027070 
686.000000	0.028010 
685.000000	0.028910 
684.000000	0.030010 
683.000000	0.031350 
682.000000	0.032390 
681.000000	0.033550 
680.000000	0.034850 
679.000000	0.036160 
678.000000	0.037310 
677.000000	0.038740 
676.000000	0.040000 
675.000000	0.041510 
674.000000	0.043050 
673.000000	0.044640 
672.000000	0.046320 
671.000000	0.047840 
670.000000	0.049530 
669.000000	0.051170 
668.000000	0.053050 
667.000000	0.054730 
666.000000	0.056710 
665.000000	0.058700 
664.000000	0.060750 
663.000000	0.062909 
662.000000	0.064930 
661.000000	0.067200 
660.000000	0.069450 
659.000000	0.071609 
658.000000	0.074160 
657.000000	0.076590 
656.000000	0.079120 
655.000000	0.081690 
654.000000	0.084470 
653.000000	0.087230 
652.000000	0.089880 
651.000000	0.092770 
650.000000	0.095589 
649.000000	0.098650 
648.000000	0.101630 
647.000000	0.104660 
646.000000	0.107770 
645.000000	0.111150 
644.000000	0.114340 
643.000000	0.117650 
642.000000	0.121010 
641.000000	0.124140 
640.000000	0.127310 
639.000000	0.130560 
638.000000	0.133740 
637.000000	0.137260 
636.000000	0.140580 
635.000000	0.144020 
634.000000	0.147590 
633.000000	0.151030 
632.000000	0.154490 
631.000000	0.157810 
630.000000	0.161340 
629.000000	0.164830 
628.000000	0.168390 
627.000000	0.172100 
626.000000	0.175530 
625.000000	0.179160 
624.000000	0.182830 
623.000000	0.186350 
622.000000	0.189950 
621.000000	0.193480 
620.000000	0.197220 
619.000000	0.200680 
618.000000	0.204330 
617.000000	0.208020 
616.000000	0.211600 
615.000000	0.215160 
614.000000	0.218800 
613.000000	0.222000 
612.000000	0.225310 
611.000000	0.228640 
610.000000	0.231860 
609.000000	0.235100 
608.000000	0.238360 
607.000000	0.241660 
606.000000	0.245000 
605.000000	0.248220 
604.000000	0.251410 
603.000000	0.254450 
602.000000	0.257700 
601.000000	0.260840 
600.000000	0.264030 
599.000000	0.267220 
598.000000	0.270530 
597.000000	0.273760 
596.000000	0.276930 
595.000000	0.280230 
594.000000	0.283330 
593.000000	0.286550 
592.000000	0.289750 
591.000000	0.293100 
590.000000	0.296420 
589.000000	0.299860 
588.000000	0.303270 
587.000000	0.306770 
586.000000	0.310320 
585.000000	0.313770 
584.000000	0.317240 
583.000000	0.320700 
582.000000	0.324070 
581.000000	0.327560 
580.000000	0.331020 
579.000000	0.334660 
578.000000	0.338360 
577.000000	0.341970 
576.000000	0.345740 
575.000000	0.349340 
574.000000	0.352960 
573.000000	0.356630 
572.000000	0.360500 
571.000000	0.364340 
570.000000	0.368170 
569.000000	0.372090 
568.000000	0.376100 
567.000000	0.380010 
566.000000	0.383850 
565.000000	0.387830 
564.000000	0.391490 
563.000000	0.395480 
562.000000	0.399380 
561.000000	0.403480 
560.000000	0.407480 
559.000000	0.411410 
558.000000	0.414660 
557.000000	0.418270 
556.000000	0.421830 
555.000000	0.425550 
554.000000	0.428680 
553.000000	0.432130 
552.000000	0.435130 
551.000000	0.438120 
550.000000	0.441130 
549.000000	0.444020 
548.000000	0.446640 
547.000000	0.449050 
546.000000	0.451160 
545.000000	0.453360 
544.000000	0.455160 
543.000000	0.457050 
542.000000	0.458660 
541.000000	0.460120 
540.000000	0.461410 
539.000000	0.462530 
538.000000	0.463000 
537.000000	0.463580 
536.000000	0.463920 
535.000000	0.463920 
534.000000	0.463750 
533.000000	0.463090 
532.000000	0.462490 
531.000000	0.461510 
530.000000	0.459910 
529.000000	0.458360 
528.000000	0.456790 
527.000000	0.454680 
526.000000	0.452250 
525.000000	0.449630 
524.000000	0.446890 
523.000000	0.443550 
522.000000	0.440180 
521.000000	0.436680 
520.000000	0.432730 
519.000000	0.428790 
518.000000	0.424640 
517.000000	0.420210 
516.000000	0.415820 
515.000000	0.410820 
514.000000	0.405720 
513.000000	0.400380 
512.000000	0.394950 
511.000000	0.389070 
510.000000	0.383170 
509.000000	0.377290 
508.000000	0.371440 
507.000000	0.365150 
506.000000	0.358620 
505.000000	0.352200 
504.000000	0.345280 
503.000000	0.338420 
502.000000	0.331320 
501.000000	0.324140 
500.000000	0.317030 
499.000000	0.309810 
498.000000	0.302860 
497.000000	0.295640 
496.000000	0.288620 
495.000000	0.281230 
494.000000	0.273920 
493.000000	0.266860 
492.000000	0.259460 
491.000000	0.252730 
490.000000	0.245600 
489.000000	0.238790 
488.000000	0.232320 
487.000000	0.225680 
486.000000	0.218910 
485.000000	0.212340 
484.000000	0.205680 
483.000000	0.199270 
482.000000	0.192910 
481.000000	0.186780 
480.000000	0.180840 
479.000000	0.175320 
478.000000	0.169960 
477.000000	0.164280 
476.000000	0.158620 
475.000000	0.153450 
474.000000	0.148160 
473.000000	0.143090 
472.000000	0.138340 
471.000000	0.133630 
470.000000	0.129410 
469.000000	0.125210 
468.000000	0.121420 
467.000000	0.117540 
466.000000	0.113810 
465.000000	0.110440 
464.000000	0.107110 
463.000000	0.104170 
462.000000	0.101670 
461.000000	0.099349 
460.000000	0.097230 
459.000000	0.095300 
458.000000	0.093510 
457.000000	0.092009 
456.000000	0.090750 
455.000000	0.089600 
454.000000	0.088890 
453.000000	0.088310 
452.000000	0.088060 
451.000000	0.088080 
450.000000	0.088050 
449.000000	0.088520 
448.000000	0.089330 
447.000000	0.090640 
446.000000	0.092060 
445.000000	0.093670 
444.000000	0.095699 
443.000000	0.098430 
442.000000	0.100820 
441.000000	0.103510 
440.000000	0.106710 
439.000000	0.110510 
438.000000	0.114010 
437.000000	0.118620 
436.000000	0.122910 
435.000000	0.128000 
434.000000	0.133090 
433.000000	0.138520 
432.000000	0.143980 
431.000000	0.149540 
430.000000	0.155530 
429.000000	0.162000 
428.000000	0.168620 
427.000000	0.175700 
426.000000	0.182630 
425.000000	0.190150 
424.000000	0.197980 
423.000000	0.205610 
422.000000	0.213290 
421.000000	0.220740 
420.000000	0.228910 
419.000000	0.237070 
418.000000	0.245580 
417.000000	0.254350 
416.000000	0.263010 
415.000000	0.271830 
414.000000	0.280420 
413.000000	0.288830 
412.000000	0.297220 
411.000000	0.305650 
410.000000	0.314130 
409.000000	0.322420 
408.000000	0.331230 
407.000000	0.339300 
406.000000	0.346970 
405.000000	0.354400 
404.000000	0.361450 
403.000000	0.368080 
402.000000	0.374280 
401.000000	0.380480 
400.000000	0.386410 

