PE UV                   SPECTRUM    ASCII       PEDS        1.60        
  -1
23MS212.SP
24/10/18
15:35:53.00
24/10/18
15:38:27.00


400.000000
1









4444

SCAN
1
1


0.0
480.0
2.00
MANUAL



UV/VIS




































#HDR
-1
-1
#GR
NM
A
0.00000011920928955078
0.0
700.000000
1.000000
301
8
0.639270
0.026080
#DATA
700.000000	0.026080 
699.000000	0.026790 
698.000000	0.027460 
697.000000	0.028170 
696.000000	0.029080 
695.000000	0.029980 
694.000000	0.030930 
693.000000	0.031880 
692.000000	0.032810 
691.000000	0.033860 
690.000000	0.034870 
689.000000	0.035970 
688.000000	0.037120 
687.000000	0.038390 
686.000000	0.039530 
685.000000	0.040930 
684.000000	0.042320 
683.000000	0.044090 
682.000000	0.045690 
681.000000	0.047360 
680.000000	0.048920 
679.000000	0.050580 
678.000000	0.052290 
677.000000	0.054130 
676.000000	0.055930 
675.000000	0.057950 
674.000000	0.060140 
673.000000	0.062340 
672.000000	0.064420 
671.000000	0.066690 
670.000000	0.068950 
669.000000	0.071260 
668.000000	0.073590 
667.000000	0.076030 
666.000000	0.078630 
665.000000	0.081379 
664.000000	0.084130 
663.000000	0.087110 
662.000000	0.090079 
661.000000	0.092970 
660.000000	0.096050 
659.000000	0.099169 
658.000000	0.102310 
657.000000	0.105730 
656.000000	0.109180 
655.000000	0.112910 
654.000000	0.116500 
653.000000	0.120170 
652.000000	0.124130 
651.000000	0.128040 
650.000000	0.131900 
649.000000	0.136050 
648.000000	0.140080 
647.000000	0.144330 
646.000000	0.148550 
645.000000	0.153090 
644.000000	0.157590 
643.000000	0.162050 
642.000000	0.166440 
641.000000	0.170910 
640.000000	0.175400 
639.000000	0.179770 
638.000000	0.184180 
637.000000	0.188790 
636.000000	0.193430 
635.000000	0.198170 
634.000000	0.202850 
633.000000	0.207660 
632.000000	0.212450 
631.000000	0.217080 
630.000000	0.221810 
629.000000	0.226660 
628.000000	0.231530 
627.000000	0.236470 
626.000000	0.241290 
625.000000	0.246270 
624.000000	0.251150 
623.000000	0.256140 
622.000000	0.260880 
621.000000	0.265860 
620.000000	0.270780 
619.000000	0.275520 
618.000000	0.280390 
617.000000	0.285450 
616.000000	0.290420 
615.000000	0.295320 
614.000000	0.300270 
613.000000	0.304800 
612.000000	0.309300 
611.000000	0.313750 
610.000000	0.318250 
609.000000	0.322820 
608.000000	0.327150 
607.000000	0.331670 
606.000000	0.336150 
605.000000	0.340520 
604.000000	0.344870 
603.000000	0.349210 
602.000000	0.353430 
601.000000	0.357700 
600.000000	0.362060 
599.000000	0.366440 
598.000000	0.370930 
597.000000	0.375440 
596.000000	0.379750 
595.000000	0.384220 
594.000000	0.388550 
593.000000	0.392890 
592.000000	0.397270 
591.000000	0.401830 
590.000000	0.406570 
589.000000	0.411110 
588.000000	0.415920 
587.000000	0.420690 
586.000000	0.425620 
585.000000	0.430250 
584.000000	0.435050 
583.000000	0.439780 
582.000000	0.444710 
581.000000	0.449380 
580.000000	0.454300 
579.000000	0.459170 
578.000000	0.464120 
577.000000	0.469280 
576.000000	0.474400 
575.000000	0.479250 
574.000000	0.484430 
573.000000	0.489540 
572.000000	0.494700 
571.000000	0.499940 
570.000000	0.505190 
569.000000	0.510790 
568.000000	0.516270 
567.000000	0.521480 
566.000000	0.526980 
565.000000	0.532180 
564.000000	0.537520 
563.000000	0.542780 
562.000000	0.548320 
561.000000	0.553770 
560.000000	0.559140 
559.000000	0.564710 
558.000000	0.570420 
557.000000	0.575630 
556.000000	0.580690 
555.000000	0.585620 
554.000000	0.589890 
553.000000	0.594660 
552.000000	0.599090 
551.000000	0.603330 
550.000000	0.607380 
549.000000	0.611280 
548.000000	0.614980 
547.000000	0.618350 
546.000000	0.621449 
545.000000	0.624410 
544.000000	0.627130 
543.000000	0.629630 
542.000000	0.631820 
541.000000	0.633939 
540.000000	0.635470 
539.000000	0.637040 
538.000000	0.637760 
537.000000	0.638780 
536.000000	0.639160 
535.000000	0.639270 
534.000000	0.638950 
533.000000	0.638480 
532.000000	0.637430 
531.000000	0.635970 
530.000000	0.634050 
529.000000	0.632210 
528.000000	0.629880 
527.000000	0.627070 
526.000000	0.623860 
525.000000	0.620400 
524.000000	0.616510 
523.000000	0.612190 
522.000000	0.607330 
521.000000	0.602490 
520.000000	0.597160 
519.000000	0.591720 
518.000000	0.586230 
517.000000	0.580080 
516.000000	0.573720 
515.000000	0.567100 
514.000000	0.559690 
513.000000	0.552560 
512.000000	0.544790 
511.000000	0.536850 
510.000000	0.528750 
509.000000	0.520530 
508.000000	0.512290 
507.000000	0.503690 
506.000000	0.494770 
505.000000	0.485870 
504.000000	0.476350 
503.000000	0.466660 
502.000000	0.456930 
501.000000	0.447060 
500.000000	0.437220 
499.000000	0.427260 
498.000000	0.417440 
497.000000	0.407730 
496.000000	0.397800 
495.000000	0.387790 
494.000000	0.377500 
493.000000	0.367700 
492.000000	0.357830 
491.000000	0.347860 
490.000000	0.338170 
489.000000	0.328950 
488.000000	0.320030 
487.000000	0.310940 
486.000000	0.301810 
485.000000	0.292470 
484.000000	0.283360 
483.000000	0.274370 
482.000000	0.265410 
481.000000	0.256890 
480.000000	0.248820 
479.000000	0.240910 
478.000000	0.233360 
477.000000	0.225610 
476.000000	0.218220 
475.000000	0.210670 
474.000000	0.203200 
473.000000	0.196320 
472.000000	0.189790 
471.000000	0.183190 
470.000000	0.177410 
469.000000	0.171460 
468.000000	0.166140 
467.000000	0.161030 
466.000000	0.155740 
465.000000	0.151060 
464.000000	0.146780 
463.000000	0.142370 
462.000000	0.138820 
461.000000	0.135640 
460.000000	0.132510 
459.000000	0.129740 
458.000000	0.127680 
457.000000	0.125460 
456.000000	0.123650 
455.000000	0.122220 
454.000000	0.121050 
453.000000	0.120450 
452.000000	0.120130 
451.000000	0.119910 
450.000000	0.120220 
449.000000	0.120900 
448.000000	0.121920 
447.000000	0.123480 
446.000000	0.125470 
445.000000	0.127870 
444.000000	0.130380 
443.000000	0.133720 
442.000000	0.137200 
441.000000	0.141370 
440.000000	0.145750 
439.000000	0.150790 
438.000000	0.156280 
437.000000	0.161850 
436.000000	0.168180 
435.000000	0.175000 
434.000000	0.181800 
433.000000	0.189570 
432.000000	0.196580 
431.000000	0.204480 
430.000000	0.212860 
429.000000	0.221380 
428.000000	0.230480 
427.000000	0.240530 
426.000000	0.249800 
425.000000	0.260480 
424.000000	0.270590 
423.000000	0.281200 
422.000000	0.292020 
421.000000	0.303030 
420.000000	0.314070 
419.000000	0.325370 
418.000000	0.336910 
417.000000	0.349090 
416.000000	0.360950 
415.000000	0.372860 
414.000000	0.384780 
413.000000	0.396310 
412.000000	0.407690 
411.000000	0.419280 
410.000000	0.430970 
409.000000	0.442710 
408.000000	0.454490 
407.000000	0.465510 
406.000000	0.476070 
405.000000	0.486170 
404.000000	0.495620 
403.000000	0.504780 
402.000000	0.513300 
401.000000	0.521869 
400.000000	0.529660 

