PE UV                   SPECTRUM    ASCII       PEDS        1.60        
  -1
23MS255.SP
24/09/24
15:27:22.00
24/09/24
15:29:23.00


400.000000
1









4444

SCAN
1
1


0.0
480.0
2.00
MANUAL



UV/VIS




































#HDR
-1
-1
#GR
NM
A
0.00000011920928955078
0.0
700.000000
1.000000
301
8
0.222160
0.035150
#DATA
700.000000	0.035150 
699.000000	0.036660 
698.000000	0.038240 
697.000000	0.039630 
696.000000	0.041200 
695.000000	0.042880 
694.000000	0.044570 
693.000000	0.046260 
692.000000	0.048120 
691.000000	0.050000 
690.000000	0.051970 
689.000000	0.054020 
688.000000	0.055940 
687.000000	0.057930 
686.000000	0.060150 
685.000000	0.062270 
684.000000	0.064630 
683.000000	0.067720 
682.000000	0.070300 
681.000000	0.072850 
680.000000	0.075350 
679.000000	0.078080 
678.000000	0.080699 
677.000000	0.083349 
676.000000	0.086040 
675.000000	0.088780 
674.000000	0.091800 
673.000000	0.094680 
672.000000	0.097440 
671.000000	0.100450 
670.000000	0.103330 
669.000000	0.106300 
668.000000	0.109150 
667.000000	0.112080 
666.000000	0.114970 
665.000000	0.118110 
664.000000	0.121230 
663.000000	0.124500 
662.000000	0.127670 
661.000000	0.130810 
660.000000	0.134090 
659.000000	0.137230 
658.000000	0.140370 
657.000000	0.143490 
656.000000	0.146650 
655.000000	0.149870 
654.000000	0.153160 
653.000000	0.156390 
652.000000	0.159670 
651.000000	0.162870 
650.000000	0.166050 
649.000000	0.169060 
648.000000	0.172020 
647.000000	0.175000 
646.000000	0.177940 
645.000000	0.180880 
644.000000	0.183790 
643.000000	0.186610 
642.000000	0.189150 
641.000000	0.191750 
640.000000	0.194160 
639.000000	0.196380 
638.000000	0.198660 
637.000000	0.200830 
636.000000	0.202880 
635.000000	0.204880 
634.000000	0.206750 
633.000000	0.208710 
632.000000	0.210490 
631.000000	0.212090 
630.000000	0.213460 
629.000000	0.214810 
628.000000	0.216010 
627.000000	0.217200 
626.000000	0.218270 
625.000000	0.219250 
624.000000	0.220070 
623.000000	0.220830 
622.000000	0.221430 
621.000000	0.221690 
620.000000	0.221910 
619.000000	0.222160 
618.000000	0.222070 
617.000000	0.222030 
616.000000	0.221650 
615.000000	0.221170 
614.000000	0.220600 
613.000000	0.219790 
612.000000	0.219010 
611.000000	0.218090 
610.000000	0.217000 
609.000000	0.215810 
608.000000	0.214510 
607.000000	0.213130 
606.000000	0.211550 
605.000000	0.209880 
604.000000	0.208130 
603.000000	0.206350 
602.000000	0.204290 
601.000000	0.202210 
600.000000	0.200120 
599.000000	0.197820 
598.000000	0.195570 
597.000000	0.193050 
596.000000	0.190420 
595.000000	0.187730 
594.000000	0.185000 
593.000000	0.182220 
592.000000	0.179400 
591.000000	0.176520 
590.000000	0.173560 
589.000000	0.170550 
588.000000	0.167430 
587.000000	0.164210 
586.000000	0.161010 
585.000000	0.157700 
584.000000	0.154530 
583.000000	0.151400 
582.000000	0.148260 
581.000000	0.145170 
580.000000	0.142100 
579.000000	0.138930 
578.000000	0.135740 
577.000000	0.132640 
576.000000	0.129410 
575.000000	0.126230 
574.000000	0.123100 
573.000000	0.120050 
572.000000	0.117170 
571.000000	0.114130 
570.000000	0.111300 
569.000000	0.108360 
568.000000	0.105450 
567.000000	0.102580 
566.000000	0.099660 
565.000000	0.097100 
564.000000	0.094320 
563.000000	0.091829 
562.000000	0.089320 
561.000000	0.086840 
560.000000	0.084380 
559.000000	0.081840 
558.000000	0.079650 
557.000000	0.077240 
556.000000	0.074960 
555.000000	0.072870 
554.000000	0.070900 
553.000000	0.069120 
552.000000	0.067260 
551.000000	0.065670 
550.000000	0.063890 
549.000000	0.062330 
548.000000	0.060820 
547.000000	0.059300 
546.000000	0.058080 
545.000000	0.056710 
544.000000	0.055580 
543.000000	0.054480 
542.000000	0.053540 
541.000000	0.052540 
540.000000	0.051630 
539.000000	0.050800 
538.000000	0.050020 
537.000000	0.049350 
536.000000	0.048690 
535.000000	0.048340 
534.000000	0.047870 
533.000000	0.047390 
532.000000	0.046980 
531.000000	0.046860 
530.000000	0.046590 
529.000000	0.046510 
528.000000	0.046570 
527.000000	0.046570 
526.000000	0.046660 
525.000000	0.046910 
524.000000	0.047070 
523.000000	0.047410 
522.000000	0.047760 
521.000000	0.048180 
520.000000	0.048630 
519.000000	0.049230 
518.000000	0.049770 
517.000000	0.050520 
516.000000	0.051230 
515.000000	0.052000 
514.000000	0.052930 
513.000000	0.053760 
512.000000	0.054790 
511.000000	0.055870 
510.000000	0.057040 
509.000000	0.058320 
508.000000	0.059590 
507.000000	0.061150 
506.000000	0.062330 
505.000000	0.063850 
504.000000	0.065519 
503.000000	0.067230 
502.000000	0.068990 
501.000000	0.070670 
500.000000	0.072950 
499.000000	0.074860 
498.000000	0.077030 
497.000000	0.079089 
496.000000	0.081129 
495.000000	0.083430 
494.000000	0.085840 
493.000000	0.088140 
492.000000	0.090509 
491.000000	0.093020 
490.000000	0.095680 
489.000000	0.098210 
488.000000	0.100670 
487.000000	0.103400 
486.000000	0.105640 
485.000000	0.108190 
484.000000	0.111060 
483.000000	0.113780 
482.000000	0.116620 
481.000000	0.119610 
480.000000	0.122170 
479.000000	0.125060 
478.000000	0.127760 
477.000000	0.130380 
476.000000	0.133050 
475.000000	0.135640 
474.000000	0.138340 
473.000000	0.140910 
472.000000	0.143410 
471.000000	0.145930 
470.000000	0.148410 
469.000000	0.150850 
468.000000	0.152960 
467.000000	0.154980 
466.000000	0.156940 
465.000000	0.158870 
464.000000	0.160890 
463.000000	0.162810 
462.000000	0.164100 
461.000000	0.165760 
460.000000	0.167160 
459.000000	0.168520 
458.000000	0.169680 
457.000000	0.171010 
456.000000	0.172110 
455.000000	0.172900 
454.000000	0.173890 
453.000000	0.174370 
452.000000	0.175330 
451.000000	0.176040 
450.000000	0.176680 
449.000000	0.177130 
448.000000	0.177570 
447.000000	0.177960 
446.000000	0.178490 
445.000000	0.178990 
444.000000	0.179300 
443.000000	0.179680 
442.000000	0.180340 
441.000000	0.180680 
440.000000	0.181070 
439.000000	0.181900 
438.000000	0.182350 
437.000000	0.182810 
436.000000	0.183880 
435.000000	0.184440 
434.000000	0.184680 
433.000000	0.185880 
432.000000	0.186370 
431.000000	0.187360 
430.000000	0.188530 
429.000000	0.189240 
428.000000	0.190530 
427.000000	0.191670 
426.000000	0.192480 
425.000000	0.194090 
424.000000	0.195240 
423.000000	0.196620 
422.000000	0.198100 
421.000000	0.199770 
420.000000	0.201020 
419.000000	0.202180 
418.000000	0.203710 
417.000000	0.205090 
416.000000	0.206380 
415.000000	0.207610 
414.000000	0.208870 
413.000000	0.210040 
412.000000	0.210980 
411.000000	0.211920 
410.000000	0.212930 
409.000000	0.213840 
408.000000	0.214790 
407.000000	0.215440 
406.000000	0.216060 
405.000000	0.216520 
404.000000	0.217080 
403.000000	0.217460 
402.000000	0.217810 
401.000000	0.218210 
400.000000	0.218500 

