PE UV                   SPECTRUM    ASCII       PEDS        1.60        
  -1
23MS015.SP
24/10/21
15:14:47.00
24/10/21
15:16:38.00


400.000000
1









4444

SCAN
1
1


0.0
480.0
2.00
MANUAL



UV/VIS




































#HDR
-1
-1
#GR
NM
A
0.00000011920928955078
0.0
700.000000
1.000000
301
8
1.563960
0.272690
#DATA
700.000000	0.272690 
699.000000	0.282930 
698.000000	0.293090 
697.000000	0.303610 
696.000000	0.314570 
695.000000	0.326020 
694.000000	0.337590 
693.000000	0.349300 
692.000000	0.361540 
691.000000	0.374190 
690.000000	0.387590 
689.000000	0.401530 
688.000000	0.415810 
687.000000	0.430430 
686.000000	0.445370 
685.000000	0.460610 
684.000000	0.476110 
683.000000	0.493500 
682.000000	0.510180 
681.000000	0.527660 
680.000000	0.545730 
679.000000	0.563700 
678.000000	0.582520 
677.000000	0.601840 
676.000000	0.621020 
675.000000	0.640220 
674.000000	0.659450 
673.000000	0.679330 
672.000000	0.699340 
671.000000	0.719830 
670.000000	0.740370 
669.000000	0.760700 
668.000000	0.781380 
667.000000	0.802690 
666.000000	0.823490 
665.000000	0.844820 
664.000000	0.866060 
663.000000	0.887550 
662.000000	0.909190 
661.000000	0.931460 
660.000000	0.954000 
659.000000	0.976350 
658.000000	0.998650 
657.000000	1.021180 
656.000000	1.043160 
655.000000	1.064950 
654.000000	1.086580 
653.000000	1.108390 
652.000000	1.130530 
651.000000	1.152910 
650.000000	1.174660 
649.000000	1.197060 
648.000000	1.218460 
647.000000	1.239400 
646.000000	1.259490 
645.000000	1.279080 
644.000000	1.298370 
643.000000	1.317550 
642.000000	1.335760 
641.000000	1.354470 
640.000000	1.370970 
639.000000	1.387110 
638.000000	1.402550 
637.000000	1.417660 
636.000000	1.431880 
635.000000	1.445330 
634.000000	1.457770 
633.000000	1.471030 
632.000000	1.483130 
631.000000	1.495070 
630.000000	1.505320 
629.000000	1.514620 
628.000000	1.523620 
627.000000	1.531130 
626.000000	1.537420 
625.000000	1.544050 
624.000000	1.549840 
623.000000	1.554930 
622.000000	1.558000 
621.000000	1.560820 
620.000000	1.562720 
619.000000	1.563960 
618.000000	1.562230 
617.000000	1.562620 
616.000000	1.559950 
615.000000	1.557240 
614.000000	1.552990 
613.000000	1.548390 
612.000000	1.542830 
611.000000	1.536380 
610.000000	1.527850 
609.000000	1.520420 
608.000000	1.512100 
607.000000	1.502650 
606.000000	1.492070 
605.000000	1.480690 
604.000000	1.468880 
603.000000	1.455650 
602.000000	1.441270 
601.000000	1.427610 
600.000000	1.412640 
599.000000	1.396990 
598.000000	1.380580 
597.000000	1.364010 
596.000000	1.347000 
595.000000	1.328410 
594.000000	1.309170 
593.000000	1.289950 
592.000000	1.269700 
591.000000	1.249490 
590.000000	1.228360 
589.000000	1.207430 
588.000000	1.185900 
587.000000	1.163740 
586.000000	1.141020 
585.000000	1.119630 
584.000000	1.097240 
583.000000	1.074980 
582.000000	1.053180 
581.000000	1.031790 
580.000000	1.009610 
579.000000	0.987900 
578.000000	0.966040 
577.000000	0.944750 
576.000000	0.922700 
575.000000	0.901280 
574.000000	0.879530 
573.000000	0.857560 
572.000000	0.836290 
571.000000	0.815320 
570.000000	0.794810 
569.000000	0.775320 
568.000000	0.755660 
567.000000	0.735980 
566.000000	0.716290 
565.000000	0.696870 
564.000000	0.677590 
563.000000	0.658880 
562.000000	0.640590 
561.000000	0.622950 
560.000000	0.606010 
559.000000	0.589390 
558.000000	0.571740 
557.000000	0.555630 
556.000000	0.539680 
555.000000	0.524850 
554.000000	0.510939 
553.000000	0.497920 
552.000000	0.485080 
551.000000	0.472770 
550.000000	0.461490 
549.000000	0.450340 
548.000000	0.439520 
547.000000	0.429570 
546.000000	0.420320 
545.000000	0.411390 
544.000000	0.402780 
543.000000	0.394760 
542.000000	0.387360 
541.000000	0.380710 
540.000000	0.374390 
539.000000	0.368780 
538.000000	0.363500 
537.000000	0.358790 
536.000000	0.354300 
535.000000	0.350390 
534.000000	0.347070 
533.000000	0.344160 
532.000000	0.341860 
531.000000	0.339890 
530.000000	0.338530 
529.000000	0.337560 
528.000000	0.337140 
527.000000	0.337080 
526.000000	0.337400 
525.000000	0.338550 
524.000000	0.339840 
523.000000	0.341600 
522.000000	0.343910 
521.000000	0.346720 
520.000000	0.349980 
519.000000	0.353570 
518.000000	0.357720 
517.000000	0.362170 
516.000000	0.367440 
515.000000	0.372950 
514.000000	0.379190 
513.000000	0.385680 
512.000000	0.392730 
511.000000	0.400140 
510.000000	0.408130 
509.000000	0.416480 
508.000000	0.425680 
507.000000	0.435280 
506.000000	0.445150 
505.000000	0.455950 
504.000000	0.467220 
503.000000	0.478570 
502.000000	0.490760 
501.000000	0.503210 
500.000000	0.516429 
499.000000	0.530320 
498.000000	0.544390 
497.000000	0.559540 
496.000000	0.575040 
495.000000	0.590860 
494.000000	0.606930 
493.000000	0.622900 
492.000000	0.639530 
491.000000	0.656290 
490.000000	0.673750 
489.000000	0.691340 
488.000000	0.709130 
487.000000	0.727500 
486.000000	0.746010 
485.000000	0.764989 
484.000000	0.783640 
483.000000	0.802390 
482.000000	0.820850 
481.000000	0.840750 
480.000000	0.859390 
479.000000	0.878260 
478.000000	0.898080 
477.000000	0.917070 
476.000000	0.935880 
475.000000	0.954040 
474.000000	0.971040 
473.000000	0.988830 
472.000000	1.006360 
471.000000	1.022500 
470.000000	1.039540 
469.000000	1.055020 
468.000000	1.071020 
467.000000	1.086040 
466.000000	1.098530 
465.000000	1.113200 
464.000000	1.126610 
463.000000	1.138350 
462.000000	1.148280 
461.000000	1.159810 
460.000000	1.168990 
459.000000	1.176800 
458.000000	1.185170 
457.000000	1.194410 
456.000000	1.201780 
455.000000	1.209080 
454.000000	1.213530 
453.000000	1.219310 
452.000000	1.223570 
451.000000	1.228080 
450.000000	1.229380 
449.000000	1.234910 
448.000000	1.239310 
447.000000	1.242680 
446.000000	1.244500 
445.000000	1.246780 
444.000000	1.250570 
443.000000	1.253990 
442.000000	1.251680 
441.000000	1.258130 
440.000000	1.261100 
439.000000	1.264430 
438.000000	1.267600 
437.000000	1.270370 
436.000000	1.273510 
435.000000	1.278140 
434.000000	1.279070 
433.000000	1.288380 
432.000000	1.293700 
431.000000	1.299420 
430.000000	1.304060 
429.000000	1.311820 
428.000000	1.316480 
427.000000	1.321640 
426.000000	1.326270 
425.000000	1.337490 
424.000000	1.344190 
423.000000	1.352970 
422.000000	1.361410 
421.000000	1.374940 
420.000000	1.382440 
419.000000	1.389610 
418.000000	1.396480 
417.000000	1.404650 
416.000000	1.411620 
415.000000	1.418330 
414.000000	1.424010 
413.000000	1.430180 
412.000000	1.436800 
411.000000	1.440960 
410.000000	1.443110 
409.000000	1.449770 
408.000000	1.453470 
407.000000	1.456320 
406.000000	1.458730 
405.000000	1.459380 
404.000000	1.461320 
403.000000	1.462860 
402.000000	1.459650 
401.000000	1.460520 
400.000000	1.462490 

