PE UV                   SPECTRUM    ASCII       PEDS        1.60        
  -1
23MS030.SP
24/10/21
15:08:09.00
24/10/21
15:09:28.00


400.000000
1









4444

SCAN
1
1


0.0
480.0
2.00
MANUAL



UV/VIS




































#HDR
-1
-1
#GR
NM
A
0.00000011920928955078
0.0
700.000000
1.000000
301
8
0.447500
0.017400
#DATA
700.000000	0.017400 
699.000000	0.017880 
698.000000	0.018540 
697.000000	0.019030 
696.000000	0.019500 
695.000000	0.020240 
694.000000	0.020750 
693.000000	0.021450 
692.000000	0.022100 
691.000000	0.022790 
690.000000	0.023600 
689.000000	0.024350 
688.000000	0.025190 
687.000000	0.026050 
686.000000	0.026830 
685.000000	0.027800 
684.000000	0.028740 
683.000000	0.029830 
682.000000	0.030730 
681.000000	0.031940 
680.000000	0.033170 
679.000000	0.034250 
678.000000	0.035460 
677.000000	0.036820 
676.000000	0.037950 
675.000000	0.039460 
674.000000	0.040820 
673.000000	0.042320 
672.000000	0.043910 
671.000000	0.045340 
670.000000	0.047020 
669.000000	0.048680 
668.000000	0.050390 
667.000000	0.051970 
666.000000	0.053810 
665.000000	0.055660 
664.000000	0.057580 
663.000000	0.059530 
662.000000	0.061610 
661.000000	0.063620 
660.000000	0.065879 
659.000000	0.068080 
658.000000	0.070340 
657.000000	0.072539 
656.000000	0.074899 
655.000000	0.077350 
654.000000	0.079940 
653.000000	0.082540 
652.000000	0.085160 
651.000000	0.088050 
650.000000	0.090810 
649.000000	0.093590 
648.000000	0.096510 
647.000000	0.099310 
646.000000	0.102250 
645.000000	0.105330 
644.000000	0.108530 
643.000000	0.111700 
642.000000	0.114820 
641.000000	0.117920 
640.000000	0.121100 
639.000000	0.124170 
638.000000	0.127120 
637.000000	0.130340 
636.000000	0.133540 
635.000000	0.136830 
634.000000	0.140250 
633.000000	0.143670 
632.000000	0.147140 
631.000000	0.150370 
630.000000	0.153740 
629.000000	0.156940 
628.000000	0.160300 
627.000000	0.163760 
626.000000	0.167040 
625.000000	0.170620 
624.000000	0.174230 
623.000000	0.177720 
622.000000	0.181230 
621.000000	0.184700 
620.000000	0.188140 
619.000000	0.191460 
618.000000	0.194980 
617.000000	0.198360 
616.000000	0.201770 
615.000000	0.205320 
614.000000	0.208980 
613.000000	0.212150 
612.000000	0.215200 
611.000000	0.218280 
610.000000	0.221490 
609.000000	0.224610 
608.000000	0.227670 
607.000000	0.230770 
606.000000	0.233880 
605.000000	0.237150 
604.000000	0.240300 
603.000000	0.243290 
602.000000	0.246410 
601.000000	0.249500 
600.000000	0.252470 
599.000000	0.255330 
598.000000	0.258450 
597.000000	0.261510 
596.000000	0.264720 
595.000000	0.267930 
594.000000	0.271040 
593.000000	0.274200 
592.000000	0.277350 
591.000000	0.280410 
590.000000	0.283570 
589.000000	0.286770 
588.000000	0.290050 
587.000000	0.293440 
586.000000	0.296950 
585.000000	0.300350 
584.000000	0.303630 
583.000000	0.307100 
582.000000	0.310310 
581.000000	0.313630 
580.000000	0.317040 
579.000000	0.320370 
578.000000	0.323800 
577.000000	0.327400 
576.000000	0.331090 
575.000000	0.334820 
574.000000	0.338470 
573.000000	0.342140 
572.000000	0.345720 
571.000000	0.349250 
570.000000	0.352960 
569.000000	0.356650 
568.000000	0.360480 
567.000000	0.364450 
566.000000	0.368350 
565.000000	0.372160 
564.000000	0.375890 
563.000000	0.379650 
562.000000	0.383330 
561.000000	0.387270 
560.000000	0.391090 
559.000000	0.394970 
558.000000	0.398550 
557.000000	0.402270 
556.000000	0.405870 
555.000000	0.409390 
554.000000	0.412550 
553.000000	0.415840 
552.000000	0.418950 
551.000000	0.421740 
550.000000	0.424660 
549.000000	0.427530 
548.000000	0.430120 
547.000000	0.432570 
546.000000	0.434690 
545.000000	0.436980 
544.000000	0.438930 
543.000000	0.440620 
542.000000	0.442160 
541.000000	0.443550 
540.000000	0.444740 
539.000000	0.445750 
538.000000	0.446450 
537.000000	0.447170 
536.000000	0.447390 
535.000000	0.447500 
534.000000	0.447360 
533.000000	0.446820 
532.000000	0.446240 
531.000000	0.445230 
530.000000	0.443940 
529.000000	0.442570 
528.000000	0.440890 
527.000000	0.438820 
526.000000	0.436490 
525.000000	0.434120 
524.000000	0.431320 
523.000000	0.428500 
522.000000	0.425170 
521.000000	0.421690 
520.000000	0.417880 
519.000000	0.414120 
518.000000	0.410080 
517.000000	0.405540 
516.000000	0.401070 
515.000000	0.396550 
514.000000	0.391520 
513.000000	0.386480 
512.000000	0.381340 
511.000000	0.375900 
510.000000	0.370030 
509.000000	0.364240 
508.000000	0.358160 
507.000000	0.351970 
506.000000	0.345550 
505.000000	0.339430 
504.000000	0.333100 
503.000000	0.326590 
502.000000	0.319840 
501.000000	0.312800 
500.000000	0.305760 
499.000000	0.298560 
498.000000	0.291460 
497.000000	0.284340 
496.000000	0.277600 
495.000000	0.270630 
494.000000	0.263810 
493.000000	0.256850 
492.000000	0.249960 
491.000000	0.243220 
490.000000	0.236090 
489.000000	0.229260 
488.000000	0.222840 
487.000000	0.216310 
486.000000	0.209800 
485.000000	0.203640 
484.000000	0.197400 
483.000000	0.191280 
482.000000	0.185050 
481.000000	0.179060 
480.000000	0.173220 
479.000000	0.167470 
478.000000	0.162030 
477.000000	0.156760 
476.000000	0.151400 
475.000000	0.146420 
474.000000	0.141380 
473.000000	0.136430 
472.000000	0.131760 
471.000000	0.126950 
470.000000	0.122660 
469.000000	0.118560 
468.000000	0.114770 
467.000000	0.111110 
466.000000	0.107510 
465.000000	0.104300 
464.000000	0.101070 
463.000000	0.098190 
462.000000	0.095610 
461.000000	0.093390 
460.000000	0.091170 
459.000000	0.089180 
458.000000	0.087380 
457.000000	0.086120 
456.000000	0.084760 
455.000000	0.083770 
454.000000	0.082960 
453.000000	0.082309 
452.000000	0.081970 
451.000000	0.081989 
450.000000	0.082350 
449.000000	0.082580 
448.000000	0.083169 
447.000000	0.084430 
446.000000	0.085550 
445.000000	0.087220 
444.000000	0.089090 
443.000000	0.091439 
442.000000	0.094030 
441.000000	0.096730 
440.000000	0.099720 
439.000000	0.103340 
438.000000	0.106740 
437.000000	0.110890 
436.000000	0.115020 
435.000000	0.119910 
434.000000	0.124740 
433.000000	0.130100 
432.000000	0.135320 
431.000000	0.140770 
430.000000	0.146860 
429.000000	0.152850 
428.000000	0.159230 
427.000000	0.165770 
426.000000	0.172610 
425.000000	0.179550 
424.000000	0.186860 
423.000000	0.194940 
422.000000	0.202360 
421.000000	0.209980 
420.000000	0.217880 
419.000000	0.225680 
418.000000	0.233580 
417.000000	0.241890 
416.000000	0.250150 
415.000000	0.258750 
414.000000	0.267210 
413.000000	0.275600 
412.000000	0.284210 
411.000000	0.292290 
410.000000	0.300200 
409.000000	0.308170 
408.000000	0.316400 
407.000000	0.323940 
406.000000	0.331560 
405.000000	0.338850 
404.000000	0.345800 
403.000000	0.352200 
402.000000	0.358220 
401.000000	0.364190 
400.000000	0.369860 

