PE UV                   SPECTRUM    ASCII       PEDS        1.60        
  -1
23MS082.SP
24/10/22
15:10:06.00
24/10/22
15:11:12.00


400.000000
1









4444

SCAN
1
1


0.0
480.0
2.00
MANUAL



UV/VIS




































#HDR
-1
-1
#GR
NM
A
0.00000011920928955078
0.0
700.000000
1.000000
301
8
0.641890
0.026730
#DATA
700.000000	0.026730 
699.000000	0.027620 
698.000000	0.028520 
697.000000	0.029350 
696.000000	0.030280 
695.000000	0.031390 
694.000000	0.032510 
693.000000	0.033650 
692.000000	0.034810 
691.000000	0.035880 
690.000000	0.037100 
689.000000	0.038370 
688.000000	0.039770 
687.000000	0.041190 
686.000000	0.042550 
685.000000	0.044150 
684.000000	0.045820 
683.000000	0.047950 
682.000000	0.049780 
681.000000	0.051590 
680.000000	0.053450 
679.000000	0.055340 
678.000000	0.057180 
677.000000	0.059240 
676.000000	0.061410 
675.000000	0.063640 
674.000000	0.065840 
673.000000	0.068260 
672.000000	0.070710 
671.000000	0.073200 
670.000000	0.075689 
669.000000	0.078260 
668.000000	0.080790 
667.000000	0.083570 
666.000000	0.086410 
665.000000	0.089450 
664.000000	0.092510 
663.000000	0.095800 
662.000000	0.098910 
661.000000	0.102060 
660.000000	0.105410 
659.000000	0.108770 
658.000000	0.112360 
657.000000	0.116000 
656.000000	0.119840 
655.000000	0.123670 
654.000000	0.127630 
653.000000	0.131590 
652.000000	0.135660 
651.000000	0.139840 
650.000000	0.144060 
649.000000	0.148400 
648.000000	0.152680 
647.000000	0.157330 
646.000000	0.161870 
645.000000	0.166610 
644.000000	0.171280 
643.000000	0.176210 
642.000000	0.180840 
641.000000	0.185400 
640.000000	0.190080 
639.000000	0.194820 
638.000000	0.199430 
637.000000	0.204220 
636.000000	0.209140 
635.000000	0.214030 
634.000000	0.218820 
633.000000	0.223800 
632.000000	0.228620 
631.000000	0.233450 
630.000000	0.238340 
629.000000	0.243320 
628.000000	0.248420 
627.000000	0.253490 
626.000000	0.258370 
625.000000	0.263460 
624.000000	0.268400 
623.000000	0.273340 
622.000000	0.278240 
621.000000	0.283210 
620.000000	0.287960 
619.000000	0.293020 
618.000000	0.298000 
617.000000	0.302960 
616.000000	0.307880 
615.000000	0.312750 
614.000000	0.317600 
613.000000	0.322090 
612.000000	0.326480 
611.000000	0.330780 
610.000000	0.335190 
609.000000	0.339600 
608.000000	0.344050 
607.000000	0.348450 
606.000000	0.352900 
605.000000	0.357180 
604.000000	0.361270 
603.000000	0.365350 
602.000000	0.369470 
601.000000	0.373570 
600.000000	0.377870 
599.000000	0.382100 
598.000000	0.386340 
597.000000	0.390510 
596.000000	0.394730 
595.000000	0.398790 
594.000000	0.402920 
593.000000	0.407030 
592.000000	0.411330 
591.000000	0.415600 
590.000000	0.420040 
589.000000	0.424480 
588.000000	0.429000 
587.000000	0.433430 
586.000000	0.437900 
585.000000	0.442340 
584.000000	0.446730 
583.000000	0.451250 
582.000000	0.455820 
581.000000	0.460310 
580.000000	0.464880 
579.000000	0.469490 
578.000000	0.474230 
577.000000	0.478990 
576.000000	0.483800 
575.000000	0.488640 
574.000000	0.493290 
573.000000	0.498160 
572.000000	0.503150 
571.000000	0.508159 
570.000000	0.513360 
569.000000	0.518420 
568.000000	0.523620 
567.000000	0.528750 
566.000000	0.533920 
565.000000	0.538920 
564.000000	0.544110 
563.000000	0.549280 
562.000000	0.554300 
561.000000	0.559780 
560.000000	0.564750 
559.000000	0.570040 
558.000000	0.575269 
557.000000	0.580319 
556.000000	0.585290 
555.000000	0.589830 
554.000000	0.594060 
553.000000	0.598639 
552.000000	0.602909 
551.000000	0.607070 
550.000000	0.611120 
549.000000	0.614930 
548.000000	0.618220 
547.000000	0.621620 
546.000000	0.624550 
545.000000	0.627700 
544.000000	0.630190 
543.000000	0.632460 
542.000000	0.634880 
541.000000	0.636870 
540.000000	0.638430 
539.000000	0.639670 
538.000000	0.640570 
537.000000	0.641520 
536.000000	0.641870 
535.000000	0.641890 
534.000000	0.641750 
533.000000	0.641160 
532.000000	0.639920 
531.000000	0.638720 
530.000000	0.636680 
529.000000	0.634650 
528.000000	0.632440 
527.000000	0.629480 
526.000000	0.626360 
525.000000	0.622839 
524.000000	0.618900 
523.000000	0.614720 
522.000000	0.609810 
521.000000	0.605129 
520.000000	0.599710 
519.000000	0.594220 
518.000000	0.588589 
517.000000	0.582620 
516.000000	0.576240 
515.000000	0.569680 
514.000000	0.562640 
513.000000	0.555200 
512.000000	0.547580 
511.000000	0.539770 
510.000000	0.531720 
509.000000	0.523710 
508.000000	0.515560 
507.000000	0.507100 
506.000000	0.498290 
505.000000	0.489210 
504.000000	0.479900 
503.000000	0.470560 
502.000000	0.461040 
501.000000	0.451300 
500.000000	0.441400 
499.000000	0.431940 
498.000000	0.422350 
497.000000	0.412850 
496.000000	0.403130 
495.000000	0.393060 
494.000000	0.383130 
493.000000	0.373470 
492.000000	0.363640 
491.000000	0.354110 
490.000000	0.344770 
489.000000	0.335790 
488.000000	0.326870 
487.000000	0.318040 
486.000000	0.309160 
485.000000	0.300100 
484.000000	0.291080 
483.000000	0.282490 
482.000000	0.273970 
481.000000	0.265750 
480.000000	0.257850 
479.000000	0.250230 
478.000000	0.242820 
477.000000	0.235330 
476.000000	0.228050 
475.000000	0.220690 
474.000000	0.213790 
473.000000	0.206920 
472.000000	0.200680 
471.000000	0.194510 
470.000000	0.188530 
469.000000	0.183100 
468.000000	0.178060 
467.000000	0.172800 
466.000000	0.167750 
465.000000	0.163310 
464.000000	0.159170 
463.000000	0.154950 
462.000000	0.151720 
461.000000	0.148570 
460.000000	0.145740 
459.000000	0.143060 
458.000000	0.140800 
457.000000	0.138860 
456.000000	0.137250 
455.000000	0.135710 
454.000000	0.134780 
453.000000	0.134010 
452.000000	0.133800 
451.000000	0.133670 
450.000000	0.134110 
449.000000	0.134980 
448.000000	0.135920 
447.000000	0.137400 
446.000000	0.139440 
445.000000	0.141800 
444.000000	0.144760 
443.000000	0.147940 
442.000000	0.151790 
441.000000	0.155890 
440.000000	0.160200 
439.000000	0.165280 
438.000000	0.170610 
437.000000	0.176640 
436.000000	0.182780 
435.000000	0.189920 
434.000000	0.196730 
433.000000	0.204290 
432.000000	0.211870 
431.000000	0.219800 
430.000000	0.228070 
429.000000	0.236810 
428.000000	0.246510 
427.000000	0.256300 
426.000000	0.266190 
425.000000	0.276690 
424.000000	0.286900 
423.000000	0.298000 
422.000000	0.308250 
421.000000	0.318040 
420.000000	0.329390 
419.000000	0.341170 
418.000000	0.353020 
417.000000	0.365070 
416.000000	0.377110 
415.000000	0.389440 
414.000000	0.401560 
413.000000	0.413180 
412.000000	0.424860 
411.000000	0.436690 
410.000000	0.448410 
409.000000	0.460350 
408.000000	0.472240 
407.000000	0.483440 
406.000000	0.494020 
405.000000	0.504300 
404.000000	0.513930 
403.000000	0.523130 
402.000000	0.531880 
401.000000	0.540320 
400.000000	0.548350 

