PE UV                   SPECTRUM    ASCII       PEDS        1.60        
  -1
23MS254.SP
24/10/18
16:08:38.00
24/10/18
16:11:55.00


400.000000
1









4444

SCAN
1
1


0.0
480.0
2.00
MANUAL



UV/VIS




































#HDR
-1
-1
#GR
NM
A
0.00000011920928955078
0.0
700.000000
1.000000
301
8
0.376220
0.021670
#DATA
700.000000	0.021670 
699.000000	0.022080 
698.000000	0.022430 
697.000000	0.022960 
696.000000	0.023390 
695.000000	0.023870 
694.000000	0.024410 
693.000000	0.024960 
692.000000	0.025560 
691.000000	0.026150 
690.000000	0.026800 
689.000000	0.027470 
688.000000	0.028200 
687.000000	0.028850 
686.000000	0.029390 
685.000000	0.030200 
684.000000	0.031020 
683.000000	0.031870 
682.000000	0.032910 
681.000000	0.033750 
680.000000	0.034610 
679.000000	0.035740 
678.000000	0.036730 
677.000000	0.037870 
676.000000	0.038850 
675.000000	0.039910 
674.000000	0.041210 
673.000000	0.042390 
672.000000	0.043540 
671.000000	0.044940 
670.000000	0.046210 
669.000000	0.047550 
668.000000	0.048910 
667.000000	0.050370 
666.000000	0.051650 
665.000000	0.053280 
664.000000	0.054790 
663.000000	0.056460 
662.000000	0.058190 
661.000000	0.059980 
660.000000	0.061690 
659.000000	0.063620 
658.000000	0.065330 
657.000000	0.067200 
656.000000	0.069170 
655.000000	0.071160 
654.000000	0.073340 
653.000000	0.075300 
652.000000	0.077710 
651.000000	0.079940 
650.000000	0.082290 
649.000000	0.084590 
648.000000	0.086870 
647.000000	0.089200 
646.000000	0.091600 
645.000000	0.094220 
644.000000	0.096809 
643.000000	0.099320 
642.000000	0.101880 
641.000000	0.104510 
640.000000	0.106950 
639.000000	0.109480 
638.000000	0.111940 
637.000000	0.114510 
636.000000	0.117020 
635.000000	0.119810 
634.000000	0.122480 
633.000000	0.125290 
632.000000	0.128150 
631.000000	0.130810 
630.000000	0.133500 
629.000000	0.136290 
628.000000	0.138930 
627.000000	0.141750 
626.000000	0.144520 
625.000000	0.147320 
624.000000	0.150200 
623.000000	0.153130 
622.000000	0.155970 
621.000000	0.158930 
620.000000	0.161760 
619.000000	0.164320 
618.000000	0.167030 
617.000000	0.169950 
616.000000	0.172920 
615.000000	0.175740 
614.000000	0.178590 
613.000000	0.181270 
612.000000	0.183840 
611.000000	0.186390 
610.000000	0.189060 
609.000000	0.191720 
608.000000	0.194210 
607.000000	0.196730 
606.000000	0.199360 
605.000000	0.202020 
604.000000	0.204490 
603.000000	0.207100 
602.000000	0.209630 
601.000000	0.212160 
600.000000	0.214590 
599.000000	0.217050 
598.000000	0.219630 
597.000000	0.222300 
596.000000	0.224690 
595.000000	0.227420 
594.000000	0.230050 
593.000000	0.232690 
592.000000	0.235300 
591.000000	0.237880 
590.000000	0.240620 
589.000000	0.243190 
588.000000	0.245860 
587.000000	0.248830 
586.000000	0.251720 
585.000000	0.254550 
584.000000	0.257350 
583.000000	0.260060 
582.000000	0.262920 
581.000000	0.265510 
580.000000	0.268370 
579.000000	0.271140 
578.000000	0.273950 
577.000000	0.277020 
576.000000	0.280080 
575.000000	0.283030 
574.000000	0.286050 
573.000000	0.289010 
572.000000	0.291990 
571.000000	0.295020 
570.000000	0.297840 
569.000000	0.301030 
568.000000	0.304300 
567.000000	0.307390 
566.000000	0.310540 
565.000000	0.313650 
564.000000	0.316910 
563.000000	0.320040 
562.000000	0.323150 
561.000000	0.326160 
560.000000	0.329260 
559.000000	0.332380 
558.000000	0.335620 
557.000000	0.338670 
556.000000	0.341770 
555.000000	0.344560 
554.000000	0.347210 
553.000000	0.349830 
552.000000	0.352240 
551.000000	0.354840 
550.000000	0.357230 
549.000000	0.359500 
548.000000	0.361770 
547.000000	0.363730 
546.000000	0.365520 
545.000000	0.367400 
544.000000	0.368880 
543.000000	0.370290 
542.000000	0.371530 
541.000000	0.372780 
540.000000	0.373860 
539.000000	0.374650 
538.000000	0.375190 
537.000000	0.375850 
536.000000	0.376000 
535.000000	0.376220 
534.000000	0.376080 
533.000000	0.375840 
532.000000	0.375250 
531.000000	0.374540 
530.000000	0.373530 
529.000000	0.372480 
528.000000	0.371180 
527.000000	0.369570 
526.000000	0.367690 
525.000000	0.365810 
524.000000	0.363550 
523.000000	0.361250 
522.000000	0.358610 
521.000000	0.355890 
520.000000	0.352770 
519.000000	0.349590 
518.000000	0.346420 
517.000000	0.342960 
516.000000	0.339300 
515.000000	0.335510 
514.000000	0.331590 
513.000000	0.327430 
512.000000	0.323200 
511.000000	0.318810 
510.000000	0.314160 
509.000000	0.309320 
508.000000	0.304300 
507.000000	0.299290 
506.000000	0.294360 
505.000000	0.289220 
504.000000	0.284010 
503.000000	0.278610 
502.000000	0.273220 
501.000000	0.267410 
500.000000	0.261880 
499.000000	0.255790 
498.000000	0.250280 
497.000000	0.244390 
496.000000	0.238750 
495.000000	0.233180 
494.000000	0.227480 
493.000000	0.221990 
492.000000	0.216420 
491.000000	0.210620 
490.000000	0.204960 
489.000000	0.199650 
488.000000	0.194420 
487.000000	0.189050 
486.000000	0.183890 
485.000000	0.178570 
484.000000	0.173390 
483.000000	0.168370 
482.000000	0.163240 
481.000000	0.158250 
480.000000	0.153640 
479.000000	0.148780 
478.000000	0.144380 
477.000000	0.140010 
476.000000	0.135650 
475.000000	0.131610 
474.000000	0.127510 
473.000000	0.123450 
472.000000	0.119650 
471.000000	0.115700 
470.000000	0.112320 
469.000000	0.108690 
468.000000	0.105750 
467.000000	0.102730 
466.000000	0.099900 
465.000000	0.097150 
464.000000	0.094800 
463.000000	0.092270 
462.000000	0.090130 
461.000000	0.088440 
460.000000	0.086700 
459.000000	0.084900 
458.000000	0.083820 
457.000000	0.082419 
456.000000	0.081460 
455.000000	0.080640 
454.000000	0.079990 
453.000000	0.079620 
452.000000	0.079470 
451.000000	0.079280 
450.000000	0.079540 
449.000000	0.079720 
448.000000	0.080330 
447.000000	0.081120 
446.000000	0.082090 
445.000000	0.083790 
444.000000	0.085000 
443.000000	0.087060 
442.000000	0.089000 
441.000000	0.091290 
440.000000	0.094150 
439.000000	0.096960 
438.000000	0.100310 
437.000000	0.103170 
436.000000	0.106770 
435.000000	0.110760 
434.000000	0.114660 
433.000000	0.119020 
432.000000	0.123120 
431.000000	0.127740 
430.000000	0.132670 
429.000000	0.137670 
428.000000	0.142420 
427.000000	0.148090 
426.000000	0.153540 
425.000000	0.159320 
424.000000	0.165370 
423.000000	0.171590 
422.000000	0.177940 
421.000000	0.184580 
420.000000	0.190950 
419.000000	0.197250 
418.000000	0.203700 
417.000000	0.210640 
416.000000	0.217280 
415.000000	0.224180 
414.000000	0.231200 
413.000000	0.238130 
412.000000	0.244960 
411.000000	0.251720 
410.000000	0.258290 
409.000000	0.264820 
408.000000	0.271490 
407.000000	0.278070 
406.000000	0.284160 
405.000000	0.290260 
404.000000	0.295680 
403.000000	0.301050 
402.000000	0.306210 
401.000000	0.311120 
400.000000	0.315680 

