PE UV                   SPECTRUM    ASCII       PEDS        1.60        
  -1
23MS121.SP
24/09/12
15:44:23.00
24/09/12
15:45:33.00


400.000000
1









4444

SCAN
1
1


0.0
480.0
2.00
MANUAL



UV/VIS




































#HDR
-1
-1
#GR
NM
A
0.00000011920928955078
0.0
700.000000
1.000000
301
8
0.660160
0.012010
#DATA
700.000000	0.012010 
699.000000	0.012160 
698.000000	0.012210 
697.000000	0.012230 
696.000000	0.012220 
695.000000	0.012290 
694.000000	0.012350 
693.000000	0.012280 
692.000000	0.012250 
691.000000	0.012370 
690.000000	0.012440 
689.000000	0.012520 
688.000000	0.012540 
687.000000	0.012590 
686.000000	0.012690 
685.000000	0.012690 
684.000000	0.012700 
683.000000	0.012640 
682.000000	0.012730 
681.000000	0.012910 
680.000000	0.012930 
679.000000	0.012910 
678.000000	0.013000 
677.000000	0.013070 
676.000000	0.012990 
675.000000	0.013030 
674.000000	0.013140 
673.000000	0.013140 
672.000000	0.013240 
671.000000	0.013250 
670.000000	0.013200 
669.000000	0.013280 
668.000000	0.013360 
667.000000	0.013430 
666.000000	0.013480 
665.000000	0.013540 
664.000000	0.013630 
663.000000	0.013630 
662.000000	0.013670 
661.000000	0.013580 
660.000000	0.013720 
659.000000	0.013800 
658.000000	0.013840 
657.000000	0.013900 
656.000000	0.013950 
655.000000	0.014000 
654.000000	0.014010 
653.000000	0.014090 
652.000000	0.014150 
651.000000	0.014300 
650.000000	0.014390 
649.000000	0.014430 
648.000000	0.014550 
647.000000	0.014520 
646.000000	0.014640 
645.000000	0.014770 
644.000000	0.014790 
643.000000	0.014910 
642.000000	0.014860 
641.000000	0.015050 
640.000000	0.015130 
639.000000	0.015180 
638.000000	0.015230 
637.000000	0.015370 
636.000000	0.015350 
635.000000	0.015520 
634.000000	0.015600 
633.000000	0.015800 
632.000000	0.015820 
631.000000	0.015850 
630.000000	0.015980 
629.000000	0.016020 
628.000000	0.016160 
627.000000	0.016320 
626.000000	0.016410 
625.000000	0.016520 
624.000000	0.016600 
623.000000	0.016810 
622.000000	0.016900 
621.000000	0.017110 
620.000000	0.017120 
619.000000	0.017280 
618.000000	0.017380 
617.000000	0.017460 
616.000000	0.017740 
615.000000	0.017920 
614.000000	0.018050 
613.000000	0.018130 
612.000000	0.018280 
611.000000	0.018380 
610.000000	0.018610 
609.000000	0.018650 
608.000000	0.018850 
607.000000	0.018910 
606.000000	0.019160 
605.000000	0.019380 
604.000000	0.019590 
603.000000	0.019780 
602.000000	0.019980 
601.000000	0.020110 
600.000000	0.020290 
599.000000	0.020450 
598.000000	0.020650 
597.000000	0.020860 
596.000000	0.021210 
595.000000	0.021320 
594.000000	0.021610 
593.000000	0.021800 
592.000000	0.022080 
591.000000	0.022260 
590.000000	0.022470 
589.000000	0.022710 
588.000000	0.022940 
587.000000	0.023240 
586.000000	0.023530 
585.000000	0.023780 
584.000000	0.024020 
583.000000	0.024280 
582.000000	0.024630 
581.000000	0.024840 
580.000000	0.025120 
579.000000	0.025420 
578.000000	0.025790 
577.000000	0.026050 
576.000000	0.026400 
575.000000	0.026780 
574.000000	0.027160 
573.000000	0.027470 
572.000000	0.027690 
571.000000	0.028160 
570.000000	0.028570 
569.000000	0.028930 
568.000000	0.029380 
567.000000	0.029730 
566.000000	0.030230 
565.000000	0.030710 
564.000000	0.031240 
563.000000	0.031810 
562.000000	0.032300 
561.000000	0.032870 
560.000000	0.033540 
559.000000	0.034380 
558.000000	0.035160 
557.000000	0.036000 
556.000000	0.036740 
555.000000	0.037520 
554.000000	0.038430 
553.000000	0.039420 
552.000000	0.040320 
551.000000	0.041210 
550.000000	0.042290 
549.000000	0.043440 
548.000000	0.044780 
547.000000	0.045930 
546.000000	0.047490 
545.000000	0.048750 
544.000000	0.050260 
543.000000	0.051850 
542.000000	0.053460 
541.000000	0.055250 
540.000000	0.057360 
539.000000	0.059280 
538.000000	0.061430 
537.000000	0.063820 
536.000000	0.066390 
535.000000	0.068900 
534.000000	0.071580 
533.000000	0.074500 
532.000000	0.077510 
531.000000	0.080940 
530.000000	0.084620 
529.000000	0.088350 
528.000000	0.092380 
527.000000	0.096570 
526.000000	0.100920 
525.000000	0.105270 
524.000000	0.109950 
523.000000	0.114980 
522.000000	0.120040 
521.000000	0.125540 
520.000000	0.131480 
519.000000	0.137390 
518.000000	0.143400 
517.000000	0.149760 
516.000000	0.156340 
515.000000	0.163120 
514.000000	0.170010 
513.000000	0.177440 
512.000000	0.185180 
511.000000	0.193250 
510.000000	0.201800 
509.000000	0.210570 
508.000000	0.219440 
507.000000	0.228470 
506.000000	0.237520 
505.000000	0.247180 
504.000000	0.256990 
503.000000	0.267140 
502.000000	0.277610 
501.000000	0.288760 
500.000000	0.299930 
499.000000	0.311530 
498.000000	0.322750 
497.000000	0.334330 
496.000000	0.345640 
495.000000	0.357250 
494.000000	0.369230 
493.000000	0.381030 
492.000000	0.393010 
491.000000	0.404830 
490.000000	0.417210 
489.000000	0.429180 
488.000000	0.440750 
487.000000	0.452140 
486.000000	0.463180 
485.000000	0.474410 
484.000000	0.486130 
483.000000	0.497290 
482.000000	0.508329 
481.000000	0.519780 
480.000000	0.530420 
479.000000	0.540880 
478.000000	0.550800 
477.000000	0.560600 
476.000000	0.569820 
475.000000	0.578940 
474.000000	0.587640 
473.000000	0.596120 
472.000000	0.604420 
471.000000	0.612569 
470.000000	0.619490 
469.000000	0.626000 
468.000000	0.631810 
467.000000	0.637080 
466.000000	0.641650 
465.000000	0.646259 
464.000000	0.650470 
463.000000	0.653710 
462.000000	0.655890 
461.000000	0.657960 
460.000000	0.659410 
459.000000	0.660160 
458.000000	0.660020 
457.000000	0.660010 
456.000000	0.659260 
455.000000	0.658010 
454.000000	0.656050 
453.000000	0.653030 
452.000000	0.650380 
451.000000	0.646620 
450.000000	0.641989 
449.000000	0.637780 
448.000000	0.632560 
447.000000	0.626770 
446.000000	0.620730 
445.000000	0.613810 
444.000000	0.606470 
443.000000	0.598730 
442.000000	0.590320 
441.000000	0.581940 
440.000000	0.573170 
439.000000	0.563990 
438.000000	0.554480 
437.000000	0.545000 
436.000000	0.534800 
435.000000	0.524720 
434.000000	0.513610 
433.000000	0.503260 
432.000000	0.492620 
431.000000	0.482770 
430.000000	0.471800 
429.000000	0.461180 
428.000000	0.450390 
427.000000	0.439080 
426.000000	0.427880 
425.000000	0.417170 
424.000000	0.405700 
423.000000	0.394870 
422.000000	0.383890 
421.000000	0.373760 
420.000000	0.363550 
419.000000	0.353270 
418.000000	0.343120 
417.000000	0.332720 
416.000000	0.322570 
415.000000	0.312530 
414.000000	0.302940 
413.000000	0.293430 
412.000000	0.284380 
411.000000	0.275740 
410.000000	0.267100 
409.000000	0.259290 
408.000000	0.251300 
407.000000	0.243920 
406.000000	0.237350 
405.000000	0.231570 
404.000000	0.225910 
403.000000	0.221070 
402.000000	0.216920 
401.000000	0.213540 
400.000000	0.210680 

