PE UV                   SPECTRUM    ASCII       PEDS        1.60        
  -1
23MS119.SP
24/09/12
15:33:20.00
24/09/12
15:34:29.00


400.000000
1









4444

SCAN
1
1


0.0
480.0
2.00
MANUAL



UV/VIS




































#HDR
-1
-1
#GR
NM
A
0.00000011920928955078
0.0
700.000000
1.000000
301
8
0.448380
0.006010
#DATA
700.000000	0.006500 
699.000000	0.006550 
698.000000	0.006670 
697.000000	0.006680 
696.000000	0.006670 
695.000000	0.006590 
694.000000	0.006680 
693.000000	0.006560 
692.000000	0.006400 
691.000000	0.006480 
690.000000	0.006460 
689.000000	0.006460 
688.000000	0.006450 
687.000000	0.006390 
686.000000	0.006480 
685.000000	0.006330 
684.000000	0.006020 
683.000000	0.006010 
682.000000	0.006030 
681.000000	0.006210 
680.000000	0.006080 
679.000000	0.006170 
678.000000	0.006260 
677.000000	0.006280 
676.000000	0.006260 
675.000000	0.006180 
674.000000	0.006270 
673.000000	0.006240 
672.000000	0.006300 
671.000000	0.006260 
670.000000	0.006280 
669.000000	0.006360 
668.000000	0.006330 
667.000000	0.006450 
666.000000	0.006480 
665.000000	0.006480 
664.000000	0.006490 
663.000000	0.006610 
662.000000	0.006670 
661.000000	0.006700 
660.000000	0.006730 
659.000000	0.006820 
658.000000	0.006930 
657.000000	0.006890 
656.000000	0.006960 
655.000000	0.006990 
654.000000	0.007050 
653.000000	0.007120 
652.000000	0.007210 
651.000000	0.007270 
650.000000	0.007460 
649.000000	0.007460 
648.000000	0.007470 
647.000000	0.007580 
646.000000	0.007700 
645.000000	0.007840 
644.000000	0.007880 
643.000000	0.008000 
642.000000	0.007970 
641.000000	0.008170 
640.000000	0.008260 
639.000000	0.008350 
638.000000	0.008460 
637.000000	0.008590 
636.000000	0.008619 
635.000000	0.008800 
634.000000	0.008980 
633.000000	0.009220 
632.000000	0.009259 
631.000000	0.009379 
630.000000	0.009560 
629.000000	0.009700 
628.000000	0.009820 
627.000000	0.010040 
626.000000	0.010280 
625.000000	0.010460 
624.000000	0.010680 
623.000000	0.011060 
622.000000	0.011150 
621.000000	0.011450 
620.000000	0.011630 
619.000000	0.011890 
618.000000	0.012130 
617.000000	0.012380 
616.000000	0.012720 
615.000000	0.013070 
614.000000	0.013450 
613.000000	0.013650 
612.000000	0.014060 
611.000000	0.014300 
610.000000	0.014650 
609.000000	0.014920 
608.000000	0.015310 
607.000000	0.015660 
606.000000	0.016140 
605.000000	0.016540 
604.000000	0.017020 
603.000000	0.017510 
602.000000	0.017960 
601.000000	0.018310 
600.000000	0.018920 
599.000000	0.019270 
598.000000	0.019910 
597.000000	0.020430 
596.000000	0.021000 
595.000000	0.021630 
594.000000	0.022220 
593.000000	0.022890 
592.000000	0.023550 
591.000000	0.024230 
590.000000	0.024830 
589.000000	0.025550 
588.000000	0.026360 
587.000000	0.027210 
586.000000	0.027980 
585.000000	0.028870 
584.000000	0.029690 
583.000000	0.030490 
582.000000	0.031380 
581.000000	0.032220 
580.000000	0.033070 
579.000000	0.034090 
578.000000	0.035070 
577.000000	0.035950 
576.000000	0.036990 
575.000000	0.037950 
574.000000	0.038970 
573.000000	0.040000 
572.000000	0.040950 
571.000000	0.042000 
570.000000	0.043050 
569.000000	0.044080 
568.000000	0.045210 
567.000000	0.046320 
566.000000	0.047550 
565.000000	0.048640 
564.000000	0.049950 
563.000000	0.051250 
562.000000	0.052470 
561.000000	0.053690 
560.000000	0.055380 
559.000000	0.057210 
558.000000	0.058700 
557.000000	0.060280 
556.000000	0.061870 
555.000000	0.063310 
554.000000	0.064910 
553.000000	0.066600 
552.000000	0.068150 
551.000000	0.069779 
550.000000	0.071550 
549.000000	0.073270 
548.000000	0.075130 
547.000000	0.076799 
546.000000	0.078720 
545.000000	0.080519 
544.000000	0.082360 
543.000000	0.084300 
542.000000	0.086220 
541.000000	0.088250 
540.000000	0.090420 
539.000000	0.092490 
538.000000	0.094659 
537.000000	0.097000 
536.000000	0.099500 
535.000000	0.101830 
534.000000	0.104300 
533.000000	0.106950 
532.000000	0.109650 
531.000000	0.112620 
530.000000	0.115530 
529.000000	0.118700 
528.000000	0.122030 
527.000000	0.125410 
526.000000	0.128930 
525.000000	0.132340 
524.000000	0.135920 
523.000000	0.139660 
522.000000	0.143410 
521.000000	0.147400 
520.000000	0.151740 
519.000000	0.156040 
518.000000	0.160220 
517.000000	0.164750 
516.000000	0.169330 
515.000000	0.173950 
514.000000	0.178550 
513.000000	0.183410 
512.000000	0.188630 
511.000000	0.193930 
510.000000	0.199400 
509.000000	0.204950 
508.000000	0.210700 
507.000000	0.216480 
506.000000	0.222150 
505.000000	0.228230 
504.000000	0.234350 
503.000000	0.240430 
502.000000	0.246690 
501.000000	0.253430 
500.000000	0.260190 
499.000000	0.267140 
498.000000	0.273770 
497.000000	0.280780 
496.000000	0.287340 
495.000000	0.294280 
494.000000	0.301010 
493.000000	0.307920 
492.000000	0.314780 
491.000000	0.321500 
490.000000	0.328610 
489.000000	0.335140 
488.000000	0.341690 
487.000000	0.348190 
486.000000	0.354380 
485.000000	0.360510 
484.000000	0.366630 
483.000000	0.372670 
482.000000	0.378500 
481.000000	0.384710 
480.000000	0.390380 
479.000000	0.395810 
478.000000	0.401140 
477.000000	0.406170 
476.000000	0.410970 
475.000000	0.415430 
474.000000	0.419520 
473.000000	0.423900 
472.000000	0.427740 
471.000000	0.431260 
470.000000	0.434820 
469.000000	0.437630 
468.000000	0.440210 
467.000000	0.442290 
466.000000	0.443960 
465.000000	0.445570 
464.000000	0.446710 
463.000000	0.447740 
462.000000	0.448120 
461.000000	0.448380 
460.000000	0.447410 
459.000000	0.447330 
458.000000	0.445970 
457.000000	0.444740 
456.000000	0.442900 
455.000000	0.441270 
454.000000	0.438800 
453.000000	0.436210 
452.000000	0.433330 
451.000000	0.430130 
450.000000	0.426220 
449.000000	0.422380 
448.000000	0.418210 
447.000000	0.413580 
446.000000	0.408960 
445.000000	0.403830 
444.000000	0.398510 
443.000000	0.392730 
442.000000	0.386680 
441.000000	0.381180 
440.000000	0.375070 
439.000000	0.368590 
438.000000	0.362220 
437.000000	0.355770 
436.000000	0.349290 
435.000000	0.342740 
434.000000	0.335470 
433.000000	0.328930 
432.000000	0.322660 
431.000000	0.315830 
430.000000	0.309290 
429.000000	0.303310 
428.000000	0.296450 
427.000000	0.289970 
426.000000	0.283710 
425.000000	0.277490 
424.000000	0.271560 
423.000000	0.265140 
422.000000	0.259440 
421.000000	0.253900 
420.000000	0.248640 
419.000000	0.243590 
418.000000	0.238830 
417.000000	0.234150 
416.000000	0.229880 
415.000000	0.225620 
414.000000	0.221920 
413.000000	0.218460 
412.000000	0.215310 
411.000000	0.212640 
410.000000	0.210160 
409.000000	0.208240 
408.000000	0.206690 
407.000000	0.205670 
406.000000	0.205100 
405.000000	0.205120 
404.000000	0.205420 
403.000000	0.206320 
402.000000	0.207870 
401.000000	0.209970 
400.000000	0.212510 

