PE UV                   SPECTRUM    ASCII       PEDS        1.60        
  -1
23MS202.SP
24/09/09
16:10:32.00
24/09/09
16:11:49.00


400.000000
1









4444

SCAN
1
1


0.0
480.0
2.00
MANUAL



UV/VIS




































#HDR
-1
-1
#GR
NM
A
0.00000011920928955078
0.0
700.000000
1.000000
301
8
0.401010
0.003040
#DATA
700.000000	0.003220 
699.000000	0.003230 
698.000000	0.003180 
697.000000	0.003250 
696.000000	0.003270 
695.000000	0.003230 
694.000000	0.003150 
693.000000	0.003130 
692.000000	0.003180 
691.000000	0.003280 
690.000000	0.003260 
689.000000	0.003180 
688.000000	0.003200 
687.000000	0.003040 
686.000000	0.003100 
685.000000	0.003380 
684.000000	0.003450 
683.000000	0.003430 
682.000000	0.003480 
681.000000	0.003440 
680.000000	0.003500 
679.000000	0.003470 
678.000000	0.003410 
677.000000	0.003240 
676.000000	0.003460 
675.000000	0.003360 
674.000000	0.003340 
673.000000	0.003470 
672.000000	0.003480 
671.000000	0.003390 
670.000000	0.003440 
669.000000	0.003380 
668.000000	0.003420 
667.000000	0.003450 
666.000000	0.003480 
665.000000	0.003470 
664.000000	0.003420 
663.000000	0.003480 
662.000000	0.003500 
661.000000	0.003400 
660.000000	0.003380 
659.000000	0.003550 
658.000000	0.003540 
657.000000	0.003480 
656.000000	0.003500 
655.000000	0.003590 
654.000000	0.003600 
653.000000	0.003700 
652.000000	0.003750 
651.000000	0.003680 
650.000000	0.003680 
649.000000	0.003760 
648.000000	0.003820 
647.000000	0.003770 
646.000000	0.003830 
645.000000	0.003930 
644.000000	0.003950 
643.000000	0.003990 
642.000000	0.003980 
641.000000	0.004030 
640.000000	0.004070 
639.000000	0.004110 
638.000000	0.004160 
637.000000	0.004160 
636.000000	0.004260 
635.000000	0.004290 
634.000000	0.004310 
633.000000	0.004460 
632.000000	0.004460 
631.000000	0.004540 
630.000000	0.004610 
629.000000	0.004590 
628.000000	0.004660 
627.000000	0.004700 
626.000000	0.004730 
625.000000	0.004840 
624.000000	0.004930 
623.000000	0.005070 
622.000000	0.005030 
621.000000	0.005090 
620.000000	0.005130 
619.000000	0.005230 
618.000000	0.005370 
617.000000	0.005440 
616.000000	0.005470 
615.000000	0.005590 
614.000000	0.005730 
613.000000	0.005770 
612.000000	0.005810 
611.000000	0.005920 
610.000000	0.006060 
609.000000	0.006140 
608.000000	0.006200 
607.000000	0.006340 
606.000000	0.006500 
605.000000	0.006590 
604.000000	0.006670 
603.000000	0.006840 
602.000000	0.006860 
601.000000	0.006960 
600.000000	0.007120 
599.000000	0.007270 
598.000000	0.007400 
597.000000	0.007590 
596.000000	0.007640 
595.000000	0.007790 
594.000000	0.007939 
593.000000	0.008010 
592.000000	0.008220 
591.000000	0.008340 
590.000000	0.008580 
589.000000	0.008750 
588.000000	0.008910 
587.000000	0.009090 
586.000000	0.009230 
585.000000	0.009420 
584.000000	0.009700 
583.000000	0.009780 
582.000000	0.010050 
581.000000	0.010280 
580.000000	0.010410 
579.000000	0.010630 
578.000000	0.010860 
577.000000	0.011120 
576.000000	0.011310 
575.000000	0.011480 
574.000000	0.011780 
573.000000	0.011930 
572.000000	0.012310 
571.000000	0.012540 
570.000000	0.012780 
569.000000	0.013000 
568.000000	0.013360 
567.000000	0.013560 
566.000000	0.013950 
565.000000	0.014200 
564.000000	0.014550 
563.000000	0.014840 
562.000000	0.015210 
561.000000	0.015600 
560.000000	0.016850 
559.000000	0.017420 
558.000000	0.018050 
557.000000	0.018500 
556.000000	0.019120 
555.000000	0.019520 
554.000000	0.020160 
553.000000	0.020620 
552.000000	0.021270 
551.000000	0.021960 
550.000000	0.022710 
549.000000	0.023300 
548.000000	0.024210 
547.000000	0.024970 
546.000000	0.025800 
545.000000	0.026670 
544.000000	0.027710 
543.000000	0.028600 
542.000000	0.029720 
541.000000	0.030890 
540.000000	0.032070 
539.000000	0.033330 
538.000000	0.034710 
537.000000	0.036100 
536.000000	0.037620 
535.000000	0.039280 
534.000000	0.040950 
533.000000	0.042680 
532.000000	0.044830 
531.000000	0.046900 
530.000000	0.049190 
529.000000	0.051560 
528.000000	0.053830 
527.000000	0.056420 
526.000000	0.058980 
525.000000	0.061860 
524.000000	0.064820 
523.000000	0.068040 
522.000000	0.071290 
521.000000	0.074520 
520.000000	0.078110 
519.000000	0.081750 
518.000000	0.085380 
517.000000	0.089200 
516.000000	0.093090 
515.000000	0.097390 
514.000000	0.101770 
513.000000	0.106420 
512.000000	0.111310 
511.000000	0.116390 
510.000000	0.121590 
509.000000	0.126630 
508.000000	0.131880 
507.000000	0.137410 
506.000000	0.143060 
505.000000	0.148970 
504.000000	0.155080 
503.000000	0.161600 
502.000000	0.168060 
501.000000	0.174610 
500.000000	0.181380 
499.000000	0.188130 
498.000000	0.194720 
497.000000	0.201770 
496.000000	0.208760 
495.000000	0.216170 
494.000000	0.223450 
493.000000	0.230620 
492.000000	0.238040 
491.000000	0.245240 
490.000000	0.252040 
489.000000	0.259370 
488.000000	0.266420 
487.000000	0.273420 
486.000000	0.280230 
485.000000	0.287390 
484.000000	0.294420 
483.000000	0.301560 
482.000000	0.308360 
481.000000	0.315080 
480.000000	0.321350 
479.000000	0.327460 
478.000000	0.333430 
477.000000	0.339740 
476.000000	0.345590 
475.000000	0.351310 
474.000000	0.356870 
473.000000	0.362150 
472.000000	0.367150 
471.000000	0.371620 
470.000000	0.375760 
469.000000	0.379680 
468.000000	0.383650 
467.000000	0.386840 
466.000000	0.389610 
465.000000	0.392610 
464.000000	0.395130 
463.000000	0.396970 
462.000000	0.398600 
461.000000	0.399630 
460.000000	0.400450 
459.000000	0.400980 
458.000000	0.401010 
457.000000	0.400790 
456.000000	0.400410 
455.000000	0.399480 
454.000000	0.398050 
453.000000	0.396410 
452.000000	0.394650 
451.000000	0.392350 
450.000000	0.389620 
449.000000	0.386900 
448.000000	0.383610 
447.000000	0.379940 
446.000000	0.375740 
445.000000	0.371370 
444.000000	0.366750 
443.000000	0.361870 
442.000000	0.356790 
441.000000	0.351630 
440.000000	0.346060 
439.000000	0.340550 
438.000000	0.334240 
437.000000	0.328300 
436.000000	0.321770 
435.000000	0.315220 
434.000000	0.308410 
433.000000	0.301880 
432.000000	0.295670 
431.000000	0.289280 
430.000000	0.282990 
429.000000	0.275810 
428.000000	0.268970 
427.000000	0.262020 
426.000000	0.254600 
425.000000	0.248120 
424.000000	0.241240 
423.000000	0.234220 
422.000000	0.227620 
421.000000	0.222120 
420.000000	0.215800 
419.000000	0.209040 
418.000000	0.202530 
417.000000	0.196240 
416.000000	0.189780 
415.000000	0.183520 
414.000000	0.177540 
413.000000	0.171910 
412.000000	0.166390 
411.000000	0.160920 
410.000000	0.155570 
409.000000	0.150540 
408.000000	0.145380 
407.000000	0.140910 
406.000000	0.136670 
405.000000	0.132800 
404.000000	0.129440 
403.000000	0.126580 
402.000000	0.123800 
401.000000	0.121600 
400.000000	0.119900 

