PE UV                   SPECTRUM    ASCII       PEDS        1.60        
  -1
23MS151.SP
24/09/06
16:24:12.00
24/09/06
16:25:26.00


400.000000
1









4444

SCAN
1
1


0.0
480.0
2.00
MANUAL



UV/VIS




































#HDR
-1
-1
#GR
NM
A
0.00000011920928955078
0.0
700.000000
1.000000
301
8
0.452530
0.063490
#DATA
700.000000	0.063490 
699.000000	0.063580 
698.000000	0.063690 
697.000000	0.063740 
696.000000	0.063820 
695.000000	0.063860 
694.000000	0.064100 
693.000000	0.064140 
692.000000	0.064230 
691.000000	0.064370 
690.000000	0.064240 
689.000000	0.064410 
688.000000	0.064420 
687.000000	0.064500 
686.000000	0.064540 
685.000000	0.064820 
684.000000	0.064890 
683.000000	0.064830 
682.000000	0.064900 
681.000000	0.064980 
680.000000	0.065170 
679.000000	0.065160 
678.000000	0.065190 
677.000000	0.065379 
676.000000	0.065379 
675.000000	0.065490 
674.000000	0.065629 
673.000000	0.065699 
672.000000	0.065730 
671.000000	0.065850 
670.000000	0.065960 
669.000000	0.065960 
668.000000	0.066100 
667.000000	0.066260 
666.000000	0.066350 
665.000000	0.066430 
664.000000	0.066629 
663.000000	0.066640 
662.000000	0.066739 
661.000000	0.066890 
660.000000	0.066950 
659.000000	0.067090 
658.000000	0.067190 
657.000000	0.067370 
656.000000	0.067390 
655.000000	0.067460 
654.000000	0.067669 
653.000000	0.067770 
652.000000	0.067870 
651.000000	0.068029 
650.000000	0.068169 
649.000000	0.068270 
648.000000	0.068400 
647.000000	0.068599 
646.000000	0.068580 
645.000000	0.068779 
644.000000	0.068870 
643.000000	0.069029 
642.000000	0.069110 
641.000000	0.069260 
640.000000	0.069440 
639.000000	0.069570 
638.000000	0.069680 
637.000000	0.069840 
636.000000	0.069880 
635.000000	0.070010 
634.000000	0.070120 
633.000000	0.070260 
632.000000	0.070470 
631.000000	0.070610 
630.000000	0.070810 
629.000000	0.070790 
628.000000	0.071020 
627.000000	0.071090 
626.000000	0.071290 
625.000000	0.071470 
624.000000	0.071660 
623.000000	0.071800 
622.000000	0.071910 
621.000000	0.072040 
620.000000	0.072160 
619.000000	0.072320 
618.000000	0.072500 
617.000000	0.072690 
616.000000	0.072800 
615.000000	0.072950 
614.000000	0.073120 
613.000000	0.073450 
612.000000	0.073539 
611.000000	0.073740 
610.000000	0.073950 
609.000000	0.073950 
608.000000	0.074210 
607.000000	0.074390 
606.000000	0.074600 
605.000000	0.074719 
604.000000	0.074980 
603.000000	0.075259 
602.000000	0.075340 
601.000000	0.075520 
600.000000	0.075770 
599.000000	0.075960 
598.000000	0.076160 
597.000000	0.076280 
596.000000	0.076600 
595.000000	0.076840 
594.000000	0.077119 
593.000000	0.077350 
592.000000	0.077490 
591.000000	0.077760 
590.000000	0.077979 
589.000000	0.078110 
588.000000	0.078360 
587.000000	0.078740 
586.000000	0.078960 
585.000000	0.079159 
584.000000	0.079409 
583.000000	0.079659 
582.000000	0.080000 
581.000000	0.080199 
580.000000	0.080430 
579.000000	0.080620 
578.000000	0.080879 
577.000000	0.081199 
576.000000	0.081430 
575.000000	0.081680 
574.000000	0.081970 
573.000000	0.082260 
572.000000	0.082540 
571.000000	0.082849 
570.000000	0.083169 
569.000000	0.083489 
568.000000	0.083890 
567.000000	0.084110 
566.000000	0.084550 
565.000000	0.084880 
564.000000	0.085389 
563.000000	0.085860 
562.000000	0.086290 
561.000000	0.086780 
560.000000	0.087260 
559.000000	0.087640 
558.000000	0.085800 
557.000000	0.086050 
556.000000	0.086700 
555.000000	0.087130 
554.000000	0.087790 
553.000000	0.088370 
552.000000	0.089000 
551.000000	0.089730 
550.000000	0.090360 
549.000000	0.091070 
548.000000	0.091810 
547.000000	0.092549 
546.000000	0.093340 
545.000000	0.094220 
544.000000	0.095070 
543.000000	0.096070 
542.000000	0.097030 
541.000000	0.098239 
540.000000	0.099230 
539.000000	0.100330 
538.000000	0.101720 
537.000000	0.103130 
536.000000	0.104610 
535.000000	0.106210 
534.000000	0.107830 
533.000000	0.109560 
532.000000	0.111370 
531.000000	0.113220 
530.000000	0.115350 
529.000000	0.117530 
528.000000	0.119820 
527.000000	0.122240 
526.000000	0.124680 
525.000000	0.127440 
524.000000	0.130130 
523.000000	0.133100 
522.000000	0.136130 
521.000000	0.139220 
520.000000	0.142570 
519.000000	0.146140 
518.000000	0.149610 
517.000000	0.153350 
516.000000	0.157190 
515.000000	0.161240 
514.000000	0.165370 
513.000000	0.169740 
512.000000	0.174180 
511.000000	0.178700 
510.000000	0.183370 
509.000000	0.188480 
508.000000	0.193660 
507.000000	0.199030 
506.000000	0.204400 
505.000000	0.210150 
504.000000	0.215800 
503.000000	0.221550 
502.000000	0.227470 
501.000000	0.233750 
500.000000	0.240040 
499.000000	0.246720 
498.000000	0.253360 
497.000000	0.260040 
496.000000	0.266780 
495.000000	0.273570 
494.000000	0.280380 
493.000000	0.287180 
492.000000	0.293910 
491.000000	0.300500 
490.000000	0.307580 
489.000000	0.314400 
488.000000	0.321270 
487.000000	0.327750 
486.000000	0.334730 
485.000000	0.341350 
484.000000	0.347750 
483.000000	0.354350 
482.000000	0.360490 
481.000000	0.367170 
480.000000	0.373210 
479.000000	0.379510 
478.000000	0.385470 
477.000000	0.391220 
476.000000	0.396880 
475.000000	0.402300 
474.000000	0.407270 
473.000000	0.412520 
472.000000	0.417160 
471.000000	0.421810 
470.000000	0.425900 
469.000000	0.429990 
468.000000	0.433630 
467.000000	0.437100 
466.000000	0.439980 
465.000000	0.442970 
464.000000	0.445480 
463.000000	0.447430 
462.000000	0.449090 
461.000000	0.450330 
460.000000	0.451140 
459.000000	0.452120 
458.000000	0.452150 
457.000000	0.452530 
456.000000	0.452090 
455.000000	0.451430 
454.000000	0.450510 
453.000000	0.449050 
452.000000	0.447590 
451.000000	0.445610 
450.000000	0.442850 
449.000000	0.440720 
448.000000	0.437640 
447.000000	0.434730 
446.000000	0.431370 
445.000000	0.427530 
444.000000	0.423690 
443.000000	0.419340 
442.000000	0.414360 
441.000000	0.410190 
440.000000	0.405020 
439.000000	0.399650 
438.000000	0.394300 
437.000000	0.388810 
436.000000	0.383650 
435.000000	0.377780 
434.000000	0.371620 
433.000000	0.366110 
432.000000	0.360410 
431.000000	0.354680 
430.000000	0.348290 
429.000000	0.342070 
428.000000	0.335770 
427.000000	0.329890 
426.000000	0.323540 
425.000000	0.317520 
424.000000	0.311450 
423.000000	0.305210 
422.000000	0.299960 
421.000000	0.296680 
420.000000	0.290580 
419.000000	0.284640 
418.000000	0.278770 
417.000000	0.273240 
416.000000	0.267800 
415.000000	0.262350 
414.000000	0.256910 
413.000000	0.251630 
412.000000	0.246540 
411.000000	0.241630 
410.000000	0.236750 
409.000000	0.232350 
408.000000	0.227930 
407.000000	0.224110 
406.000000	0.220570 
405.000000	0.217270 
404.000000	0.214170 
403.000000	0.211660 
402.000000	0.209200 
401.000000	0.207370 
400.000000	0.205970 

