PE UV                   SPECTRUM    ASCII       PEDS        1.60        
  -1
23MS238.SP
24/09/09
16:21:46.00
24/09/09
16:23:14.00


400.000000
1









4444

SCAN
1
1


0.0
480.0
2.00
MANUAL



UV/VIS




































#HDR
-1
-1
#GR
NM
A
0.00000011920928955078
0.0
700.000000
1.000000
301
8
0.922239
0.023450
#DATA
700.000000	0.023930 
699.000000	0.023750 
698.000000	0.023730 
697.000000	0.023650 
696.000000	0.023570 
695.000000	0.023540 
694.000000	0.023480 
693.000000	0.023450 
692.000000	0.023460 
691.000000	0.023540 
690.000000	0.023590 
689.000000	0.023560 
688.000000	0.023600 
687.000000	0.023520 
686.000000	0.023580 
685.000000	0.023850 
684.000000	0.024120 
683.000000	0.024080 
682.000000	0.024120 
681.000000	0.024350 
680.000000	0.024470 
679.000000	0.024680 
678.000000	0.024770 
677.000000	0.024920 
676.000000	0.025230 
675.000000	0.025200 
674.000000	0.025230 
673.000000	0.025470 
672.000000	0.025530 
671.000000	0.025790 
670.000000	0.026000 
669.000000	0.026060 
668.000000	0.026280 
667.000000	0.026340 
666.000000	0.026570 
665.000000	0.026600 
664.000000	0.026650 
663.000000	0.026890 
662.000000	0.027020 
661.000000	0.027060 
660.000000	0.027240 
659.000000	0.027460 
658.000000	0.027530 
657.000000	0.027630 
656.000000	0.027770 
655.000000	0.027970 
654.000000	0.028100 
653.000000	0.028270 
652.000000	0.028480 
651.000000	0.028390 
650.000000	0.028440 
649.000000	0.028600 
648.000000	0.028690 
647.000000	0.028740 
646.000000	0.028960 
645.000000	0.029010 
644.000000	0.029240 
643.000000	0.029350 
642.000000	0.029530 
641.000000	0.029490 
640.000000	0.029560 
639.000000	0.029510 
638.000000	0.029670 
637.000000	0.029720 
636.000000	0.029840 
635.000000	0.029900 
634.000000	0.029960 
633.000000	0.030040 
632.000000	0.030100 
631.000000	0.030200 
630.000000	0.030280 
629.000000	0.030250 
628.000000	0.030380 
627.000000	0.030510 
626.000000	0.030570 
625.000000	0.030750 
624.000000	0.030800 
623.000000	0.031030 
622.000000	0.031000 
621.000000	0.031110 
620.000000	0.031150 
619.000000	0.031280 
618.000000	0.031360 
617.000000	0.031530 
616.000000	0.031630 
615.000000	0.031750 
614.000000	0.032070 
613.000000	0.032120 
612.000000	0.032160 
611.000000	0.032220 
610.000000	0.032420 
609.000000	0.032650 
608.000000	0.032730 
607.000000	0.032970 
606.000000	0.033150 
605.000000	0.033380 
604.000000	0.033580 
603.000000	0.033830 
602.000000	0.034030 
601.000000	0.034280 
600.000000	0.034510 
599.000000	0.034760 
598.000000	0.035080 
597.000000	0.035370 
596.000000	0.035670 
595.000000	0.036060 
594.000000	0.036340 
593.000000	0.036620 
592.000000	0.036990 
591.000000	0.037390 
590.000000	0.037870 
589.000000	0.038320 
588.000000	0.038540 
587.000000	0.039070 
586.000000	0.039540 
585.000000	0.040060 
584.000000	0.040540 
583.000000	0.040950 
582.000000	0.041410 
581.000000	0.041950 
580.000000	0.042300 
579.000000	0.042840 
578.000000	0.043360 
577.000000	0.043770 
576.000000	0.044370 
575.000000	0.044830 
574.000000	0.045510 
573.000000	0.045860 
572.000000	0.046640 
571.000000	0.047250 
570.000000	0.047890 
569.000000	0.048560 
568.000000	0.049320 
567.000000	0.050160 
566.000000	0.050970 
565.000000	0.051830 
564.000000	0.052570 
563.000000	0.053460 
562.000000	0.054330 
561.000000	0.055410 
560.000000	0.057310 
559.000000	0.058660 
558.000000	0.059980 
557.000000	0.061250 
556.000000	0.062659 
555.000000	0.064000 
554.000000	0.065360 
553.000000	0.066770 
552.000000	0.068400 
551.000000	0.070040 
550.000000	0.071980 
549.000000	0.073700 
548.000000	0.075990 
547.000000	0.078070 
546.000000	0.080210 
545.000000	0.082419 
544.000000	0.084970 
543.000000	0.087530 
542.000000	0.090160 
541.000000	0.093110 
540.000000	0.096230 
539.000000	0.099490 
538.000000	0.103040 
537.000000	0.106710 
536.000000	0.110360 
535.000000	0.114330 
534.000000	0.118390 
533.000000	0.122970 
532.000000	0.127820 
531.000000	0.132870 
530.000000	0.138420 
529.000000	0.144090 
528.000000	0.149880 
527.000000	0.156090 
526.000000	0.162330 
525.000000	0.169000 
524.000000	0.176110 
523.000000	0.183360 
522.000000	0.190910 
521.000000	0.198830 
520.000000	0.207360 
519.000000	0.215840 
518.000000	0.224420 
517.000000	0.233460 
516.000000	0.242640 
515.000000	0.252210 
514.000000	0.262370 
513.000000	0.273110 
512.000000	0.284270 
511.000000	0.295740 
510.000000	0.307730 
509.000000	0.319880 
508.000000	0.332390 
507.000000	0.344920 
506.000000	0.357840 
505.000000	0.371020 
504.000000	0.384960 
503.000000	0.399220 
502.000000	0.414080 
501.000000	0.429270 
500.000000	0.444790 
499.000000	0.460640 
498.000000	0.475880 
497.000000	0.491340 
496.000000	0.507140 
495.000000	0.523380 
494.000000	0.539290 
493.000000	0.555760 
492.000000	0.572140 
491.000000	0.588420 
490.000000	0.604660 
489.000000	0.620830 
488.000000	0.636120 
487.000000	0.651550 
486.000000	0.666600 
485.000000	0.681930 
484.000000	0.697269 
483.000000	0.712750 
482.000000	0.727640 
481.000000	0.742610 
480.000000	0.756980 
479.000000	0.770720 
478.000000	0.783400 
477.000000	0.796310 
476.000000	0.808550 
475.000000	0.820910 
474.000000	0.831720 
473.000000	0.843370 
472.000000	0.854660 
471.000000	0.864050 
470.000000	0.873440 
469.000000	0.881270 
468.000000	0.888570 
467.000000	0.895210 
466.000000	0.900390 
465.000000	0.906860 
464.000000	0.911690 
463.000000	0.915650 
462.000000	0.918170 
461.000000	0.919790 
460.000000	0.921750 
459.000000	0.922239 
458.000000	0.921060 
457.000000	0.921629 
456.000000	0.919409 
455.000000	0.917270 
454.000000	0.913980 
453.000000	0.909870 
452.000000	0.905790 
451.000000	0.900850 
450.000000	0.892640 
449.000000	0.886880 
448.000000	0.880250 
447.000000	0.872490 
446.000000	0.863560 
445.000000	0.854129 
444.000000	0.843940 
443.000000	0.833360 
442.000000	0.820530 
441.000000	0.810180 
440.000000	0.797920 
439.000000	0.786240 
438.000000	0.773110 
437.000000	0.759450 
436.000000	0.746030 
435.000000	0.731480 
434.000000	0.717210 
433.000000	0.702500 
432.000000	0.688850 
431.000000	0.674370 
430.000000	0.660330 
429.000000	0.645410 
428.000000	0.630830 
427.000000	0.615600 
426.000000	0.599940 
425.000000	0.585539 
424.000000	0.570930 
423.000000	0.555780 
422.000000	0.541460 
421.000000	0.528990 
420.000000	0.515200 
419.000000	0.501380 
418.000000	0.487230 
417.000000	0.473460 
416.000000	0.459650 
415.000000	0.446390 
414.000000	0.433370 
413.000000	0.420920 
412.000000	0.408950 
411.000000	0.397470 
410.000000	0.386570 
409.000000	0.376050 
408.000000	0.365740 
407.000000	0.356340 
406.000000	0.347960 
405.000000	0.340450 
404.000000	0.333660 
403.000000	0.327980 
402.000000	0.323090 
401.000000	0.319690 
400.000000	0.316920 

