PE UV                   SPECTRUM    ASCII       PEDS        1.60        
  -1
23MS271.SP
24/09/09
16:15:13.00
24/09/09
16:16:24.00


400.000000
1









4444

SCAN
1
1


0.0
480.0
2.00
MANUAL



UV/VIS




































#HDR
-1
-1
#GR
NM
A
0.00000011920928955078
0.0
700.000000
1.000000
301
8
0.316900
0.010080
#DATA
700.000000	0.010560 
699.000000	0.010380 
698.000000	0.010340 
697.000000	0.010390 
696.000000	0.010370 
695.000000	0.010280 
694.000000	0.010190 
693.000000	0.010120 
692.000000	0.010160 
691.000000	0.010150 
690.000000	0.010160 
689.000000	0.010190 
688.000000	0.010280 
687.000000	0.010120 
686.000000	0.010170 
685.000000	0.010210 
684.000000	0.010210 
683.000000	0.010190 
682.000000	0.010140 
681.000000	0.010150 
680.000000	0.010150 
679.000000	0.010140 
678.000000	0.010080 
677.000000	0.010130 
676.000000	0.010180 
675.000000	0.010130 
674.000000	0.010270 
673.000000	0.010240 
672.000000	0.010300 
671.000000	0.010250 
670.000000	0.010350 
669.000000	0.010360 
668.000000	0.010450 
667.000000	0.010400 
666.000000	0.010500 
665.000000	0.010460 
664.000000	0.010500 
663.000000	0.010500 
662.000000	0.010580 
661.000000	0.010340 
660.000000	0.010520 
659.000000	0.010720 
658.000000	0.010790 
657.000000	0.010780 
656.000000	0.010870 
655.000000	0.010900 
654.000000	0.011020 
653.000000	0.011110 
652.000000	0.011050 
651.000000	0.011090 
650.000000	0.011180 
649.000000	0.011250 
648.000000	0.011420 
647.000000	0.011370 
646.000000	0.011400 
645.000000	0.011420 
644.000000	0.011540 
643.000000	0.011580 
642.000000	0.011710 
641.000000	0.011810 
640.000000	0.011860 
639.000000	0.011900 
638.000000	0.012060 
637.000000	0.012110 
636.000000	0.012280 
635.000000	0.012370 
634.000000	0.012390 
633.000000	0.012490 
632.000000	0.012640 
631.000000	0.012770 
630.000000	0.012910 
629.000000	0.012950 
628.000000	0.013020 
627.000000	0.013330 
626.000000	0.013410 
625.000000	0.013560 
624.000000	0.013680 
623.000000	0.013840 
622.000000	0.013830 
621.000000	0.014060 
620.000000	0.014170 
619.000000	0.014370 
618.000000	0.014500 
617.000000	0.014730 
616.000000	0.014770 
615.000000	0.014900 
614.000000	0.015210 
613.000000	0.015310 
612.000000	0.015550 
611.000000	0.015740 
610.000000	0.015950 
609.000000	0.016100 
608.000000	0.016340 
607.000000	0.016580 
606.000000	0.016790 
605.000000	0.016970 
604.000000	0.017200 
603.000000	0.017440 
602.000000	0.017570 
601.000000	0.017780 
600.000000	0.018090 
599.000000	0.018310 
598.000000	0.018590 
597.000000	0.018890 
596.000000	0.019150 
595.000000	0.019480 
594.000000	0.019670 
593.000000	0.020040 
592.000000	0.020290 
591.000000	0.020610 
590.000000	0.020920 
589.000000	0.021290 
588.000000	0.021530 
587.000000	0.021900 
586.000000	0.022280 
585.000000	0.022590 
584.000000	0.022940 
583.000000	0.023330 
582.000000	0.023560 
581.000000	0.024020 
580.000000	0.024280 
579.000000	0.024650 
578.000000	0.025090 
577.000000	0.025530 
576.000000	0.025910 
575.000000	0.026250 
574.000000	0.026690 
573.000000	0.026960 
572.000000	0.027420 
571.000000	0.027780 
570.000000	0.028130 
569.000000	0.028500 
568.000000	0.029050 
567.000000	0.029470 
566.000000	0.029920 
565.000000	0.030340 
564.000000	0.030890 
563.000000	0.031380 
562.000000	0.031770 
561.000000	0.032220 
560.000000	0.033300 
559.000000	0.033770 
558.000000	0.034400 
557.000000	0.035020 
556.000000	0.035690 
555.000000	0.036170 
554.000000	0.036850 
553.000000	0.037390 
552.000000	0.038090 
551.000000	0.038810 
550.000000	0.039520 
549.000000	0.040200 
548.000000	0.040920 
547.000000	0.041710 
546.000000	0.042450 
545.000000	0.043200 
544.000000	0.044060 
543.000000	0.045000 
542.000000	0.045840 
541.000000	0.046720 
540.000000	0.047720 
539.000000	0.048700 
538.000000	0.049680 
537.000000	0.050980 
536.000000	0.052100 
535.000000	0.053330 
534.000000	0.054600 
533.000000	0.055920 
532.000000	0.057480 
531.000000	0.058920 
530.000000	0.060600 
529.000000	0.062340 
528.000000	0.064030 
527.000000	0.066090 
526.000000	0.068029 
525.000000	0.070160 
524.000000	0.072210 
523.000000	0.074460 
522.000000	0.076710 
521.000000	0.079130 
520.000000	0.081720 
519.000000	0.084400 
518.000000	0.087040 
517.000000	0.089829 
516.000000	0.092799 
515.000000	0.095800 
514.000000	0.098910 
513.000000	0.102200 
512.000000	0.105580 
511.000000	0.109010 
510.000000	0.112710 
509.000000	0.116680 
508.000000	0.120730 
507.000000	0.124790 
506.000000	0.128960 
505.000000	0.133330 
504.000000	0.137610 
503.000000	0.142010 
502.000000	0.146590 
501.000000	0.151320 
500.000000	0.156170 
499.000000	0.161300 
498.000000	0.166380 
497.000000	0.171630 
496.000000	0.176690 
495.000000	0.182060 
494.000000	0.187180 
493.000000	0.192350 
492.000000	0.197630 
491.000000	0.203040 
490.000000	0.207970 
489.000000	0.213450 
488.000000	0.218760 
487.000000	0.224080 
486.000000	0.229010 
485.000000	0.234150 
484.000000	0.239100 
483.000000	0.244020 
482.000000	0.249010 
481.000000	0.254110 
480.000000	0.258720 
479.000000	0.263420 
478.000000	0.268110 
477.000000	0.272510 
476.000000	0.276810 
475.000000	0.280810 
474.000000	0.284840 
473.000000	0.288720 
472.000000	0.292210 
471.000000	0.295530 
470.000000	0.298910 
469.000000	0.301800 
468.000000	0.304600 
467.000000	0.307090 
466.000000	0.309070 
465.000000	0.311000 
464.000000	0.312730 
463.000000	0.314130 
462.000000	0.315220 
461.000000	0.316100 
460.000000	0.316570 
459.000000	0.316900 
458.000000	0.316900 
457.000000	0.316740 
456.000000	0.316390 
455.000000	0.315590 
454.000000	0.314540 
453.000000	0.313130 
452.000000	0.311740 
451.000000	0.309880 
450.000000	0.307620 
449.000000	0.305710 
448.000000	0.302870 
447.000000	0.300310 
446.000000	0.297030 
445.000000	0.294010 
444.000000	0.290480 
443.000000	0.286810 
442.000000	0.282790 
441.000000	0.278760 
440.000000	0.274270 
439.000000	0.269860 
438.000000	0.265470 
437.000000	0.260920 
436.000000	0.256100 
435.000000	0.251460 
434.000000	0.246310 
433.000000	0.240780 
432.000000	0.236080 
431.000000	0.231320 
430.000000	0.226190 
429.000000	0.221020 
428.000000	0.215520 
427.000000	0.210680 
426.000000	0.205300 
425.000000	0.200180 
424.000000	0.194950 
423.000000	0.189580 
422.000000	0.184190 
421.000000	0.178800 
420.000000	0.173610 
419.000000	0.168610 
418.000000	0.163690 
417.000000	0.159100 
416.000000	0.154370 
415.000000	0.149660 
414.000000	0.145180 
413.000000	0.140910 
412.000000	0.136430 
411.000000	0.132230 
410.000000	0.128280 
409.000000	0.124560 
408.000000	0.121170 
407.000000	0.117950 
406.000000	0.114910 
405.000000	0.112210 
404.000000	0.109710 
403.000000	0.107640 
402.000000	0.105760 
401.000000	0.104340 
400.000000	0.103150 

