PE UV                   SPECTRUM    ASCII       PEDS        1.60        
  -1
23MS064.SP
24/09/12
15:46:56.00
24/09/12
15:48:05.00


400.000000
1









4444

SCAN
1
1


0.0
480.0
2.00
MANUAL



UV/VIS




































#HDR
-1
-1
#GR
NM
A
0.00000011920928955078
0.0
700.000000
1.000000
301
8
0.597290
0.105260
#DATA
700.000000	0.105260 
699.000000	0.105550 
698.000000	0.105900 
697.000000	0.106040 
696.000000	0.106230 
695.000000	0.106440 
694.000000	0.106650 
693.000000	0.106700 
692.000000	0.106860 
691.000000	0.107100 
690.000000	0.107350 
689.000000	0.107560 
688.000000	0.107780 
687.000000	0.108010 
686.000000	0.108200 
685.000000	0.108220 
684.000000	0.108010 
683.000000	0.108310 
682.000000	0.108480 
681.000000	0.108660 
680.000000	0.108840 
679.000000	0.109010 
678.000000	0.109140 
677.000000	0.109270 
676.000000	0.109500 
675.000000	0.109560 
674.000000	0.109780 
673.000000	0.109920 
672.000000	0.110080 
671.000000	0.110070 
670.000000	0.110180 
669.000000	0.110320 
668.000000	0.110310 
667.000000	0.110330 
666.000000	0.110450 
665.000000	0.110610 
664.000000	0.110810 
663.000000	0.110860 
662.000000	0.111020 
661.000000	0.110990 
660.000000	0.111100 
659.000000	0.111220 
658.000000	0.111140 
657.000000	0.111140 
656.000000	0.111130 
655.000000	0.111240 
654.000000	0.111200 
653.000000	0.111280 
652.000000	0.111390 
651.000000	0.111380 
650.000000	0.111600 
649.000000	0.111620 
648.000000	0.111810 
647.000000	0.111840 
646.000000	0.112020 
645.000000	0.112170 
644.000000	0.112260 
643.000000	0.112410 
642.000000	0.112360 
641.000000	0.112590 
640.000000	0.112740 
639.000000	0.112940 
638.000000	0.113110 
637.000000	0.113350 
636.000000	0.113410 
635.000000	0.113700 
634.000000	0.113910 
633.000000	0.114160 
632.000000	0.114270 
631.000000	0.114450 
630.000000	0.114650 
629.000000	0.114980 
628.000000	0.115150 
627.000000	0.115460 
626.000000	0.115640 
625.000000	0.115890 
624.000000	0.116210 
623.000000	0.116570 
622.000000	0.116820 
621.000000	0.117130 
620.000000	0.117340 
619.000000	0.117670 
618.000000	0.117970 
617.000000	0.118270 
616.000000	0.118570 
615.000000	0.118990 
614.000000	0.119360 
613.000000	0.119740 
612.000000	0.120080 
611.000000	0.120450 
610.000000	0.120930 
609.000000	0.121190 
608.000000	0.121630 
607.000000	0.122140 
606.000000	0.122480 
605.000000	0.122950 
604.000000	0.123440 
603.000000	0.123880 
602.000000	0.124370 
601.000000	0.124850 
600.000000	0.125380 
599.000000	0.125880 
598.000000	0.126490 
597.000000	0.126990 
596.000000	0.127570 
595.000000	0.127970 
594.000000	0.128580 
593.000000	0.129230 
592.000000	0.129900 
591.000000	0.130560 
590.000000	0.131200 
589.000000	0.131880 
588.000000	0.132610 
587.000000	0.133230 
586.000000	0.133930 
585.000000	0.134620 
584.000000	0.135370 
583.000000	0.136030 
582.000000	0.136760 
581.000000	0.137610 
580.000000	0.138320 
579.000000	0.139130 
578.000000	0.139970 
577.000000	0.140790 
576.000000	0.141630 
575.000000	0.142410 
574.000000	0.143190 
573.000000	0.144070 
572.000000	0.144910 
571.000000	0.145790 
570.000000	0.146710 
569.000000	0.147600 
568.000000	0.148460 
567.000000	0.149270 
566.000000	0.150340 
565.000000	0.151200 
564.000000	0.152440 
563.000000	0.153310 
562.000000	0.154420 
561.000000	0.155500 
560.000000	0.156450 
559.000000	0.157630 
558.000000	0.158820 
557.000000	0.160030 
556.000000	0.161170 
555.000000	0.162220 
554.000000	0.163420 
553.000000	0.164810 
552.000000	0.166050 
551.000000	0.167260 
550.000000	0.168660 
549.000000	0.170160 
548.000000	0.171500 
547.000000	0.172930 
546.000000	0.174570 
545.000000	0.176000 
544.000000	0.177540 
543.000000	0.179220 
542.000000	0.180910 
541.000000	0.182750 
540.000000	0.184590 
539.000000	0.186360 
538.000000	0.188280 
537.000000	0.190360 
536.000000	0.192570 
535.000000	0.194680 
534.000000	0.196990 
533.000000	0.199590 
532.000000	0.202300 
531.000000	0.205180 
530.000000	0.207770 
529.000000	0.210730 
528.000000	0.213610 
527.000000	0.216700 
526.000000	0.219950 
525.000000	0.223110 
524.000000	0.226560 
523.000000	0.230340 
522.000000	0.233980 
521.000000	0.238140 
520.000000	0.242150 
519.000000	0.246250 
518.000000	0.250350 
517.000000	0.254650 
516.000000	0.259290 
515.000000	0.264060 
514.000000	0.269110 
513.000000	0.274370 
512.000000	0.279650 
511.000000	0.284810 
510.000000	0.290370 
509.000000	0.295830 
508.000000	0.301740 
507.000000	0.307710 
506.000000	0.313800 
505.000000	0.320550 
504.000000	0.327290 
503.000000	0.334090 
502.000000	0.341110 
501.000000	0.348280 
500.000000	0.355380 
499.000000	0.362740 
498.000000	0.369720 
497.000000	0.377450 
496.000000	0.385100 
495.000000	0.392890 
494.000000	0.400870 
493.000000	0.408740 
492.000000	0.416220 
491.000000	0.424130 
490.000000	0.431830 
489.000000	0.439380 
488.000000	0.446920 
487.000000	0.454250 
486.000000	0.461750 
485.000000	0.469650 
484.000000	0.477260 
483.000000	0.484490 
482.000000	0.491660 
481.000000	0.499090 
480.000000	0.505760 
479.000000	0.512500 
478.000000	0.519100 
477.000000	0.525710 
476.000000	0.532410 
475.000000	0.538460 
474.000000	0.544230 
473.000000	0.550370 
472.000000	0.555800 
471.000000	0.560900 
470.000000	0.565560 
469.000000	0.569940 
468.000000	0.574340 
467.000000	0.578110 
466.000000	0.581480 
465.000000	0.585030 
464.000000	0.587700 
463.000000	0.590310 
462.000000	0.592630 
461.000000	0.594480 
460.000000	0.595110 
459.000000	0.596260 
458.000000	0.596450 
457.000000	0.597290 
456.000000	0.597110 
455.000000	0.596990 
454.000000	0.596190 
453.000000	0.595040 
452.000000	0.593090 
451.000000	0.591820 
450.000000	0.589040 
449.000000	0.586780 
448.000000	0.583820 
447.000000	0.580810 
446.000000	0.577099 
445.000000	0.573150 
444.000000	0.569080 
443.000000	0.565150 
442.000000	0.559930 
441.000000	0.555250 
440.000000	0.550550 
439.000000	0.545200 
438.000000	0.539280 
437.000000	0.533870 
436.000000	0.527850 
435.000000	0.521810 
434.000000	0.515330 
433.000000	0.509580 
432.000000	0.503420 
431.000000	0.497660 
430.000000	0.491090 
429.000000	0.485020 
428.000000	0.478290 
427.000000	0.471420 
426.000000	0.464730 
425.000000	0.458680 
424.000000	0.452530 
423.000000	0.446400 
422.000000	0.440370 
421.000000	0.433970 
420.000000	0.427900 
419.000000	0.421690 
418.000000	0.415580 
417.000000	0.409780 
416.000000	0.404060 
415.000000	0.398420 
414.000000	0.393290 
413.000000	0.388310 
412.000000	0.383450 
411.000000	0.378860 
410.000000	0.374090 
409.000000	0.369860 
408.000000	0.365880 
407.000000	0.362130 
406.000000	0.359060 
405.000000	0.356500 
404.000000	0.354210 
403.000000	0.352260 
402.000000	0.350790 
401.000000	0.350110 
400.000000	0.349760 

