PE UV                   SPECTRUM    ASCII       PEDS        1.60        
  -1
23MS211.SP
24/09/09
16:37:18.00
24/09/09
16:38:27.00


400.000000
1









4444

SCAN
1
1


0.0
480.0
2.00
MANUAL



UV/VIS




































#HDR
-1
-1
#GR
NM
A
0.00000011920928955078
0.0
700.000000
1.000000
301
8
0.824910
0.034640
#DATA
700.000000	0.034640 
699.000000	0.034730 
698.000000	0.034860 
697.000000	0.034910 
696.000000	0.034890 
695.000000	0.034950 
694.000000	0.034890 
693.000000	0.034910 
692.000000	0.035030 
691.000000	0.035020 
690.000000	0.035180 
689.000000	0.035160 
688.000000	0.035200 
687.000000	0.035150 
686.000000	0.035100 
685.000000	0.035550 
684.000000	0.035920 
683.000000	0.036070 
682.000000	0.036250 
681.000000	0.036560 
680.000000	0.036620 
679.000000	0.036830 
678.000000	0.036950 
677.000000	0.036990 
676.000000	0.037260 
675.000000	0.037390 
674.000000	0.037500 
673.000000	0.037630 
672.000000	0.037780 
671.000000	0.038020 
670.000000	0.038200 
669.000000	0.038310 
668.000000	0.038500 
667.000000	0.038600 
666.000000	0.038710 
665.000000	0.038710 
664.000000	0.038840 
663.000000	0.039110 
662.000000	0.039300 
661.000000	0.039390 
660.000000	0.039430 
659.000000	0.039630 
658.000000	0.039770 
657.000000	0.039790 
656.000000	0.040020 
655.000000	0.040170 
654.000000	0.040350 
653.000000	0.040610 
652.000000	0.040870 
651.000000	0.041060 
650.000000	0.041270 
649.000000	0.041560 
648.000000	0.041720 
647.000000	0.041940 
646.000000	0.042160 
645.000000	0.042380 
644.000000	0.042630 
643.000000	0.042910 
642.000000	0.043150 
641.000000	0.043330 
640.000000	0.043480 
639.000000	0.043850 
638.000000	0.044100 
637.000000	0.044330 
636.000000	0.044590 
635.000000	0.044860 
634.000000	0.045030 
633.000000	0.045490 
632.000000	0.045810 
631.000000	0.046060 
630.000000	0.046390 
629.000000	0.046710 
628.000000	0.047000 
627.000000	0.047410 
626.000000	0.047780 
625.000000	0.048070 
624.000000	0.048530 
623.000000	0.048960 
622.000000	0.049310 
621.000000	0.049720 
620.000000	0.050070 
619.000000	0.050540 
618.000000	0.051190 
617.000000	0.051620 
616.000000	0.052020 
615.000000	0.052630 
614.000000	0.053320 
613.000000	0.053850 
612.000000	0.054340 
611.000000	0.054850 
610.000000	0.055490 
609.000000	0.056110 
608.000000	0.056720 
607.000000	0.057290 
606.000000	0.057910 
605.000000	0.058560 
604.000000	0.059350 
603.000000	0.060090 
602.000000	0.060840 
601.000000	0.061600 
600.000000	0.062290 
599.000000	0.063080 
598.000000	0.063880 
597.000000	0.064790 
596.000000	0.065620 
595.000000	0.066520 
594.000000	0.067400 
593.000000	0.068340 
592.000000	0.069410 
591.000000	0.070290 
590.000000	0.071420 
589.000000	0.072550 
588.000000	0.073580 
587.000000	0.074740 
586.000000	0.075860 
585.000000	0.077090 
584.000000	0.078299 
583.000000	0.079400 
582.000000	0.080620 
581.000000	0.081830 
580.000000	0.083030 
579.000000	0.084200 
578.000000	0.085400 
577.000000	0.086690 
576.000000	0.088120 
575.000000	0.089330 
574.000000	0.090770 
573.000000	0.092090 
572.000000	0.093580 
571.000000	0.094900 
570.000000	0.096190 
569.000000	0.097730 
568.000000	0.099099 
567.000000	0.100720 
566.000000	0.102250 
565.000000	0.103860 
564.000000	0.105390 
563.000000	0.107000 
562.000000	0.108680 
561.000000	0.110410 
560.000000	0.112690 
559.000000	0.114400 
558.000000	0.116260 
557.000000	0.118160 
556.000000	0.120100 
555.000000	0.121920 
554.000000	0.123770 
553.000000	0.125580 
552.000000	0.127560 
551.000000	0.129560 
550.000000	0.131540 
549.000000	0.133700 
548.000000	0.135900 
547.000000	0.138140 
546.000000	0.140330 
545.000000	0.142540 
544.000000	0.145000 
543.000000	0.147620 
542.000000	0.150080 
541.000000	0.152710 
540.000000	0.155440 
539.000000	0.158340 
538.000000	0.161310 
537.000000	0.164500 
536.000000	0.167820 
535.000000	0.171340 
534.000000	0.174910 
533.000000	0.178490 
532.000000	0.182560 
531.000000	0.186570 
530.000000	0.190860 
529.000000	0.195600 
528.000000	0.200200 
527.000000	0.205320 
526.000000	0.210450 
525.000000	0.215770 
524.000000	0.221240 
523.000000	0.226850 
522.000000	0.232650 
521.000000	0.238740 
520.000000	0.245420 
519.000000	0.252060 
518.000000	0.258780 
517.000000	0.265960 
516.000000	0.273210 
515.000000	0.280880 
514.000000	0.288780 
513.000000	0.296740 
512.000000	0.305290 
511.000000	0.314000 
510.000000	0.323070 
509.000000	0.332510 
508.000000	0.342470 
507.000000	0.352340 
506.000000	0.362680 
505.000000	0.373300 
504.000000	0.384090 
503.000000	0.394930 
502.000000	0.406200 
501.000000	0.417800 
500.000000	0.429900 
499.000000	0.442420 
498.000000	0.454660 
497.000000	0.467560 
496.000000	0.480340 
495.000000	0.492780 
494.000000	0.505560 
493.000000	0.518170 
492.000000	0.530820 
491.000000	0.543940 
490.000000	0.556700 
489.000000	0.569620 
488.000000	0.582360 
487.000000	0.595190 
486.000000	0.607390 
485.000000	0.619720 
484.000000	0.631760 
483.000000	0.643800 
482.000000	0.655770 
481.000000	0.668100 
480.000000	0.679660 
479.000000	0.691060 
478.000000	0.702120 
477.000000	0.712850 
476.000000	0.723270 
475.000000	0.733050 
474.000000	0.742430 
473.000000	0.751790 
472.000000	0.760810 
471.000000	0.768720 
470.000000	0.777220 
469.000000	0.784380 
468.000000	0.791280 
467.000000	0.797370 
466.000000	0.802140 
465.000000	0.807470 
464.000000	0.811850 
463.000000	0.815750 
462.000000	0.818320 
461.000000	0.821250 
460.000000	0.823120 
459.000000	0.823850 
458.000000	0.824560 
457.000000	0.824910 
456.000000	0.824640 
455.000000	0.823420 
454.000000	0.821930 
453.000000	0.819980 
452.000000	0.816810 
451.000000	0.813380 
450.000000	0.808729 
449.000000	0.805520 
448.000000	0.800430 
447.000000	0.795140 
446.000000	0.789380 
445.000000	0.782970 
444.000000	0.776530 
443.000000	0.769370 
442.000000	0.760440 
441.000000	0.752960 
440.000000	0.744410 
439.000000	0.735220 
438.000000	0.725850 
437.000000	0.717080 
436.000000	0.707530 
435.000000	0.698340 
434.000000	0.687350 
433.000000	0.677580 
432.000000	0.667590 
431.000000	0.657880 
430.000000	0.647800 
429.000000	0.637590 
428.000000	0.627250 
427.000000	0.617060 
426.000000	0.606560 
425.000000	0.597220 
424.000000	0.587030 
423.000000	0.577000 
422.000000	0.567070 
421.000000	0.559720 
420.000000	0.550679 
419.000000	0.541450 
418.000000	0.532210 
417.000000	0.523770 
416.000000	0.515270 
415.000000	0.506860 
414.000000	0.499080 
413.000000	0.491420 
412.000000	0.484140 
411.000000	0.477220 
410.000000	0.470850 
409.000000	0.465170 
408.000000	0.459830 
407.000000	0.455260 
406.000000	0.451080 
405.000000	0.447880 
404.000000	0.445130 
403.000000	0.443300 
402.000000	0.441930 
401.000000	0.441910 
400.000000	0.442690 

