PE UV                   SPECTRUM    ASCII       PEDS        1.60        
  -1
23MS212.SP
24/09/09
16:05:31.00
24/09/09
16:06:53.00


400.000000
1









4444

SCAN
1
1


0.0
480.0
2.00
MANUAL



UV/VIS




































#HDR
-1
-1
#GR
NM
A
0.00000011920928955078
0.0
700.000000
1.000000
301
8
0.475420
0.010520
#DATA
700.000000	0.010520 
699.000000	0.010670 
698.000000	0.010950 
697.000000	0.011150 
696.000000	0.011450 
695.000000	0.011740 
694.000000	0.011880 
693.000000	0.011990 
692.000000	0.012210 
691.000000	0.012410 
690.000000	0.012630 
689.000000	0.012830 
688.000000	0.012870 
687.000000	0.012960 
686.000000	0.013060 
685.000000	0.013450 
684.000000	0.013430 
683.000000	0.013370 
682.000000	0.013270 
681.000000	0.013390 
680.000000	0.013270 
679.000000	0.013130 
678.000000	0.013050 
677.000000	0.012960 
676.000000	0.012960 
675.000000	0.012820 
674.000000	0.012810 
673.000000	0.012700 
672.000000	0.012660 
671.000000	0.012660 
670.000000	0.012570 
669.000000	0.012480 
668.000000	0.012460 
667.000000	0.012440 
666.000000	0.012470 
665.000000	0.012490 
664.000000	0.012440 
663.000000	0.012520 
662.000000	0.012560 
661.000000	0.012510 
660.000000	0.012460 
659.000000	0.012610 
658.000000	0.012600 
657.000000	0.012470 
656.000000	0.012560 
655.000000	0.012570 
654.000000	0.012580 
653.000000	0.012620 
652.000000	0.012610 
651.000000	0.012490 
650.000000	0.012550 
649.000000	0.012570 
648.000000	0.012590 
647.000000	0.012510 
646.000000	0.012500 
645.000000	0.012420 
644.000000	0.012470 
643.000000	0.012530 
642.000000	0.012650 
641.000000	0.012620 
640.000000	0.012620 
639.000000	0.012670 
638.000000	0.012830 
637.000000	0.012720 
636.000000	0.012810 
635.000000	0.012790 
634.000000	0.012820 
633.000000	0.012820 
632.000000	0.012880 
631.000000	0.012850 
630.000000	0.012930 
629.000000	0.012900 
628.000000	0.013030 
627.000000	0.013090 
626.000000	0.013110 
625.000000	0.013230 
624.000000	0.013290 
623.000000	0.013510 
622.000000	0.013440 
621.000000	0.013500 
620.000000	0.013500 
619.000000	0.013680 
618.000000	0.013790 
617.000000	0.013940 
616.000000	0.013880 
615.000000	0.013980 
614.000000	0.014190 
613.000000	0.014230 
612.000000	0.014300 
611.000000	0.014390 
610.000000	0.014600 
609.000000	0.014600 
608.000000	0.014760 
607.000000	0.014910 
606.000000	0.014980 
605.000000	0.015170 
604.000000	0.015280 
603.000000	0.015430 
602.000000	0.015530 
601.000000	0.015650 
600.000000	0.015820 
599.000000	0.016010 
598.000000	0.016120 
597.000000	0.016340 
596.000000	0.016450 
595.000000	0.016660 
594.000000	0.016760 
593.000000	0.017000 
592.000000	0.017170 
591.000000	0.017310 
590.000000	0.017630 
589.000000	0.017940 
588.000000	0.018000 
587.000000	0.018200 
586.000000	0.018430 
585.000000	0.018670 
584.000000	0.018880 
583.000000	0.019120 
582.000000	0.019310 
581.000000	0.019650 
580.000000	0.019800 
579.000000	0.020120 
578.000000	0.020350 
577.000000	0.020580 
576.000000	0.020860 
575.000000	0.021090 
574.000000	0.021460 
573.000000	0.021620 
572.000000	0.021950 
571.000000	0.022250 
570.000000	0.022590 
569.000000	0.022930 
568.000000	0.023240 
567.000000	0.023570 
566.000000	0.023930 
565.000000	0.024270 
564.000000	0.024610 
563.000000	0.025110 
562.000000	0.025410 
561.000000	0.026050 
560.000000	0.026260 
559.000000	0.026540 
558.000000	0.027210 
557.000000	0.027750 
556.000000	0.028270 
555.000000	0.028820 
554.000000	0.029420 
553.000000	0.029880 
552.000000	0.030550 
551.000000	0.031400 
550.000000	0.032130 
549.000000	0.032760 
548.000000	0.033490 
547.000000	0.034350 
546.000000	0.035370 
545.000000	0.036180 
544.000000	0.037270 
543.000000	0.038350 
542.000000	0.039580 
541.000000	0.040760 
540.000000	0.042040 
539.000000	0.043410 
538.000000	0.044760 
537.000000	0.046470 
536.000000	0.048120 
535.000000	0.049960 
534.000000	0.051850 
533.000000	0.053840 
532.000000	0.056190 
531.000000	0.058550 
530.000000	0.060960 
529.000000	0.063500 
528.000000	0.066160 
527.000000	0.069070 
526.000000	0.072140 
525.000000	0.075480 
524.000000	0.078760 
523.000000	0.082419 
522.000000	0.086170 
521.000000	0.089960 
520.000000	0.093979 
519.000000	0.098230 
518.000000	0.102410 
517.000000	0.106990 
516.000000	0.111670 
515.000000	0.116470 
514.000000	0.121640 
513.000000	0.127330 
512.000000	0.133050 
511.000000	0.138630 
510.000000	0.144440 
509.000000	0.150350 
508.000000	0.156600 
507.000000	0.163150 
506.000000	0.169990 
505.000000	0.177030 
504.000000	0.184130 
503.000000	0.191630 
502.000000	0.199220 
501.000000	0.206710 
500.000000	0.214480 
499.000000	0.222610 
498.000000	0.230410 
497.000000	0.238830 
496.000000	0.247240 
495.000000	0.255980 
494.000000	0.264640 
493.000000	0.273030 
492.000000	0.281460 
491.000000	0.289950 
490.000000	0.298440 
489.000000	0.306750 
488.000000	0.315080 
487.000000	0.323590 
486.000000	0.331910 
485.000000	0.340460 
484.000000	0.348630 
483.000000	0.356880 
482.000000	0.364850 
481.000000	0.372820 
480.000000	0.380050 
479.000000	0.387620 
478.000000	0.395020 
477.000000	0.402280 
476.000000	0.409390 
475.000000	0.416260 
474.000000	0.422690 
473.000000	0.428810 
472.000000	0.434460 
471.000000	0.439880 
470.000000	0.445130 
469.000000	0.449850 
468.000000	0.454300 
467.000000	0.458320 
466.000000	0.461740 
465.000000	0.465270 
464.000000	0.468070 
463.000000	0.470490 
462.000000	0.472170 
461.000000	0.473680 
460.000000	0.474890 
459.000000	0.475410 
458.000000	0.475420 
457.000000	0.475350 
456.000000	0.475010 
455.000000	0.474180 
454.000000	0.472560 
453.000000	0.470490 
452.000000	0.468770 
451.000000	0.465790 
450.000000	0.462480 
449.000000	0.459590 
448.000000	0.455500 
447.000000	0.451360 
446.000000	0.446810 
445.000000	0.441490 
444.000000	0.436570 
443.000000	0.430960 
442.000000	0.424500 
441.000000	0.418860 
440.000000	0.412240 
439.000000	0.405480 
438.000000	0.398230 
437.000000	0.391270 
436.000000	0.383400 
435.000000	0.376200 
434.000000	0.368590 
433.000000	0.360610 
432.000000	0.353270 
431.000000	0.345870 
430.000000	0.337780 
429.000000	0.329820 
428.000000	0.321500 
427.000000	0.313240 
426.000000	0.305040 
425.000000	0.297280 
424.000000	0.288850 
423.000000	0.281510 
422.000000	0.273390 
421.000000	0.266640 
420.000000	0.258920 
419.000000	0.250930 
418.000000	0.243050 
417.000000	0.235540 
416.000000	0.228240 
415.000000	0.220920 
414.000000	0.213970 
413.000000	0.207150 
412.000000	0.200410 
411.000000	0.193560 
410.000000	0.187220 
409.000000	0.180970 
408.000000	0.174920 
407.000000	0.169440 
406.000000	0.164490 
405.000000	0.159850 
404.000000	0.155600 
403.000000	0.151920 
402.000000	0.148490 
401.000000	0.145840 
400.000000	0.143350 

