PE UV                   SPECTRUM    ASCII       PEDS        1.60        
  -1
23MS101.SP
24/09/12
15:36:17.00
24/09/12
15:37:25.00


400.000000
1









4444

SCAN
1
1


0.0
480.0
2.00
MANUAL



UV/VIS




































#HDR
-1
-1
#GR
NM
A
0.00000011920928955078
0.0
700.000000
1.000000
301
8
0.519190
0.012350
#DATA
700.000000	0.012350 
699.000000	0.012410 
698.000000	0.012490 
697.000000	0.012550 
696.000000	0.012520 
695.000000	0.012490 
694.000000	0.012620 
693.000000	0.012590 
692.000000	0.012560 
691.000000	0.012880 
690.000000	0.012780 
689.000000	0.012750 
688.000000	0.012920 
687.000000	0.012870 
686.000000	0.012930 
685.000000	0.012970 
684.000000	0.012920 
683.000000	0.012860 
682.000000	0.013050 
681.000000	0.013210 
680.000000	0.013270 
679.000000	0.013290 
678.000000	0.013370 
677.000000	0.013320 
676.000000	0.013470 
675.000000	0.013440 
674.000000	0.013500 
673.000000	0.013550 
672.000000	0.013660 
671.000000	0.013640 
670.000000	0.013730 
669.000000	0.013730 
668.000000	0.013730 
667.000000	0.013940 
666.000000	0.013830 
665.000000	0.013950 
664.000000	0.014000 
663.000000	0.014150 
662.000000	0.014130 
661.000000	0.014070 
660.000000	0.014250 
659.000000	0.014380 
658.000000	0.014380 
657.000000	0.014390 
656.000000	0.014490 
655.000000	0.014570 
654.000000	0.014650 
653.000000	0.014740 
652.000000	0.014820 
651.000000	0.014910 
650.000000	0.015030 
649.000000	0.015030 
648.000000	0.015200 
647.000000	0.015150 
646.000000	0.015330 
645.000000	0.015400 
644.000000	0.015390 
643.000000	0.015490 
642.000000	0.015310 
641.000000	0.015480 
640.000000	0.015440 
639.000000	0.015470 
638.000000	0.015500 
637.000000	0.015490 
636.000000	0.015500 
635.000000	0.015590 
634.000000	0.015540 
633.000000	0.015680 
632.000000	0.015600 
631.000000	0.015650 
630.000000	0.015760 
629.000000	0.015770 
628.000000	0.015760 
627.000000	0.015940 
626.000000	0.015900 
625.000000	0.015900 
624.000000	0.015990 
623.000000	0.016120 
622.000000	0.016200 
621.000000	0.016300 
620.000000	0.016280 
619.000000	0.016330 
618.000000	0.016350 
617.000000	0.016460 
616.000000	0.016420 
615.000000	0.016610 
614.000000	0.016680 
613.000000	0.016790 
612.000000	0.016830 
611.000000	0.016820 
610.000000	0.017000 
609.000000	0.017030 
608.000000	0.017180 
607.000000	0.017270 
606.000000	0.017400 
605.000000	0.017520 
604.000000	0.017710 
603.000000	0.017810 
602.000000	0.017910 
601.000000	0.018060 
600.000000	0.018240 
599.000000	0.018370 
598.000000	0.018530 
597.000000	0.018620 
596.000000	0.018850 
595.000000	0.019010 
594.000000	0.019160 
593.000000	0.019290 
592.000000	0.019530 
591.000000	0.019660 
590.000000	0.019860 
589.000000	0.020050 
588.000000	0.020290 
587.000000	0.020560 
586.000000	0.020700 
585.000000	0.021000 
584.000000	0.021190 
583.000000	0.021340 
582.000000	0.021610 
581.000000	0.021760 
580.000000	0.022080 
579.000000	0.022310 
578.000000	0.022560 
577.000000	0.022840 
576.000000	0.023180 
575.000000	0.023300 
574.000000	0.023580 
573.000000	0.023920 
572.000000	0.024150 
571.000000	0.024480 
570.000000	0.024880 
569.000000	0.025190 
568.000000	0.025530 
567.000000	0.025800 
566.000000	0.026200 
565.000000	0.026570 
564.000000	0.026910 
563.000000	0.027300 
562.000000	0.027660 
561.000000	0.028060 
560.000000	0.028640 
559.000000	0.029310 
558.000000	0.029830 
557.000000	0.030500 
556.000000	0.031140 
555.000000	0.031560 
554.000000	0.032180 
553.000000	0.032920 
552.000000	0.033630 
551.000000	0.034300 
550.000000	0.035000 
549.000000	0.035960 
548.000000	0.036940 
547.000000	0.037830 
546.000000	0.038910 
545.000000	0.039850 
544.000000	0.041020 
543.000000	0.042240 
542.000000	0.043600 
541.000000	0.045060 
540.000000	0.046680 
539.000000	0.048160 
538.000000	0.049710 
537.000000	0.051520 
536.000000	0.053470 
535.000000	0.055470 
534.000000	0.057610 
533.000000	0.059880 
532.000000	0.062420 
531.000000	0.065060 
530.000000	0.067870 
529.000000	0.070810 
528.000000	0.073930 
527.000000	0.077010 
526.000000	0.080379 
525.000000	0.083900 
524.000000	0.087560 
523.000000	0.091480 
522.000000	0.095380 
521.000000	0.099849 
520.000000	0.104400 
519.000000	0.108900 
518.000000	0.113470 
517.000000	0.118370 
516.000000	0.123420 
515.000000	0.128750 
514.000000	0.134440 
513.000000	0.140350 
512.000000	0.146660 
511.000000	0.152860 
510.000000	0.159520 
509.000000	0.165980 
508.000000	0.172650 
507.000000	0.179650 
506.000000	0.186820 
505.000000	0.194580 
504.000000	0.202500 
503.000000	0.210510 
502.000000	0.218810 
501.000000	0.227480 
500.000000	0.236170 
499.000000	0.244740 
498.000000	0.253390 
497.000000	0.262410 
496.000000	0.271430 
495.000000	0.281010 
494.000000	0.290430 
493.000000	0.299940 
492.000000	0.309430 
491.000000	0.318620 
490.000000	0.328230 
489.000000	0.337210 
488.000000	0.346370 
487.000000	0.355240 
486.000000	0.364220 
485.000000	0.373410 
484.000000	0.382750 
483.000000	0.391950 
482.000000	0.400560 
481.000000	0.409490 
480.000000	0.417480 
479.000000	0.425340 
478.000000	0.433450 
477.000000	0.441390 
476.000000	0.449010 
475.000000	0.456260 
474.000000	0.463080 
473.000000	0.470000 
472.000000	0.476420 
471.000000	0.482340 
470.000000	0.487850 
469.000000	0.492860 
468.000000	0.497500 
467.000000	0.501590 
466.000000	0.505370 
465.000000	0.508910 
464.000000	0.511960 
463.000000	0.514240 
462.000000	0.516280 
461.000000	0.517660 
460.000000	0.518640 
459.000000	0.519190 
458.000000	0.519070 
457.000000	0.519160 
456.000000	0.518310 
455.000000	0.517050 
454.000000	0.515240 
453.000000	0.513140 
452.000000	0.510690 
451.000000	0.508020 
450.000000	0.504340 
449.000000	0.501020 
448.000000	0.496560 
447.000000	0.491620 
446.000000	0.486560 
445.000000	0.481180 
444.000000	0.474960 
443.000000	0.469020 
442.000000	0.462130 
441.000000	0.455980 
440.000000	0.448780 
439.000000	0.441300 
438.000000	0.433720 
437.000000	0.426090 
436.000000	0.417990 
435.000000	0.409610 
434.000000	0.400930 
433.000000	0.392830 
432.000000	0.384830 
431.000000	0.376250 
430.000000	0.367760 
429.000000	0.359610 
428.000000	0.350590 
427.000000	0.341460 
426.000000	0.332630 
425.000000	0.324010 
424.000000	0.315260 
423.000000	0.306750 
422.000000	0.298240 
421.000000	0.290200 
420.000000	0.281940 
419.000000	0.273570 
418.000000	0.265200 
417.000000	0.257020 
416.000000	0.248940 
415.000000	0.241010 
414.000000	0.233620 
413.000000	0.226440 
412.000000	0.219430 
411.000000	0.212680 
410.000000	0.205800 
409.000000	0.199250 
408.000000	0.192740 
407.000000	0.187010 
406.000000	0.181630 
405.000000	0.177080 
404.000000	0.172690 
403.000000	0.169000 
402.000000	0.165580 
401.000000	0.162870 
400.000000	0.160550 

