PE UV                   SPECTRUM    ASCII       PEDS        1.60        
  -1
23MS006.SP
24/09/10
16:15:23.00
24/09/10
16:16:26.00


400.000000
1









4444

SCAN
1
1


0.0
480.0
2.00
MANUAL



UV/VIS




































#HDR
-1
-1
#GR
NM
A
0.00000011920928955078
0.0
700.000000
1.000000
301
8
0.441870
0.003890
#DATA
700.000000	0.004100 
699.000000	0.004120 
698.000000	0.004070 
697.000000	0.004050 
696.000000	0.003970 
695.000000	0.003900 
694.000000	0.003950 
693.000000	0.003940 
692.000000	0.003920 
691.000000	0.003910 
690.000000	0.003890 
689.000000	0.003930 
688.000000	0.004030 
687.000000	0.003920 
686.000000	0.004040 
685.000000	0.003980 
684.000000	0.004000 
683.000000	0.004360 
682.000000	0.004410 
681.000000	0.004520 
680.000000	0.004430 
679.000000	0.004460 
678.000000	0.004460 
677.000000	0.004260 
676.000000	0.004380 
675.000000	0.004350 
674.000000	0.004320 
673.000000	0.004300 
672.000000	0.004380 
671.000000	0.004290 
670.000000	0.004300 
669.000000	0.004380 
668.000000	0.004380 
667.000000	0.004480 
666.000000	0.004510 
665.000000	0.004450 
664.000000	0.004430 
663.000000	0.004460 
662.000000	0.004460 
661.000000	0.004490 
660.000000	0.004440 
659.000000	0.004520 
658.000000	0.004550 
657.000000	0.004560 
656.000000	0.004670 
655.000000	0.004700 
654.000000	0.004710 
653.000000	0.004690 
652.000000	0.004730 
651.000000	0.004870 
650.000000	0.004860 
649.000000	0.004870 
648.000000	0.004890 
647.000000	0.004920 
646.000000	0.004980 
645.000000	0.004970 
644.000000	0.004980 
643.000000	0.005130 
642.000000	0.005090 
641.000000	0.005130 
640.000000	0.005320 
639.000000	0.005280 
638.000000	0.005270 
637.000000	0.005370 
636.000000	0.005440 
635.000000	0.005560 
634.000000	0.005590 
633.000000	0.005770 
632.000000	0.005860 
631.000000	0.005990 
630.000000	0.006020 
629.000000	0.006130 
628.000000	0.006260 
627.000000	0.006280 
626.000000	0.006420 
625.000000	0.006530 
624.000000	0.006680 
623.000000	0.006810 
622.000000	0.006930 
621.000000	0.007070 
620.000000	0.007180 
619.000000	0.007310 
618.000000	0.007340 
617.000000	0.007530 
616.000000	0.007670 
615.000000	0.007900 
614.000000	0.008030 
613.000000	0.008140 
612.000000	0.008279 
611.000000	0.008480 
610.000000	0.008569 
609.000000	0.008619 
608.000000	0.008860 
607.000000	0.008920 
606.000000	0.009120 
605.000000	0.009080 
604.000000	0.009330 
603.000000	0.009420 
602.000000	0.009509 
601.000000	0.009560 
600.000000	0.009760 
599.000000	0.009769 
598.000000	0.009920 
597.000000	0.009960 
596.000000	0.010110 
595.000000	0.010200 
594.000000	0.010440 
593.000000	0.010540 
592.000000	0.010700 
591.000000	0.010780 
590.000000	0.010990 
589.000000	0.011200 
588.000000	0.011280 
587.000000	0.011620 
586.000000	0.011790 
585.000000	0.011970 
584.000000	0.012270 
583.000000	0.012500 
582.000000	0.012770 
581.000000	0.013050 
580.000000	0.013270 
579.000000	0.013560 
578.000000	0.013860 
577.000000	0.014140 
576.000000	0.014450 
575.000000	0.014780 
574.000000	0.015120 
573.000000	0.015360 
572.000000	0.015830 
571.000000	0.016110 
570.000000	0.016480 
569.000000	0.016880 
568.000000	0.017250 
567.000000	0.017730 
566.000000	0.018200 
565.000000	0.018620 
564.000000	0.019040 
563.000000	0.019580 
562.000000	0.020060 
561.000000	0.020700 
560.000000	0.021270 
559.000000	0.021850 
558.000000	0.023170 
557.000000	0.023800 
556.000000	0.024660 
555.000000	0.025290 
554.000000	0.026000 
553.000000	0.026830 
552.000000	0.027670 
551.000000	0.028670 
550.000000	0.029450 
549.000000	0.030410 
548.000000	0.031440 
547.000000	0.032420 
546.000000	0.033550 
545.000000	0.034540 
544.000000	0.035810 
543.000000	0.037070 
542.000000	0.038400 
541.000000	0.039820 
540.000000	0.041470 
539.000000	0.042980 
538.000000	0.044630 
537.000000	0.046350 
536.000000	0.048140 
535.000000	0.050060 
534.000000	0.052020 
533.000000	0.054240 
532.000000	0.056590 
531.000000	0.059070 
530.000000	0.061630 
529.000000	0.064339 
528.000000	0.067090 
527.000000	0.069950 
526.000000	0.072890 
525.000000	0.076150 
524.000000	0.079490 
523.000000	0.082989 
522.000000	0.086580 
521.000000	0.090560 
520.000000	0.094530 
519.000000	0.098440 
518.000000	0.102460 
517.000000	0.106690 
516.000000	0.111160 
515.000000	0.115630 
514.000000	0.120730 
513.000000	0.125870 
512.000000	0.131240 
511.000000	0.136640 
510.000000	0.142250 
509.000000	0.147850 
508.000000	0.153630 
507.000000	0.159600 
506.000000	0.165900 
505.000000	0.172540 
504.000000	0.179120 
503.000000	0.185910 
502.000000	0.193020 
501.000000	0.200160 
500.000000	0.207520 
499.000000	0.214870 
498.000000	0.222080 
497.000000	0.229580 
496.000000	0.237270 
495.000000	0.245050 
494.000000	0.253130 
493.000000	0.260780 
492.000000	0.268570 
491.000000	0.276450 
490.000000	0.284220 
489.000000	0.291990 
488.000000	0.299610 
487.000000	0.306820 
486.000000	0.314540 
485.000000	0.322090 
484.000000	0.329470 
483.000000	0.337070 
482.000000	0.344310 
481.000000	0.351390 
480.000000	0.358170 
479.000000	0.364720 
478.000000	0.371140 
477.000000	0.377610 
476.000000	0.384010 
475.000000	0.390190 
474.000000	0.395750 
473.000000	0.401440 
472.000000	0.406540 
471.000000	0.411240 
470.000000	0.415960 
469.000000	0.420080 
468.000000	0.423740 
467.000000	0.427370 
466.000000	0.430490 
465.000000	0.433230 
464.000000	0.436020 
463.000000	0.437860 
462.000000	0.439470 
461.000000	0.440710 
460.000000	0.441540 
459.000000	0.441670 
458.000000	0.441870 
457.000000	0.441560 
456.000000	0.440880 
455.000000	0.439580 
454.000000	0.438220 
453.000000	0.436270 
452.000000	0.434110 
451.000000	0.431970 
450.000000	0.428410 
449.000000	0.425580 
448.000000	0.421690 
447.000000	0.417590 
446.000000	0.413250 
445.000000	0.408740 
444.000000	0.403310 
443.000000	0.398080 
442.000000	0.392580 
441.000000	0.386900 
440.000000	0.381110 
439.000000	0.374740 
438.000000	0.367740 
437.000000	0.361120 
436.000000	0.354120 
435.000000	0.347110 
434.000000	0.339680 
433.000000	0.332940 
432.000000	0.325930 
431.000000	0.318950 
430.000000	0.311310 
429.000000	0.304070 
428.000000	0.296480 
427.000000	0.289150 
426.000000	0.281310 
425.000000	0.273720 
424.000000	0.266460 
423.000000	0.258900 
422.000000	0.252280 
421.000000	0.246630 
420.000000	0.239410 
419.000000	0.232020 
418.000000	0.224900 
417.000000	0.218030 
416.000000	0.210990 
415.000000	0.204460 
414.000000	0.197990 
413.000000	0.191910 
412.000000	0.186020 
411.000000	0.180060 
410.000000	0.174400 
409.000000	0.168830 
408.000000	0.163520 
407.000000	0.158590 
406.000000	0.154190 
405.000000	0.150160 
404.000000	0.146530 
403.000000	0.143390 
402.000000	0.140430 
401.000000	0.138180 
400.000000	0.136250 

