PE IR       SUBTECH     SPECTRUM    ASCII       PEDS        4.00        
   -1
23m137_nitro.asc
24/09/06
16:30:39.00
24/09/06
16:30:39.00
Administrator
Sample 1129 By Administrator Date Friday, September 06 2024
400.000000
#HDR
-1
-1
#GR
cm-1
%T
1.0
0.0
4000.000000
-1.000000
3601
8
90.928167
11.829124
#DATA
4000.000000	65.262356
3999.000000	65.295366
3998.000000	65.327899
3997.000000	65.359682
3996.000000	65.390773
3995.000000	65.421474
3994.000000	65.451882
3993.000000	65.482094
3992.000000	65.512831
3991.000000	65.545148
3990.000000	65.578892
3989.000000	65.612227
3988.000000	65.643623
3987.000000	65.673623
3986.000000	65.703986
3985.000000	65.735441
3984.000000	65.767334
3983.000000	65.798953
3982.000000	65.830157
3981.000000	65.860755
3980.000000	65.890029
3979.000000	65.917471
3978.000000	65.943947
3977.000000	65.971186
3976.000000	65.999901
3975.000000	66.028845
3974.000000	66.056348
3973.000000	66.082192
3972.000000	66.107474
3971.000000	66.133899
3970.000000	66.162908
3969.000000	66.194620
3968.000000	66.227355
3967.000000	66.258673
3966.000000	66.286778
3965.000000	66.311816
3964.000000	66.335834
3963.000000	66.360937
3962.000000	66.387748
3961.000000	66.414996
3960.000000	66.440692
3959.000000	66.465308
3958.000000	66.491975
3957.000000	66.522801
3956.000000	66.555993
3955.000000	66.587679
3954.000000	66.615222
3953.000000	66.638154
3952.000000	66.657458
3951.000000	66.675194
3950.000000	66.693539
3949.000000	66.712631
3948.000000	66.731387
3947.000000	66.749256
3946.000000	66.767184
3945.000000	66.789335
3944.000000	66.822371
3943.000000	66.867889
3942.000000	66.916697
3941.000000	66.956294
3940.000000	66.983016
3939.000000	67.005242
3938.000000	67.032897
3937.000000	67.065904
3936.000000	67.094871
3935.000000	67.113464
3934.000000	67.128019
3933.000000	67.150365
3932.000000	67.183428
3931.000000	67.218156
3930.000000	67.244756
3929.000000	67.263874
3928.000000	67.283162
3927.000000	67.309336
3926.000000	67.346239
3925.000000	67.393069
3924.000000	67.438975
3923.000000	67.468218
3922.000000	67.476087
3921.000000	67.475035
3920.000000	67.481628
3919.000000	67.501307
3918.000000	67.529959
3917.000000	67.565471
3916.000000	67.607582
3915.000000	67.651742
3914.000000	67.692921
3913.000000	67.734564
3912.000000	67.781789
3911.000000	67.832469
3910.000000	67.876725
3909.000000	67.907814
3908.000000	67.926181
3907.000000	67.934343
3906.000000	67.932268
3905.000000	67.920230
3904.000000	67.900530
3903.000000	67.876328
3902.000000	67.853783
3901.000000	67.845062
3900.000000	67.865103
3899.000000	67.916093
3898.000000	67.979850
3897.000000	68.037398
3896.000000	68.085224
3895.000000	68.133404
3894.000000	68.188670
3893.000000	68.247016
3892.000000	68.296872
3891.000000	68.334009
3890.000000	68.358178
3889.000000	68.362580
3888.000000	68.343853
3887.000000	68.324377
3886.000000	68.339057
3885.000000	68.389709
3884.000000	68.435255
3883.000000	68.446245
3882.000000	68.442496
3881.000000	68.465138
3880.000000	68.523541
3879.000000	68.587553
3878.000000	68.624738
3877.000000	68.630883
3876.000000	68.631627
3875.000000	68.661529
3874.000000	68.725564
3873.000000	68.783330
3872.000000	68.790724
3871.000000	68.758181
3870.000000	68.742451
3869.000000	68.770219
3868.000000	68.803534
3867.000000	68.802756
3866.000000	68.788486
3865.000000	68.813715
3864.000000	68.885512
3863.000000	68.959177
3862.000000	69.001883
3861.000000	69.024908
3860.000000	69.055686
3859.000000	69.116326
3858.000000	69.211162
3857.000000	69.319572
3856.000000	69.394708
3855.000000	69.396426
3854.000000	69.339353
3853.000000	69.274186
3852.000000	69.228251
3851.000000	69.204041
3850.000000	69.206569
3849.000000	69.247661
3848.000000	69.325588
3847.000000	69.419875
3846.000000	69.507842
3845.000000	69.576865
3844.000000	69.622569
3843.000000	69.650432
3842.000000	69.665440
3841.000000	69.668701
3840.000000	69.663133
3839.000000	69.656884
3838.000000	69.655577
3837.000000	69.663349
3836.000000	69.682587
3835.000000	69.712097
3834.000000	69.748446
3833.000000	69.792989
3832.000000	69.851118
3831.000000	69.919932
3830.000000	69.984815
3829.000000	70.034157
3828.000000	70.070404
3827.000000	70.110592
3826.000000	70.164302
3825.000000	70.214010
3824.000000	70.227188
3823.000000	70.201279
3822.000000	70.181309
3821.000000	70.210019
3820.000000	70.267225
3819.000000	70.298143
3818.000000	70.284487
3817.000000	70.266789
3816.000000	70.303756
3815.000000	70.397291
3814.000000	70.490378
3813.000000	70.545046
3812.000000	70.580456
3811.000000	70.629910
3810.000000	70.693782
3809.000000	70.742683
3808.000000	70.761525
3807.000000	70.772152
3806.000000	70.795194
3805.000000	70.814699
3804.000000	70.804431
3803.000000	70.777083
3802.000000	70.777921
3801.000000	70.823831
3800.000000	70.874310
3799.000000	70.890865
3798.000000	70.889263
3797.000000	70.915131
3796.000000	70.989920
3795.000000	71.088493
3794.000000	71.173829
3793.000000	71.236418
3792.000000	71.292359
3791.000000	71.353113
3790.000000	71.412135
3789.000000	71.457057
3788.000000	71.485563
3787.000000	71.504822
3786.000000	71.523764
3785.000000	71.547797
3784.000000	71.575678
3783.000000	71.598939
3782.000000	71.611801
3781.000000	71.624706
3780.000000	71.656213
3779.000000	71.709172
3778.000000	71.763521
3777.000000	71.799564
3776.000000	71.818199
3775.000000	71.838474
3774.000000	71.872653
3773.000000	71.910205
3772.000000	71.933541
3771.000000	71.946579
3770.000000	71.966309
3769.000000	71.992900
3768.000000	72.011052
3767.000000	72.018552
3766.000000	72.034884
3765.000000	72.077056
3764.000000	72.132828
3763.000000	72.170718
3762.000000	72.178452
3761.000000	72.182094
3760.000000	72.209593
3759.000000	72.251912
3758.000000	72.284238
3757.000000	72.305734
3756.000000	72.326233
3755.000000	72.341710
3754.000000	72.344771
3753.000000	72.344095
3752.000000	72.350049
3751.000000	72.346957
3750.000000	72.322912
3749.000000	72.309238
3748.000000	72.328740
3747.000000	72.354678
3746.000000	72.361568
3745.000000	72.376326
3744.000000	72.438577
3743.000000	72.525290
3742.000000	72.581264
3741.000000	72.602020
3740.000000	72.622882
3739.000000	72.659211
3738.000000	72.695754
3737.000000	72.729464
3736.000000	72.783176
3735.000000	72.856123
3734.000000	72.911553
3733.000000	72.937316
3732.000000	72.966663
3731.000000	73.027081
3730.000000	73.106404
3729.000000	73.174894
3728.000000	73.227559
3727.000000	73.287607
3726.000000	73.366356
3725.000000	73.439568
3724.000000	73.484460
3723.000000	73.512684
3722.000000	73.547721
3721.000000	73.596790
3720.000000	73.650883
3719.000000	73.700777
3718.000000	73.747771
3717.000000	73.798190
3716.000000	73.846011
3715.000000	73.875694
3714.000000	73.883492
3713.000000	73.887033
3712.000000	73.905467
3711.000000	73.935905
3710.000000	73.966347
3709.000000	73.997218
3708.000000	74.037414
3707.000000	74.094016
3706.000000	74.163284
3705.000000	74.233608
3704.000000	74.298259
3703.000000	74.362634
3702.000000	74.432492
3701.000000	74.500991
3700.000000	74.555482
3699.000000	74.590093
3698.000000	74.613499
3697.000000	74.644168
3696.000000	74.687513
3695.000000	74.725272
3694.000000	74.740224
3693.000000	74.741078
3692.000000	74.749822
3691.000000	74.772575
3690.000000	74.793761
3689.000000	74.802776
3688.000000	74.814654
3687.000000	74.848189
3686.000000	74.897443
3685.000000	74.949384
3684.000000	75.003557
3683.000000	75.060843
3682.000000	75.112375
3681.000000	75.149508
3680.000000	75.178888
3679.000000	75.199680
3678.000000	75.187057
3677.000000	75.135458
3676.000000	75.098537
3675.000000	75.119475
3674.000000	75.161951
3673.000000	75.165955
3672.000000	75.127504
3671.000000	75.116223
3670.000000	75.195244
3669.000000	75.329645
3668.000000	75.442617
3667.000000	75.513743
3666.000000	75.569232
3665.000000	75.636770
3664.000000	75.720923
3663.000000	75.806955
3662.000000	75.881441
3661.000000	75.940361
3660.000000	75.981801
3659.000000	75.998160
3658.000000	75.987941
3657.000000	75.967646
3656.000000	75.958524
3655.000000	75.957112
3654.000000	75.935522
3653.000000	75.874236
3652.000000	75.791631
3651.000000	75.733721
3650.000000	75.725056
3649.000000	75.741242
3648.000000	75.763781
3647.000000	75.808114
3646.000000	75.879152
3645.000000	75.959669
3644.000000	76.037339
3643.000000	76.115450
3642.000000	76.197990
3641.000000	76.274627
3640.000000	76.328913
3639.000000	76.359499
3638.000000	76.378503
3637.000000	76.391033
3636.000000	76.392416
3635.000000	76.387079
3634.000000	76.390406
3633.000000	76.399295
3632.000000	76.381205
3631.000000	76.313198
3630.000000	76.230460
3629.000000	76.198087
3628.000000	76.219518
3627.000000	76.249050
3626.000000	76.264960
3625.000000	76.279844
3624.000000	76.310995
3623.000000	76.355355
3622.000000	76.390238
3621.000000	76.402036
3620.000000	76.400242
3619.000000	76.395695
3618.000000	76.383897
3617.000000	76.357738
3616.000000	76.319624
3615.000000	76.286658
3614.000000	76.279958
3613.000000	76.298412
3612.000000	76.315079
3611.000000	76.307871
3610.000000	76.288018
3609.000000	76.293138
3608.000000	76.343736
3607.000000	76.418685
3606.000000	76.483301
3605.000000	76.522627
3604.000000	76.544511
3603.000000	76.562897
3602.000000	76.582988
3601.000000	76.600775
3600.000000	76.609082
3599.000000	76.600705
3598.000000	76.578461
3597.000000	76.555935
3596.000000	76.548210
3595.000000	76.561279
3594.000000	76.587095
3593.000000	76.606586
3592.000000	76.602819
3591.000000	76.569297
3590.000000	76.517351
3589.000000	76.478760
3588.000000	76.482668
3587.000000	76.521301
3586.000000	76.561820
3585.000000	76.587555
3584.000000	76.606816
3583.000000	76.634366
3582.000000	76.675634
3581.000000	76.723468
3580.000000	76.766392
3579.000000	76.796941
3578.000000	76.814629
3577.000000	76.822961
3576.000000	76.826056
3575.000000	76.826629
3574.000000	76.825004
3573.000000	76.817310
3572.000000	76.796620
3571.000000	76.755944
3570.000000	76.694336
3569.000000	76.630258
3568.000000	76.598203
3567.000000	76.614641
3566.000000	76.657265
3565.000000	76.696509
3564.000000	76.724905
3563.000000	76.753436
3562.000000	76.792735
3561.000000	76.840983
3560.000000	76.887133
3559.000000	76.921922
3558.000000	76.943496
3557.000000	76.955166
3556.000000	76.961878
3555.000000	76.968942
3554.000000	76.981308
3553.000000	77.000213
3552.000000	77.019157
3551.000000	77.026810
3550.000000	77.015492
3549.000000	76.990255
3548.000000	76.968785
3547.000000	76.968449
3546.000000	76.990714
3545.000000	77.022404
3544.000000	77.051444
3543.000000	77.076246
3542.000000	77.100810
3541.000000	77.127171
3540.000000	77.154629
3539.000000	77.181887
3538.000000	77.208187
3537.000000	77.231955
3536.000000	77.249444
3535.000000	77.256659
3534.000000	77.252421
3533.000000	77.240723
3532.000000	77.229150
3531.000000	77.223955
3530.000000	77.225784
3529.000000	77.231389
3528.000000	77.238565
3527.000000	77.247436
3526.000000	77.258856
3525.000000	77.274363
3524.000000	77.295586
3523.000000	77.320050
3522.000000	77.340378
3521.000000	77.351230
3520.000000	77.356177
3519.000000	77.364160
3518.000000	77.379890
3517.000000	77.400009
3516.000000	77.418518
3515.000000	77.432747
3514.000000	77.441803
3513.000000	77.443437
3512.000000	77.437489
3511.000000	77.429369
3510.000000	77.424768
3509.000000	77.422517
3508.000000	77.416036
3507.000000	77.401653
3506.000000	77.383556
3505.000000	77.371382
3504.000000	77.372301
3503.000000	77.384197
3502.000000	77.397601
3501.000000	77.404926
3500.000000	77.406832
3499.000000	77.408685
3498.000000	77.413481
3497.000000	77.418837
3496.000000	77.419708
3495.000000	77.412423
3494.000000	77.396190
3493.000000	77.372506
3492.000000	77.344969
3491.000000	77.318526
3490.000000	77.296988
3489.000000	77.281755
3488.000000	77.272156
3487.000000	77.264690
3486.000000	77.253328
3485.000000	77.233791
3484.000000	77.208149
3483.000000	77.182990
3482.000000	77.161103
3481.000000	77.137719
3480.000000	77.106297
3479.000000	77.066161
3478.000000	77.023112
3477.000000	76.984724
3476.000000	76.955967
3475.000000	76.936710
3474.000000	76.922425
3473.000000	76.907744
3472.000000	76.889465
3471.000000	76.865991
3470.000000	76.834531
3469.000000	76.791422
3468.000000	76.735994
3467.000000	76.671732
3466.000000	76.603487
3465.000000	76.535746
3464.000000	76.473667
3463.000000	76.422001
3462.000000	76.380416
3461.000000	76.342265
3460.000000	76.299693
3459.000000	76.249032
3458.000000	76.190888
3457.000000	76.127021
3456.000000	76.059263
3455.000000	75.989349
3454.000000	75.917768
3453.000000	75.844146
3452.000000	75.768801
3451.000000	75.692744
3450.000000	75.616515
3449.000000	75.540835
3448.000000	75.467835
3447.000000	75.398137
3446.000000	75.327541
3445.000000	75.250627
3444.000000	75.167340
3443.000000	75.082773
3442.000000	75.000035
3441.000000	74.916589
3440.000000	74.828997
3439.000000	74.737711
3438.000000	74.644735
3437.000000	74.549194
3436.000000	74.448773
3435.000000	74.343701
3434.000000	74.236567
3433.000000	74.129792
3432.000000	74.023558
3431.000000	73.915141
3430.000000	73.799329
3429.000000	73.671043
3428.000000	73.529251
3427.000000	73.377110
3426.000000	73.218936
3425.000000	73.058395
3424.000000	72.899279
3423.000000	72.745635
3422.000000	72.599260
3421.000000	72.457978
3420.000000	72.317011
3419.000000	72.171274
3418.000000	72.016641
3417.000000	71.850897
3416.000000	71.674387
3415.000000	71.488530
3414.000000	71.293571
3413.000000	71.089673
3412.000000	70.879642
3411.000000	70.668385
3410.000000	70.458838
3409.000000	70.249749
3408.000000	70.038040
3407.000000	69.821354
3406.000000	69.598540
3405.000000	69.369312
3404.000000	69.133535
3403.000000	68.889823
3402.000000	68.634198
3401.000000	68.362222
3400.000000	68.073408
3399.000000	67.772747
3398.000000	67.467642
3397.000000	67.163532
3396.000000	66.861961
3395.000000	66.561407
3394.000000	66.258234
3393.000000	65.947504
3392.000000	65.624058
3391.000000	65.283930
3390.000000	64.926715
3389.000000	64.556204
3388.000000	64.177836
3387.000000	63.794534
3386.000000	63.405537
3385.000000	63.010017
3384.000000	62.609287
3383.000000	62.205127
3382.000000	61.797350
3381.000000	61.384407
3380.000000	60.965189
3379.000000	60.538574
3378.000000	60.102527
3377.000000	59.655167
3376.000000	59.196031
3375.000000	58.725941
3374.000000	58.246484
3373.000000	57.760131
3372.000000	57.269676
3371.000000	56.775755
3370.000000	56.276807
3369.000000	55.771525
3368.000000	55.260262
3367.000000	54.743609
3366.000000	54.221034
3365.000000	53.692213
3364.000000	53.157425
3363.000000	52.615848
3362.000000	52.065648
3361.000000	51.506664
3360.000000	50.941630
3359.000000	50.373820
3358.000000	49.805055
3357.000000	49.236969
3356.000000	48.671454
3355.000000	48.108924
3354.000000	47.547643
3353.000000	46.985418
3352.000000	46.420501
3351.000000	45.850802
3350.000000	45.274800
3349.000000	44.693879
3348.000000	44.111657
3347.000000	43.530659
3346.000000	42.951558
3345.000000	42.375693
3344.000000	41.805328
3343.000000	41.241070
3342.000000	40.681441
3341.000000	40.125394
3340.000000	39.572918
3339.000000	39.023201
3338.000000	38.474964
3337.000000	37.928682
3336.000000	37.386082
3335.000000	36.847516
3334.000000	36.312398
3333.000000	35.782064
3332.000000	35.258940
3331.000000	34.743333
3330.000000	34.233816
3329.000000	33.730350
3328.000000	33.234466
3327.000000	32.746301
3326.000000	32.264922
3325.000000	31.790980
3324.000000	31.325619
3323.000000	30.867703
3322.000000	30.415012
3321.000000	29.967754
3320.000000	29.528088
3319.000000	29.096382
3318.000000	28.672102
3317.000000	28.256764
3316.000000	27.852803
3315.000000	27.460123
3314.000000	27.076685
3313.000000	26.701970
3312.000000	26.336255
3311.000000	25.977722
3310.000000	25.624675
3309.000000	25.279114
3308.000000	24.945308
3307.000000	24.625462
3306.000000	24.320057
3305.000000	24.031360
3304.000000	23.761053
3303.000000	23.506588
3302.000000	23.263309
3301.000000	23.029382
3300.000000	22.805518
3299.000000	22.590839
3298.000000	22.383861
3297.000000	22.186274
3296.000000	22.000962
3295.000000	21.827981
3294.000000	21.665787
3293.000000	21.515714
3292.000000	21.381081
3291.000000	21.261732
3290.000000	21.154566
3289.000000	21.057424
3288.000000	20.969597
3287.000000	20.889522
3286.000000	20.815403
3285.000000	20.748090
3284.000000	20.688891
3283.000000	20.636266
3282.000000	20.587903
3281.000000	20.544319
3280.000000	20.507289
3279.000000	20.475817
3278.000000	20.447679
3277.000000	20.423554
3276.000000	20.405440
3275.000000	20.392403
3274.000000	20.381576
3273.000000	20.372664
3272.000000	20.368101
3271.000000	20.369301
3270.000000	20.375941
3269.000000	20.387476
3268.000000	20.402240
3267.000000	20.416752
3266.000000	20.428895
3265.000000	20.440696
3264.000000	20.455129
3263.000000	20.471821
3262.000000	20.489093
3261.000000	20.507631
3260.000000	20.528844
3259.000000	20.551532
3258.000000	20.573765
3257.000000	20.596653
3256.000000	20.622470
3255.000000	20.650709
3254.000000	20.679195
3253.000000	20.707656
3252.000000	20.736790
3251.000000	20.765536
3250.000000	20.792729
3249.000000	20.820189
3248.000000	20.850894
3247.000000	20.885240
3246.000000	20.921665
3245.000000	20.959248
3244.000000	20.997009
3243.000000	21.032635
3242.000000	21.065101
3241.000000	21.096710
3240.000000	21.129838
3239.000000	21.163316
3238.000000	21.194829
3237.000000	21.224683
3236.000000	21.254547
3235.000000	21.284669
3234.000000	21.315338
3233.000000	21.348758
3232.000000	21.385973
3231.000000	21.423941
3230.000000	21.458864
3229.000000	21.490485
3228.000000	21.520287
3227.000000	21.547837
3226.000000	21.572259
3225.000000	21.595279
3224.000000	21.619079
3223.000000	21.642900
3222.000000	21.664805
3221.000000	21.685037
3220.000000	21.704623
3219.000000	21.722573
3218.000000	21.737684
3217.000000	21.751190
3216.000000	21.764584
3215.000000	21.776650
3214.000000	21.785463
3213.000000	21.791642
3212.000000	21.796638
3211.000000	21.799805
3210.000000	21.800170
3209.000000	21.798941
3208.000000	21.797474
3207.000000	21.794571
3206.000000	21.788628
3205.000000	21.780532
3204.000000	21.771405
3203.000000	21.759736
3202.000000	21.743728
3201.000000	21.724369
3200.000000	21.703469
3199.000000	21.680446
3198.000000	21.654107
3197.000000	21.625547
3196.000000	21.596355
3195.000000	21.566052
3194.000000	21.533907
3193.000000	21.501211
3192.000000	21.468957
3191.000000	21.435353
3190.000000	21.398612
3189.000000	21.359975
3188.000000	21.321254
3187.000000	21.281653
3186.000000	21.239926
3185.000000	21.197423
3184.000000	21.156097
3183.000000	21.115563
3182.000000	21.074902
3181.000000	21.035186
3180.000000	20.997376
3179.000000	20.959916
3178.000000	20.921212
3177.000000	20.882420
3176.000000	20.845197
3175.000000	20.808948
3174.000000	20.772988
3173.000000	20.738968
3172.000000	20.708352
3171.000000	20.679960
3170.000000	20.652574
3169.000000	20.627581
3168.000000	20.606416
3167.000000	20.587728
3166.000000	20.569977
3165.000000	20.554196
3164.000000	20.541609
3163.000000	20.531092
3162.000000	20.521488
3161.000000	20.514052
3160.000000	20.509859
3159.000000	20.507423
3158.000000	20.505586
3157.000000	20.505848
3156.000000	20.509416
3155.000000	20.514819
3154.000000	20.521292
3153.000000	20.531725
3152.000000	20.548850
3151.000000	20.571240
3150.000000	20.595793
3149.000000	20.621614
3148.000000	20.648771
3147.000000	20.675968
3146.000000	20.702734
3145.000000	20.731398
3144.000000	20.763756
3143.000000	20.798227
3142.000000	20.832981
3141.000000	20.869632
3140.000000	20.910885
3139.000000	20.956681
3138.000000	21.005403
3137.000000	21.056437
3136.000000	21.109099
3135.000000	21.161476
3134.000000	21.212731
3133.000000	21.264660
3132.000000	21.318719
3131.000000	21.374233
3130.000000	21.431363
3129.000000	21.492616
3128.000000	21.559060
3127.000000	21.627848
3126.000000	21.696059
3125.000000	21.764160
3124.000000	21.833223
3123.000000	21.901955
3122.000000	21.969418
3121.000000	22.037846
3120.000000	22.109784
3119.000000	22.184820
3118.000000	22.261954
3117.000000	22.342532
3116.000000	22.428014
3115.000000	22.517212
3114.000000	22.608047
3113.000000	22.699947
3112.000000	22.792330
3111.000000	22.883545
3110.000000	22.973642
3109.000000	23.065529
3108.000000	23.161041
3107.000000	23.258344
3106.000000	23.355269
3105.000000	23.452565
3104.000000	23.551640
3103.000000	23.651916
3102.000000	23.753007
3101.000000	23.856667
3100.000000	23.964222
3099.000000	24.074248
3098.000000	24.185107
3097.000000	24.297120
3096.000000	24.410139
3095.000000	24.521857
3094.000000	24.630894
3093.000000	24.739193
3092.000000	24.849234
3091.000000	24.961311
3090.000000	25.075325
3089.000000	25.192302
3088.000000	25.311965
3087.000000	25.431610
3086.000000	25.549710
3085.000000	25.668157
3084.000000	25.788797
3083.000000	25.910294
3082.000000	26.030740
3081.000000	26.150681
3080.000000	26.271492
3079.000000	26.393195
3078.000000	26.515980
3077.000000	26.641292
3076.000000	26.769275
3075.000000	26.897643
3074.000000	27.024950
3073.000000	27.152492
3072.000000	27.281092
3071.000000	27.408717
3070.000000	27.533656
3069.000000	27.657437
3068.000000	27.782334
3067.000000	27.908191
3066.000000	28.033841
3065.000000	28.159451
3064.000000	28.285365
3063.000000	28.410825
3062.000000	28.535811
3061.000000	28.662008
3060.000000	28.790172
3059.000000	28.918696
3058.000000	29.046301
3057.000000	29.173864
3056.000000	29.301831
3055.000000	29.428383
3054.000000	29.551998
3053.000000	29.673774
3052.000000	29.795457
3051.000000	29.917293
3050.000000	30.039332
3049.000000	30.162471
3048.000000	30.286683
3047.000000	30.410454
3046.000000	30.533464
3045.000000	30.657439
3044.000000	30.783010
3043.000000	30.908234
3042.000000	31.031774
3041.000000	31.154714
3040.000000	31.277653
3039.000000	31.398587
3038.000000	31.515858
3037.000000	31.630925
3036.000000	31.746439
3035.000000	31.863679
3034.000000	31.983380
3033.000000	32.106564
3032.000000	32.232537
3031.000000	32.358240
3030.000000	32.481353
3029.000000	32.602131
3028.000000	32.721004
3027.000000	32.836954
3026.000000	32.949986
3025.000000	33.062657
3024.000000	33.177171
3023.000000	33.292948
3022.000000	33.408675
3021.000000	33.524481
3020.000000	33.640438
3019.000000	33.755036
3018.000000	33.867208
3017.000000	33.977951
3016.000000	34.088430
3015.000000	34.198372
3014.000000	34.307842
3013.000000	34.418582
3012.000000	34.531831
3011.000000	34.646674
3010.000000	34.761847
3009.000000	34.877315
3008.000000	34.992800
3007.000000	35.106914
3006.000000	35.219210
3005.000000	35.331169
3004.000000	35.443797
3003.000000	35.555903
3002.000000	35.665994
3001.000000	35.773934
3000.000000	35.879819
2999.000000	35.983307
2998.000000	36.085324
2997.000000	36.188163
2996.000000	36.292598
2995.000000	36.397005
2994.000000	36.500609
2993.000000	36.605424
2992.000000	36.713405
2991.000000	36.823751
2990.000000	36.934478
2989.000000	37.044634
2988.000000	37.153393
2987.000000	37.259050
2986.000000	37.360699
2985.000000	37.459463
2984.000000	37.556731
2983.000000	37.652917
2982.000000	37.749164
2981.000000	37.848213
2980.000000	37.951826
2979.000000	38.058628
2978.000000	38.165924
2977.000000	38.272244
2976.000000	38.377130
2975.000000	38.480094
2974.000000	38.581257
2973.000000	38.681542
2972.000000	38.781265
2971.000000	38.879863
2970.000000	38.977843
2969.000000	39.077164
2968.000000	39.178670
2967.000000	39.280926
2966.000000	39.382549
2965.000000	39.483812
2964.000000	39.584934
2963.000000	39.684776
2962.000000	39.782481
2961.000000	39.878543
2960.000000	39.973147
2959.000000	40.065546
2958.000000	40.156042
2957.000000	40.246521
2956.000000	40.337721
2955.000000	40.428253
2954.000000	40.517586
2953.000000	40.607653
2952.000000	40.699886
2951.000000	40.792605
2950.000000	40.883224
2949.000000	40.971387
2948.000000	41.058518
2947.000000	41.145828
2946.000000	41.234255
2945.000000	41.324898
2944.000000	41.417945
2943.000000	41.512103
2942.000000	41.606089
2941.000000	41.699629
2940.000000	41.792394
2939.000000	41.883545
2938.000000	41.973198
2937.000000	42.062761
2936.000000	42.152901
2935.000000	42.242414
2934.000000	42.329877
2933.000000	42.414866
2932.000000	42.497209
2931.000000	42.576965
2930.000000	42.655903
2929.000000	42.736863
2928.000000	42.820599
2927.000000	42.905070
2926.000000	42.988739
2925.000000	43.072437
2924.000000	43.157042
2923.000000	43.241366
2922.000000	43.323611
2921.000000	43.403104
2920.000000	43.479612
2919.000000	43.552852
2918.000000	43.623744
2917.000000	43.694554
2916.000000	43.766897
2915.000000	43.840995
2914.000000	43.917289
2913.000000	43.996771
2912.000000	44.079018
2911.000000	44.161745
2910.000000	44.243057
2909.000000	44.322749
2908.000000	44.400670
2907.000000	44.475990
2906.000000	44.548743
2905.000000	44.620462
2904.000000	44.692377
2903.000000	44.764544
2902.000000	44.837231
2901.000000	44.912092
2900.000000	44.989337
2899.000000	45.067459
2898.000000	45.144871
2897.000000	45.221016
2896.000000	45.295216
2895.000000	45.366326
2894.000000	45.434549
2893.000000	45.501981
2892.000000	45.570337
2891.000000	45.639545
2890.000000	45.709191
2889.000000	45.779651
2888.000000	45.850798
2887.000000	45.921273
2886.000000	45.990225
2885.000000	46.058524
2884.000000	46.127306
2883.000000	46.196604
2882.000000	46.266239
2881.000000	46.336697
2880.000000	46.408155
2879.000000	46.479952
2878.000000	46.552078
2877.000000	46.625826
2876.000000	46.701569
2875.000000	46.776696
2874.000000	46.847074
2873.000000	46.910445
2872.000000	46.968199
2871.000000	47.024553
2870.000000	47.084260
2869.000000	47.149870
2868.000000	47.220144
2867.000000	47.291378
2866.000000	47.360529
2865.000000	47.426725
2864.000000	47.490519
2863.000000	47.553036
2862.000000	47.615703
2861.000000	47.679194
2860.000000	47.742530
2859.000000	47.804619
2858.000000	47.866648
2857.000000	47.931244
2856.000000	47.999082
2855.000000	48.067968
2854.000000	48.135523
2853.000000	48.201116
2852.000000	48.265086
2851.000000	48.327921
2850.000000	48.390595
2849.000000	48.453965
2848.000000	48.517451
2847.000000	48.579886
2846.000000	48.641943
2845.000000	48.705944
2844.000000	48.773188
2843.000000	48.843174
2842.000000	48.915418
2841.000000	48.989422
2840.000000	49.062374
2839.000000	49.129583
2838.000000	49.189018
2837.000000	49.243823
2836.000000	49.299014
2835.000000	49.357028
2834.000000	49.417367
2833.000000	49.478841
2832.000000	49.540543
2831.000000	49.601735
2830.000000	49.662416
2829.000000	49.723639
2828.000000	49.786437
2827.000000	49.850999
2826.000000	49.917341
2825.000000	49.985727
2824.000000	50.055673
2823.000000	50.125451
2822.000000	50.193377
2821.000000	50.258892
2820.000000	50.322018
2819.000000	50.382881
2818.000000	50.442390
2817.000000	50.502346
2816.000000	50.564116
2815.000000	50.627984
2814.000000	50.694172
2813.000000	50.763142
2812.000000	50.834065
2811.000000	50.904044
2810.000000	50.969932
2809.000000	51.030418
2808.000000	51.085956
2807.000000	51.137758
2806.000000	51.187662
2805.000000	51.237951
2804.000000	51.290269
2803.000000	51.345055
2802.000000	51.402317
2801.000000	51.461995
2800.000000	51.522865
2799.000000	51.582168
2798.000000	51.637418
2797.000000	51.688265
2796.000000	51.736097
2795.000000	51.782614
2794.000000	51.829420
2793.000000	51.878134
2792.000000	51.929728
2791.000000	51.983824
2790.000000	52.039149
2789.000000	52.094448
2788.000000	52.148876
2787.000000	52.202210
2786.000000	52.255117
2785.000000	52.308622
2784.000000	52.362947
2783.000000	52.417332
2782.000000	52.471203
2781.000000	52.524735
2780.000000	52.577922
2779.000000	52.629928
2778.000000	52.679789
2777.000000	52.727029
2776.000000	52.771253
2775.000000	52.811919
2774.000000	52.849162
2773.000000	52.884309
2772.000000	52.918938
2771.000000	52.953807
2770.000000	52.988731
2769.000000	53.022680
2768.000000	53.053636
2767.000000	53.079057
2766.000000	53.097328
2765.000000	53.108492
2764.000000	53.113531
2763.000000	53.113843
2762.000000	53.111599
2761.000000	53.109667
2760.000000	53.110347
2759.000000	53.114347
2758.000000	53.121200
2757.000000	53.129740
2756.000000	53.137792
2755.000000	53.142401
2754.000000	53.141246
2753.000000	53.133749
2752.000000	53.120572
2751.000000	53.102850
2750.000000	53.082269
2749.000000	53.060833
2748.000000	53.039763
2747.000000	53.018746
2746.000000	52.996524
2745.000000	52.971627
2744.000000	52.942165
2743.000000	52.906108
2742.000000	52.862649
2741.000000	52.812986
2740.000000	52.759629
2739.000000	52.705565
2738.000000	52.654399
2737.000000	52.610418
2736.000000	52.577487
2735.000000	52.558049
2734.000000	52.553474
2733.000000	52.564115
2732.000000	52.589006
2731.000000	52.626547
2730.000000	52.675751
2729.000000	52.736675
2728.000000	52.808766
2727.000000	52.889868
2726.000000	52.977560
2725.000000	53.070133
2724.000000	53.166259
2723.000000	53.264380
2722.000000	53.363037
2721.000000	53.461366
2720.000000	53.558531
2719.000000	53.653481
2718.000000	53.745748
2717.000000	53.835796
2716.000000	53.923895
2715.000000	54.009153
2714.000000	54.089869
2713.000000	54.164398
2712.000000	54.231333
2711.000000	54.289322
2710.000000	54.337890
2709.000000	54.378099
2708.000000	54.412133
2707.000000	54.442597
2706.000000	54.471992
2705.000000	54.502432
2704.000000	54.534823
2703.000000	54.568259
2702.000000	54.600514
2701.000000	54.628756
2700.000000	54.650226
2699.000000	54.663094
2698.000000	54.667435
2697.000000	54.665434
2696.000000	54.660200
2695.000000	54.654685
2694.000000	54.651548
2693.000000	54.652984
2692.000000	54.659924
2691.000000	54.671384
2690.000000	54.684871
2689.000000	54.697186
2688.000000	54.705048
2687.000000	54.706048
2686.000000	54.699838
2685.000000	54.688353
2684.000000	54.674723
2683.000000	54.662115
2682.000000	54.653358
2681.000000	54.650396
2680.000000	54.653317
2679.000000	54.660317
2678.000000	54.669088
2677.000000	54.677928
2676.000000	54.685570
2675.000000	54.690904
2674.000000	54.693653
2673.000000	54.695095
2672.000000	54.697564
2671.000000	54.703466
2670.000000	54.714772
2669.000000	54.732579
2668.000000	54.756597
2667.000000	54.785134
2666.000000	54.815991
2665.000000	54.847219
2664.000000	54.877095
2663.000000	54.904264
2662.000000	54.928205
2661.000000	54.949065
2660.000000	54.966857
2659.000000	54.981293
2658.000000	54.992451
2657.000000	55.001042
2656.000000	55.007728
2655.000000	55.012727
2654.000000	55.016557
2653.000000	55.020447
2652.000000	55.025799
2651.000000	55.033881
2650.000000	55.046273
2649.000000	55.064662
2648.000000	55.089619
2647.000000	55.119948
2646.000000	55.153750
2645.000000	55.189932
2644.000000	55.228224
2643.000000	55.268859
2642.000000	55.312783
2641.000000	55.361656
2640.000000	55.417156
2639.000000	55.479843
2638.000000	55.549068
2637.000000	55.623249
2636.000000	55.699685
2635.000000	55.774656
2634.000000	55.844320
2633.000000	55.905861
2632.000000	55.957998
2631.000000	56.001071
2630.000000	56.036917
2629.000000	56.068624
2628.000000	56.099686
2627.000000	56.132965
2626.000000	56.170160
2625.000000	56.211227
2624.000000	56.254116
2623.000000	56.295270
2622.000000	56.330974
2621.000000	56.358736
2620.000000	56.377598
2619.000000	56.388006
2618.000000	56.391649
2617.000000	56.391026
2616.000000	56.388838
2615.000000	56.387165
2614.000000	56.387009
2613.000000	56.388009
2612.000000	56.388250
2611.000000	56.385142
2610.000000	56.376735
2609.000000	56.362434
2608.000000	56.342760
2607.000000	56.319031
2606.000000	56.293693
2605.000000	56.270226
2604.000000	56.252060
2603.000000	56.241444
2602.000000	56.239485
2601.000000	56.246550
2600.000000	56.262550
2599.000000	56.287135
2598.000000	56.319689
2597.000000	56.359532
2596.000000	56.405496
2595.000000	56.456138
2594.000000	56.510465
2593.000000	56.567768
2592.000000	56.627092
2591.000000	56.686917
2590.000000	56.745916
2589.000000	56.803842
2588.000000	56.861435
2587.000000	56.920004
2586.000000	56.981070
2585.000000	57.046053
2584.000000	57.115857
2583.000000	57.190473
2582.000000	57.269002
2581.000000	57.349649
2580.000000	57.429798
2579.000000	57.506660
2578.000000	57.578306
2577.000000	57.644342
2576.000000	57.705832
2575.000000	57.764879
2574.000000	57.824204
2573.000000	57.886551
2572.000000	57.953692
2571.000000	58.025609
2570.000000	58.100387
2569.000000	58.174648
2568.000000	58.244357
2567.000000	58.305598
2566.000000	58.355399
2565.000000	58.392599
2564.000000	58.417966
2563.000000	58.434051
2562.000000	58.444270
2561.000000	58.451810
2560.000000	58.458942
2559.000000	58.466334
2558.000000	58.473170
2557.000000	58.477549
2556.000000	58.477423
2555.000000	58.472022
2554.000000	58.462680
2553.000000	58.452662
2552.000000	58.446250
2551.000000	58.448076
2550.000000	58.462457
2549.000000	58.492685
2548.000000	58.539675
2547.000000	58.601538
2546.000000	58.674780
2545.000000	58.755343
2544.000000	58.839565
2543.000000	58.924243
2542.000000	59.006687
2541.000000	59.085127
2540.000000	59.158779
2539.000000	59.227783
2538.000000	59.292803
2537.000000	59.354561
2536.000000	59.413401
2535.000000	59.469490
2534.000000	59.523173
2533.000000	59.575217
2532.000000	59.626634
2531.000000	59.678207
2530.000000	59.730394
2529.000000	59.783338
2528.000000	59.836782
2527.000000	59.889913
2526.000000	59.941333
2525.000000	59.989454
2524.000000	60.032882
2523.000000	60.070735
2522.000000	60.103156
2521.000000	60.131592
2520.000000	60.158654
2519.000000	60.187200
2518.000000	60.219450
2517.000000	60.256681
2516.000000	60.299163
2515.000000	60.345883
2514.000000	60.394302
2513.000000	60.440735
2512.000000	60.481436
2511.000000	60.513807
2510.000000	60.537340
2509.000000	60.553981
2508.000000	60.567528
2507.000000	60.582419
2506.000000	60.602372
2505.000000	60.629643
2504.000000	60.664673
2503.000000	60.706019
2502.000000	60.750647
2501.000000	60.794721
2500.000000	60.834410
2499.000000	60.866584
2498.000000	60.889590
2497.000000	60.904161
2496.000000	60.913361
2495.000000	60.921350
2494.000000	60.931933
2493.000000	60.947837
2492.000000	60.970525
2491.000000	60.999849
2490.000000	61.033877
2489.000000	61.069471
2488.000000	61.103303
2487.000000	61.132581
2486.000000	61.155546
2485.000000	61.171966
2484.000000	61.183198
2483.000000	61.191415
2482.000000	61.198844
2481.000000	61.207638
2480.000000	61.219823
2479.000000	61.236662
2478.000000	61.257974
2477.000000	61.282384
2476.000000	61.308109
2475.000000	61.333473
2474.000000	61.357083
2473.000000	61.378131
2472.000000	61.396409
2471.000000	61.411814
2470.000000	61.424081
2469.000000	61.433458
2468.000000	61.441194
2467.000000	61.448974
2466.000000	61.458016
2465.000000	61.469111
2464.000000	61.483146
2463.000000	61.500840
2462.000000	61.522009
2461.000000	61.545472
2460.000000	61.569613
2459.000000	61.592606
2458.000000	61.612431
2457.000000	61.627410
2456.000000	61.637007
2455.000000	61.641909
2454.000000	61.643728
2453.000000	61.644934
2452.000000	61.648731
2451.000000	61.658078
2450.000000	61.674602
2449.000000	61.698252
2448.000000	61.727479
2447.000000	61.759174
2446.000000	61.788973
2445.000000	61.812808
2444.000000	61.828554
2443.000000	61.836261
2442.000000	61.837348
2441.000000	61.834431
2440.000000	61.831525
2439.000000	61.833225
2438.000000	61.842939
2437.000000	61.861811
2436.000000	61.888760
2435.000000	61.920980
2434.000000	61.954379
2433.000000	61.984531
2432.000000	62.007903
2431.000000	62.022565
2430.000000	62.028455
2429.000000	62.027735
2428.000000	62.024596
2427.000000	62.023757
2426.000000	62.028741
2425.000000	62.041276
2424.000000	62.061654
2423.000000	62.088735
2422.000000	62.119838
2421.000000	62.151315
2420.000000	62.179766
2419.000000	62.202727
2418.000000	62.218919
2417.000000	62.228634
2416.000000	62.233876
2415.000000	62.237532
2414.000000	62.242265
2413.000000	62.250254
2412.000000	62.263231
2411.000000	62.281924
2410.000000	62.305486
2409.000000	62.332060
2408.000000	62.359776
2407.000000	62.387059
2406.000000	62.412338
2405.000000	62.434311
2404.000000	62.452389
2403.000000	62.466606
2402.000000	62.477387
2401.000000	62.485931
2400.000000	62.494357
2399.000000	62.504874
2398.000000	62.519013
2397.000000	62.537888
2396.000000	62.562400
2395.000000	62.592312
2394.000000	62.625619
2393.000000	62.659530
2392.000000	62.691810
2391.000000	62.720714
2390.000000	62.744665
2389.000000	62.762969
2388.000000	62.777110
2387.000000	62.790140
2386.000000	62.805342
2385.000000	62.826111
2384.000000	62.855562
2383.000000	62.895959
2382.000000	62.947326
2381.000000	63.007561
2380.000000	63.073493
2379.000000	63.140372
2378.000000	63.202863
2377.000000	63.257024
2376.000000	63.302083
2375.000000	63.339247
2374.000000	63.370747
2373.000000	63.400127
2372.000000	63.432529
2371.000000	63.472364
2370.000000	63.520315
2369.000000	63.574496
2368.000000	63.632743
2367.000000	63.692334
2366.000000	63.749264
2365.000000	63.799417
2364.000000	63.843626
2363.000000	63.881752
2362.000000	63.912372
2361.000000	63.940492
2360.000000	63.970078
2359.000000	64.003807
2358.000000	64.041710
2357.000000	64.079733
2356.000000	64.121271
2355.000000	64.164055
2354.000000	64.208039
2353.000000	64.251319
2352.000000	64.294746
2351.000000	64.339719
2350.000000	64.375438
2349.000000	64.397666
2348.000000	64.414858
2347.000000	64.447289
2346.000000	64.508849
2345.000000	64.580955
2344.000000	64.643854
2343.000000	64.684258
2342.000000	64.714769
2341.000000	64.747894
2340.000000	64.784766
2339.000000	64.825303
2338.000000	64.865990
2337.000000	64.908063
2336.000000	64.947280
2335.000000	64.986443
2334.000000	65.023231
2333.000000	65.062488
2332.000000	65.098325
2331.000000	65.138141
2330.000000	65.174603
2329.000000	65.215650
2328.000000	65.257547
2327.000000	65.304859
2326.000000	65.357509
2325.000000	65.412419
2324.000000	65.468489
2323.000000	65.520017
2322.000000	65.563953
2321.000000	65.598019
2320.000000	65.622103
2319.000000	65.644721
2318.000000	65.668658
2317.000000	65.702278
2316.000000	65.742499
2315.000000	65.794177
2314.000000	65.849509
2313.000000	65.907624
2312.000000	65.958260
2311.000000	66.002720
2310.000000	66.036943
2309.000000	66.065552
2308.000000	66.088725
2307.000000	66.113562
2306.000000	66.141352
2305.000000	66.175176
2304.000000	66.212744
2303.000000	66.255473
2302.000000	66.299613
2301.000000	66.344152
2300.000000	66.384456
2299.000000	66.421728
2298.000000	66.454476
2297.000000	66.484845
2296.000000	66.513211
2295.000000	66.543243
2294.000000	66.576110
2293.000000	66.612129
2292.000000	66.650153
2291.000000	66.689111
2290.000000	66.727194
2289.000000	66.761860
2288.000000	66.792590
2287.000000	66.820553
2286.000000	66.848027
2285.000000	66.876261
2284.000000	66.907282
2283.000000	66.942569
2282.000000	66.982069
2281.000000	67.023294
2280.000000	67.063774
2279.000000	67.101985
2278.000000	67.136542
2277.000000	67.166522
2276.000000	67.192600
2275.000000	67.217669
2274.000000	67.244188
2273.000000	67.273731
2272.000000	67.307387
2271.000000	67.345698
2270.000000	67.386833
2269.000000	67.427153
2268.000000	67.463891
2267.000000	67.496351
2266.000000	67.524263
2265.000000	67.547630
2264.000000	67.568122
2263.000000	67.588878
2262.000000	67.612197
2261.000000	67.638203
2260.000000	67.666752
2259.000000	67.697259
2258.000000	67.727591
2257.000000	67.754152
2256.000000	67.774588
2255.000000	67.788913
2254.000000	67.797671
2253.000000	67.801841
2252.000000	67.803523
2251.000000	67.805713
2250.000000	67.809155
2249.000000	67.812224
2248.000000	67.812613
2247.000000	67.808894
2246.000000	67.798938
2245.000000	67.780190
2244.000000	67.751970
2243.000000	67.715995
2242.000000	67.674463
2241.000000	67.629368
2240.000000	67.583407
2239.000000	67.539319
2238.000000	67.497853
2237.000000	67.458076
2236.000000	67.419851
2235.000000	67.383976
2234.000000	67.350281
2233.000000	67.317883
2232.000000	67.287930
2231.000000	67.263753
2230.000000	67.247854
2229.000000	67.240555
2228.000000	67.241568
2227.000000	67.250567
2226.000000	67.265188
2225.000000	67.280803
2224.000000	67.293173
2223.000000	67.300202
2222.000000	67.301063
2221.000000	67.295859
2220.000000	67.286837
2219.000000	67.277852
2218.000000	67.271792
2217.000000	67.269684
2216.000000	67.272191
2215.000000	67.279670
2214.000000	67.290296
2213.000000	67.300256
2212.000000	67.306720
2211.000000	67.309256
2210.000000	67.308284
2209.000000	67.304349
2208.000000	67.299363
2207.000000	67.296439
2206.000000	67.297545
2205.000000	67.302637
2204.000000	67.311125
2203.000000	67.322234
2202.000000	67.333787
2201.000000	67.342865
2200.000000	67.348404
2199.000000	67.351499
2198.000000	67.353087
2197.000000	67.353344
2196.000000	67.353472
2195.000000	67.355552
2194.000000	67.359888
2193.000000	67.364411
2192.000000	67.367175
2191.000000	67.367559
2190.000000	67.364867
2189.000000	67.358213
2188.000000	67.348499
2187.000000	67.338483
2186.000000	67.330210
2185.000000	67.324138
2184.000000	67.320847
2183.000000	67.321306
2182.000000	67.324864
2181.000000	67.329216
2180.000000	67.332981
2179.000000	67.336564
2178.000000	67.340324
2177.000000	67.344196
2176.000000	67.349699
2175.000000	67.359834
2174.000000	67.376162
2173.000000	67.397687
2172.000000	67.422957
2171.000000	67.451074
2170.000000	67.480152
2169.000000	67.507283
2168.000000	67.531104
2167.000000	67.552617
2166.000000	67.573071
2165.000000	67.593200
2164.000000	67.614923
2163.000000	67.641210
2162.000000	67.673194
2161.000000	67.709182
2160.000000	67.746917
2159.000000	67.784772
2158.000000	67.820384
2157.000000	67.850904
2156.000000	67.875744
2155.000000	67.897217
2154.000000	67.917872
2153.000000	67.939161
2152.000000	67.962886
2151.000000	67.991208
2150.000000	68.024152
2149.000000	68.059160
2148.000000	68.093836
2147.000000	68.127065
2146.000000	68.157404
2145.000000	68.183087
2144.000000	68.204394
2143.000000	68.223963
2142.000000	68.244210
2141.000000	68.266339
2140.000000	68.292071
2139.000000	68.323460
2138.000000	68.360278
2137.000000	68.399865
2136.000000	68.440124
2135.000000	68.480406
2134.000000	68.519306
2133.000000	68.554527
2132.000000	68.585729
2131.000000	68.615028
2130.000000	68.643899
2129.000000	68.672208
2128.000000	68.700555
2127.000000	68.730650
2126.000000	68.762601
2125.000000	68.794509
2124.000000	68.825432
2123.000000	68.856262
2122.000000	68.887415
2121.000000	68.918319
2120.000000	68.949540
2119.000000	68.982479
2118.000000	69.016427
2117.000000	69.048851
2116.000000	69.079146
2115.000000	69.109022
2114.000000	69.138824
2113.000000	69.166790
2112.000000	69.192730
2111.000000	69.219184
2110.000000	69.248068
2109.000000	69.279249
2108.000000	69.312920
2107.000000	69.349811
2106.000000	69.387960
2105.000000	69.422393
2104.000000	69.449507
2103.000000	69.468928
2102.000000	69.480685
2101.000000	69.484389
2100.000000	69.482002
2099.000000	69.478476
2098.000000	69.477671
2097.000000	69.480586
2096.000000	69.487891
2095.000000	69.499973
2094.000000	69.513875
2093.000000	69.523761
2092.000000	69.526246
2091.000000	69.522403
2090.000000	69.513991
2089.000000	69.501324
2088.000000	69.486234
2087.000000	69.473602
2086.000000	69.467952
2085.000000	69.471149
2084.000000	69.484327
2083.000000	69.508763
2082.000000	69.543097
2081.000000	69.582750
2080.000000	69.623296
2079.000000	69.662636
2078.000000	69.698590
2077.000000	69.728409
2076.000000	69.752591
2075.000000	69.775281
2074.000000	69.800694
2073.000000	69.830363
2072.000000	69.865690
2071.000000	69.909351
2070.000000	69.961087
2069.000000	70.015871
2068.000000	70.068857
2067.000000	70.120437
2066.000000	70.174310
2065.000000	70.232380
2064.000000	70.293074
2063.000000	70.353233
2062.000000	70.409909
2061.000000	70.462042
2060.000000	70.511784
2059.000000	70.562626
2058.000000	70.615927
2057.000000	70.671174
2056.000000	70.729410
2055.000000	70.792910
2054.000000	70.861690
2053.000000	70.932814
2052.000000	71.003773
2051.000000	71.073446
2050.000000	71.138925
2049.000000	71.195453
2048.000000	71.241808
2047.000000	71.281702
2046.000000	71.318249
2045.000000	71.351720
2044.000000	71.384448
2043.000000	71.423580
2042.000000	71.476293
2041.000000	71.544500
2040.000000	71.625100
2039.000000	71.712442
2038.000000	71.799239
2037.000000	71.878346
2036.000000	71.946389
2035.000000	72.004061
2034.000000	72.052948
2033.000000	72.095483
2032.000000	72.137471
2031.000000	72.186116
2030.000000	72.245442
2029.000000	72.315050
2028.000000	72.394602
2027.000000	72.483122
2026.000000	72.575682
2025.000000	72.664251
2024.000000	72.743726
2023.000000	72.813932
2022.000000	72.873445
2021.000000	72.918285
2020.000000	72.948955
2019.000000	72.975046
2018.000000	73.010268
2017.000000	73.064207
2016.000000	73.138512
2015.000000	73.228094
2014.000000	73.324582
2013.000000	73.420677
2012.000000	73.513082
2011.000000	73.600483
2010.000000	73.680693
2009.000000	73.751973
2008.000000	73.816928
2007.000000	73.879724
2006.000000	73.942209
2005.000000	74.005018
2004.000000	74.070607
2003.000000	74.142960
2002.000000	74.221035
2001.000000	74.302482
2000.000000	74.387045
1999.000000	74.475907
1998.000000	74.568379
1997.000000	74.658412
1996.000000	74.736635
1995.000000	74.795065
1994.000000	74.833365
1993.000000	74.862669
1992.000000	74.898990
1991.000000	74.947851
1990.000000	75.002490
1989.000000	75.059735
1988.000000	75.127890
1987.000000	75.213062
1986.000000	75.306996
1985.000000	75.397242
1984.000000	75.480945
1983.000000	75.560679
1982.000000	75.630620
1981.000000	75.682763
1980.000000	75.717974
1979.000000	75.744395
1978.000000	75.767386
1977.000000	75.789016
1976.000000	75.816789
1975.000000	75.860025
1974.000000	75.919579
1973.000000	75.988890
1972.000000	76.062608
1971.000000	76.133869
1970.000000	76.188293
1969.000000	76.215065
1968.000000	76.224150
1967.000000	76.237743
1966.000000	76.263355
1965.000000	76.291046
1964.000000	76.317031
1963.000000	76.350524
1962.000000	76.397680
1961.000000	76.454876
1960.000000	76.518544
1959.000000	76.587700
1958.000000	76.654365
1957.000000	76.706341
1956.000000	76.742962
1955.000000	76.773136
1954.000000	76.800018
1953.000000	76.818047
1952.000000	76.829903
1951.000000	76.847302
1950.000000	76.872412
1949.000000	76.899893
1948.000000	76.932180
1947.000000	76.975372
1946.000000	77.020475
1945.000000	77.048024
1944.000000	77.057483
1943.000000	77.073439
1942.000000	77.112041
1941.000000	77.158894
1940.000000	77.195635
1939.000000	77.223926
1938.000000	77.250492
1937.000000	77.272435
1936.000000	77.288071
1935.000000	77.306119
1934.000000	77.335762
1933.000000	77.374216
1932.000000	77.417946
1931.000000	77.468482
1930.000000	77.520270
1929.000000	77.565951
1928.000000	77.600295
1927.000000	77.622003
1926.000000	77.619697
1925.000000	77.583135
1924.000000	77.535005
1923.000000	77.518257
1922.000000	77.547841
1921.000000	77.597731
1920.000000	77.643838
1919.000000	77.692990
1918.000000	77.756324
1917.000000	77.820240
1916.000000	77.864046
1915.000000	77.889520
1914.000000	77.907801
1913.000000	77.911510
1912.000000	77.888661
1911.000000	77.849212
1910.000000	77.820041
1909.000000	77.822713
1908.000000	77.856604
1907.000000	77.915663
1906.000000	77.990820
1905.000000	78.066028
1904.000000	78.130018
1903.000000	78.177616
1902.000000	78.206634
1901.000000	78.216711
1900.000000	78.208736
1899.000000	78.189151
1898.000000	78.163274
1897.000000	78.134724
1896.000000	78.119969
1895.000000	78.140874
1894.000000	78.196973
1893.000000	78.258670
1892.000000	78.297346
1891.000000	78.312165
1890.000000	78.321706
1889.000000	78.334275
1888.000000	78.338540
1887.000000	78.327393
1886.000000	78.310214
1885.000000	78.297634
1884.000000	78.293869
1883.000000	78.299239
1882.000000	78.312850
1881.000000	78.334540
1880.000000	78.362439
1879.000000	78.395996
1878.000000	78.433845
1877.000000	78.467064
1876.000000	78.489848
1875.000000	78.507271
1874.000000	78.521664
1873.000000	78.524397
1872.000000	78.502815
1871.000000	78.448927
1870.000000	78.369203
1869.000000	78.296416
1868.000000	78.269238
1867.000000	78.294532
1866.000000	78.354825
1865.000000	78.428581
1864.000000	78.496444
1863.000000	78.545443
1862.000000	78.569795
1861.000000	78.569643
1860.000000	78.549829
1859.000000	78.519004
1858.000000	78.485255
1857.000000	78.453981
1856.000000	78.429566
1855.000000	78.420412
1854.000000	78.429953
1853.000000	78.457968
1852.000000	78.491592
1851.000000	78.514937
1850.000000	78.524685
1849.000000	78.522921
1848.000000	78.514923
1847.000000	78.501346
1846.000000	78.474100
1845.000000	78.423629
1844.000000	78.360590
1843.000000	78.306326
1842.000000	78.267879
1841.000000	78.252222
1840.000000	78.264346
1839.000000	78.297401
1838.000000	78.328436
1837.000000	78.339525
1836.000000	78.336199
1835.000000	78.329423
1834.000000	78.315051
1833.000000	78.276315
1832.000000	78.197457
1831.000000	78.093051
1830.000000	78.011874
1829.000000	77.974941
1828.000000	77.956464
1827.000000	77.937602
1826.000000	77.924815
1825.000000	77.925355
1824.000000	77.931778
1823.000000	77.931536
1822.000000	77.920375
1821.000000	77.897264
1820.000000	77.855317
1819.000000	77.794072
1818.000000	77.721404
1817.000000	77.651735
1816.000000	77.599436
1815.000000	77.556909
1814.000000	77.508127
1813.000000	77.447444
1812.000000	77.391602
1811.000000	77.364089
1810.000000	77.358820
1809.000000	77.355655
1808.000000	77.348342
1807.000000	77.336812
1806.000000	77.311574
1805.000000	77.256459
1804.000000	77.169885
1803.000000	77.061989
1802.000000	76.959947
1801.000000	76.894502
1800.000000	76.876016
1799.000000	76.888322
1798.000000	76.907052
1797.000000	76.927893
1796.000000	76.958318
1795.000000	76.986248
1794.000000	76.974313
1793.000000	76.892881
1792.000000	76.773630
1791.000000	76.675990
1790.000000	76.615535
1789.000000	76.585108
1788.000000	76.578194
1787.000000	76.584328
1786.000000	76.589363
1785.000000	76.585717
1784.000000	76.571228
1783.000000	76.524987
1782.000000	76.440866
1781.000000	76.338368
1780.000000	76.240711
1779.000000	76.157675
1778.000000	76.077431
1777.000000	76.000949
1776.000000	75.940129
1775.000000	75.897251
1774.000000	75.855242
1773.000000	75.796756
1772.000000	75.737097
1771.000000	75.684546
1770.000000	75.613013
1769.000000	75.522638
1768.000000	75.454090
1767.000000	75.422201
1766.000000	75.395276
1765.000000	75.344648
1764.000000	75.275272
1763.000000	75.200280
1762.000000	75.125946
1761.000000	75.045523
1760.000000	74.958646
1759.000000	74.877580
1758.000000	74.810032
1757.000000	74.765296
1756.000000	74.738145
1755.000000	74.708574
1754.000000	74.651437
1753.000000	74.549811
1752.000000	74.394771
1751.000000	74.204491
1750.000000	74.006852
1749.000000	73.826820
1748.000000	73.702264
1747.000000	73.639169
1746.000000	73.603190
1745.000000	73.558687
1744.000000	73.522485
1743.000000	73.528421
1742.000000	73.546714
1741.000000	73.505050
1740.000000	73.395295
1739.000000	73.275793
1738.000000	73.172354
1737.000000	73.066112
1736.000000	72.929268
1735.000000	72.728969
1734.000000	72.483264
1733.000000	72.249482
1732.000000	72.043504
1731.000000	71.894120
1730.000000	71.813915
1729.000000	71.762377
1728.000000	71.682705
1727.000000	71.554932
1726.000000	71.383100
1725.000000	71.160757
1724.000000	70.914603
1723.000000	70.712224
1722.000000	70.576975
1721.000000	70.465375
1720.000000	70.310825
1719.000000	70.072334
1718.000000	69.764842
1717.000000	69.457108
1716.000000	69.195238
1715.000000	68.980883
1714.000000	68.795637
1713.000000	68.608175
1712.000000	68.405763
1711.000000	68.201958
1710.000000	68.008879
1709.000000	67.818515
1708.000000	67.601708
1707.000000	67.343026
1706.000000	67.070976
1705.000000	66.845723
1704.000000	66.707875
1703.000000	66.652141
1702.000000	66.612800
1701.000000	66.428362
1700.000000	66.028276
1699.000000	65.549105
1698.000000	65.103835
1697.000000	64.745949
1696.000000	64.493808
1695.000000	64.284726
1694.000000	64.039530
1693.000000	63.758887
1692.000000	63.480550
1691.000000	63.220454
1690.000000	62.964508
1689.000000	62.723889
1688.000000	62.525379
1687.000000	62.375169
1686.000000	62.196952
1685.000000	61.855526
1684.000000	61.404197
1683.000000	61.007388
1682.000000	60.662167
1681.000000	60.360978
1680.000000	60.141657
1679.000000	60.016637
1678.000000	59.939138
1677.000000	59.831051
1676.000000	59.632504
1675.000000	59.350727
1674.000000	59.042821
1673.000000	58.733879
1672.000000	58.429131
1671.000000	58.123071
1670.000000	57.798481
1669.000000	57.468064
1668.000000	57.172038
1667.000000	56.945447
1666.000000	56.781763
1665.000000	56.625323
1664.000000	56.421419
1663.000000	56.162955
1662.000000	55.883569
1661.000000	55.601165
1660.000000	55.318072
1659.000000	55.061724
1658.000000	54.856046
1657.000000	54.698411
1656.000000	54.570235
1655.000000	54.423419
1654.000000	54.155944
1653.000000	53.773082
1652.000000	53.416683
1651.000000	53.115017
1650.000000	52.862272
1649.000000	52.617251
1648.000000	52.341568
1647.000000	52.050440
1646.000000	51.798367
1645.000000	51.563831
1644.000000	51.326190
1643.000000	51.099102
1642.000000	50.894108
1641.000000	50.704868
1640.000000	50.519638
1639.000000	50.348540
1638.000000	50.186259
1637.000000	49.994165
1636.000000	49.753071
1635.000000	49.513821
1634.000000	49.298014
1633.000000	49.087205
1632.000000	48.892742
1631.000000	48.723805
1630.000000	48.557987
1629.000000	48.362768
1628.000000	48.152319
1627.000000	47.972783
1626.000000	47.838727
1625.000000	47.712769
1624.000000	47.563686
1623.000000	47.416725
1622.000000	47.307061
1621.000000	47.225349
1620.000000	47.152088
1619.000000	47.082638
1618.000000	46.996614
1617.000000	46.864253
1616.000000	46.701729
1615.000000	46.558976
1614.000000	46.461607
1613.000000	46.403645
1612.000000	46.372747
1611.000000	46.358342
1610.000000	46.353454
1609.000000	46.347389
1608.000000	46.334087
1607.000000	46.316687
1606.000000	46.296198
1605.000000	46.262155
1604.000000	46.209138
1603.000000	46.160799
1602.000000	46.142350
1601.000000	46.150469
1600.000000	46.171653
1599.000000	46.206027
1598.000000	46.253428
1597.000000	46.296172
1596.000000	46.320719
1595.000000	46.336813
1594.000000	46.355629
1593.000000	46.367994
1592.000000	46.364503
1591.000000	46.358451
1590.000000	46.367587
1589.000000	46.389131
1588.000000	46.411918
1587.000000	46.440315
1586.000000	46.478973
1585.000000	46.518910
1584.000000	46.544922
1583.000000	46.560274
1582.000000	46.581028
1581.000000	46.603701
1580.000000	46.611771
1579.000000	46.606134
1578.000000	46.598557
1577.000000	46.580298
1576.000000	46.545186
1575.000000	46.509479
1574.000000	46.484397
1573.000000	46.475513
1572.000000	46.481344
1571.000000	46.485085
1570.000000	46.471733
1569.000000	46.453299
1568.000000	46.433928
1567.000000	46.424781
1566.000000	46.440574
1565.000000	46.476764
1564.000000	46.524041
1563.000000	46.599965
1562.000000	46.733806
1561.000000	46.883804
1560.000000	46.884348
1559.000000	46.803511
1558.000000	46.884425
1557.000000	46.984594
1556.000000	47.053367
1555.000000	47.166577
1554.000000	47.342172
1553.000000	47.504601
1552.000000	47.603578
1551.000000	47.681997
1550.000000	47.804602
1549.000000	47.976411
1548.000000	48.155970
1547.000000	48.325096
1546.000000	48.499041
1545.000000	48.694886
1544.000000	48.918498
1543.000000	49.162724
1542.000000	49.396839
1541.000000	49.608059
1540.000000	49.862392
1539.000000	50.167029
1538.000000	50.415723
1537.000000	50.589909
1536.000000	50.750566
1535.000000	50.950892
1534.000000	51.220991
1533.000000	51.553837
1532.000000	51.887691
1531.000000	52.194793
1530.000000	52.500011
1529.000000	52.810130
1528.000000	53.115716
1527.000000	53.431013
1526.000000	53.777262
1525.000000	54.130956
1524.000000	54.455322
1523.000000	54.778130
1522.000000	55.181817
1521.000000	55.679360
1520.000000	56.137453
1519.000000	56.478494
1518.000000	56.782080
1517.000000	57.147943
1516.000000	57.585933
1515.000000	58.029489
1514.000000	58.450949
1513.000000	58.859436
1512.000000	59.248449
1511.000000	59.598746
1510.000000	59.903613
1509.000000	60.170167
1508.000000	60.464481
1507.000000	60.980347
1506.000000	61.705516
1505.000000	62.284114
1504.000000	62.628229
1503.000000	62.907759
1502.000000	63.254026
1501.000000	63.676080
1500.000000	64.110515
1499.000000	64.513482
1498.000000	64.895507
1497.000000	65.276741
1496.000000	65.652564
1495.000000	65.994358
1494.000000	66.284131
1493.000000	66.526815
1492.000000	66.732621
1491.000000	66.930891
1490.000000	67.184528
1489.000000	67.520427
1488.000000	67.893326
1487.000000	68.263052
1486.000000	68.597280
1485.000000	68.863718
1484.000000	69.049317
1483.000000	69.187691
1482.000000	69.328857
1481.000000	69.486894
1480.000000	69.652129
1479.000000	69.817782
1478.000000	69.972069
1477.000000	70.080147
1476.000000	70.129611
1475.000000	70.132272
1474.000000	70.083228
1473.000000	69.973999
1472.000000	69.840877
1471.000000	69.712164
1470.000000	69.563243
1469.000000	69.373609
1468.000000	69.146575
1467.000000	68.868535
1466.000000	68.473974
1465.000000	67.914452
1464.000000	67.254801
1463.000000	66.619814
1462.000000	66.048269
1461.000000	65.498514
1460.000000	64.931638
1459.000000	64.305616
1458.000000	63.526296
1457.000000	62.552711
1456.000000	61.556364
1455.000000	60.665030
1454.000000	59.799769
1453.000000	58.828397
1452.000000	57.725169
1451.000000	56.541747
1450.000000	55.256144
1449.000000	53.768343
1448.000000	52.093806
1447.000000	50.387522
1446.000000	48.719941
1445.000000	47.020042
1444.000000	45.228111
1443.000000	43.350997
1442.000000	41.387754
1441.000000	39.369344
1440.000000	37.396082
1439.000000	35.471616
1438.000000	33.334791
1437.000000	30.747020
1436.000000	28.053201
1435.000000	25.836599
1434.000000	24.122635
1433.000000	22.625311
1432.000000	21.244136
1431.000000	20.051404
1430.000000	19.075339
1429.000000	18.306530
1428.000000	17.834692
1427.000000	17.730764
1426.000000	17.923522
1425.000000	18.337274
1424.000000	19.003402
1423.000000	19.911561
1422.000000	20.928806
1421.000000	22.005663
1420.000000	23.270852
1419.000000	24.782867
1418.000000	26.302640
1417.000000	27.633334
1416.000000	28.882580
1415.000000	30.189002
1414.000000	31.532526
1413.000000	32.860740
1412.000000	34.212789
1411.000000	35.630769
1410.000000	37.058372
1409.000000	38.428948
1408.000000	39.766212
1407.000000	41.117051
1406.000000	42.483742
1405.000000	43.861121
1404.000000	45.244446
1403.000000	46.584193
1402.000000	47.832648
1401.000000	49.033598
1400.000000	50.281882
1399.000000	51.581724
1398.000000	52.826958
1397.000000	53.980433
1396.000000	55.141799
1395.000000	56.384772
1394.000000	57.640256
1393.000000	58.805884
1392.000000	59.878969
1391.000000	60.909037
1390.000000	61.920782
1389.000000	62.927552
1388.000000	63.942264
1387.000000	64.933409
1386.000000	65.819757
1385.000000	66.563247
1384.000000	67.193243
1383.000000	67.735844
1382.000000	68.184533
1381.000000	68.531949
1380.000000	68.779216
1379.000000	68.907687
1378.000000	68.877747
1377.000000	68.643312
1376.000000	68.141870
1375.000000	67.309980
1374.000000	66.158345
1373.000000	64.789375
1372.000000	63.314707
1371.000000	61.808783
1370.000000	60.363937
1369.000000	59.142406
1368.000000	58.324890
1367.000000	57.998821
1366.000000	58.128924
1365.000000	58.632587
1364.000000	59.441677
1363.000000	60.498226
1362.000000	61.705235
1361.000000	62.929712
1360.000000	64.070684
1359.000000	65.083857
1358.000000	65.953655
1357.000000	66.665047
1356.000000	67.188878
1355.000000	67.486194
1354.000000	67.525786
1353.000000	67.286591
1352.000000	66.755643
1351.000000	65.924282
1350.000000	64.798577
1349.000000	63.404053
1348.000000	61.761133
1347.000000	59.879864
1346.000000	57.769923
1345.000000	55.456787
1344.000000	52.990275
1343.000000	50.423367
1342.000000	47.786279
1341.000000	45.109268
1340.000000	42.493514
1339.000000	40.126026
1338.000000	38.171130
1337.000000	36.664485
1336.000000	35.535799
1335.000000	34.676024
1334.000000	33.955096
1333.000000	33.232983
1332.000000	32.392580
1331.000000	31.361352
1330.000000	30.102770
1329.000000	28.605571
1328.000000	26.896721
1327.000000	25.048707
1326.000000	23.154634
1325.000000	21.303489
1324.000000	19.586823
1323.000000	18.095137
1322.000000	16.875700
1321.000000	15.912333
1320.000000	15.162048
1319.000000	14.580578
1318.000000	14.112912
1317.000000	13.699889
1316.000000	13.312861
1315.000000	12.962835
1314.000000	12.660478
1313.000000	12.399309
1312.000000	12.179774
1311.000000	12.013645
1310.000000	11.901899
1309.000000	11.835748
1308.000000	11.829124
1307.000000	11.919272
1306.000000	12.127507
1305.000000	12.450717
1304.000000	12.887387
1303.000000	13.439894
1302.000000	14.089238
1301.000000	14.795372
1300.000000	15.531906
1299.000000	16.291500
1298.000000	17.060812
1297.000000	17.819581
1296.000000	18.562197
1295.000000	19.296503
1294.000000	20.019740
1293.000000	20.718534
1292.000000	21.389372
1291.000000	22.037630
1290.000000	22.654447
1289.000000	23.216313
1288.000000	23.705400
1287.000000	24.109859
1286.000000	24.412955
1285.000000	24.602696
1284.000000	24.698217
1283.000000	24.751875
1282.000000	24.822595
1281.000000	24.959006
1280.000000	25.199789
1279.000000	25.564013
1278.000000	26.035725
1277.000000	26.576973
1276.000000	27.156939
1275.000000	27.758714
1274.000000	28.366943
1273.000000	28.968153
1272.000000	29.563520
1271.000000	30.162082
1270.000000	30.763004
1269.000000	31.357442
1268.000000	31.943109
1267.000000	32.521621
1266.000000	33.085503
1265.000000	33.622096
1264.000000	34.128258
1263.000000	34.611050
1262.000000	35.076105
1261.000000	35.528586
1260.000000	35.980976
1259.000000	36.446305
1258.000000	36.925908
1257.000000	37.412369
1256.000000	37.900335
1255.000000	38.384267
1254.000000	38.851318
1253.000000	39.288110
1252.000000	39.692243
1251.000000	40.070794
1250.000000	40.432069
1249.000000	40.785538
1248.000000	41.145361
1247.000000	41.524511
1246.000000	41.926233
1245.000000	42.345662
1244.000000	42.775501
1243.000000	43.204712
1242.000000	43.616750
1241.000000	43.997272
1240.000000	44.342731
1239.000000	44.658120
1238.000000	44.951273
1237.000000	45.233000
1236.000000	45.517948
1235.000000	45.818829
1234.000000	46.139397
1233.000000	46.476060
1232.000000	46.822760
1231.000000	47.171264
1230.000000	47.511151
1229.000000	47.834346
1228.000000	48.138859
1227.000000	48.426824
1226.000000	48.702005
1225.000000	48.970704
1224.000000	49.240295
1223.000000	49.514579
1222.000000	49.792504
1221.000000	50.072178
1220.000000	50.353664
1219.000000	50.637365
1218.000000	50.923506
1217.000000	51.213934
1216.000000	51.510908
1215.000000	51.812964
1214.000000	52.114501
1213.000000	52.409275
1212.000000	52.691414
1211.000000	52.953806
1210.000000	53.191176
1209.000000	53.405234
1208.000000	53.604979
1207.000000	53.803100
1206.000000	54.013964
1205.000000	54.252028
1204.000000	54.526398
1203.000000	54.834903
1202.000000	55.164396
1201.000000	55.495364
1200.000000	55.805258
1199.000000	56.072122
1198.000000	56.282234
1197.000000	56.436446
1196.000000	56.546712
1195.000000	56.630432
1194.000000	56.707165
1193.000000	56.793152
1192.000000	56.893309
1191.000000	56.996054
1190.000000	57.080544
1189.000000	57.127598
1188.000000	57.125240
1187.000000	57.073401
1186.000000	56.988478
1185.000000	56.901123
1184.000000	56.843574
1183.000000	56.838369
1182.000000	56.896793
1181.000000	57.025299
1180.000000	57.227123
1179.000000	57.497538
1178.000000	57.822256
1177.000000	58.177047
1176.000000	58.531301
1175.000000	58.855087
1174.000000	59.129889
1173.000000	59.353642
1172.000000	59.535778
1171.000000	59.691663
1170.000000	59.841550
1169.000000	60.006561
1168.000000	60.198725
1167.000000	60.417625
1166.000000	60.656827
1165.000000	60.909438
1164.000000	61.166392
1163.000000	61.416895
1162.000000	61.654773
1161.000000	61.880586
1160.000000	62.095111
1159.000000	62.296499
1158.000000	62.484852
1157.000000	62.663646
1156.000000	62.833836
1155.000000	62.993076
1154.000000	63.143842
1153.000000	63.295392
1152.000000	63.456339
1151.000000	63.631361
1150.000000	63.826047
1149.000000	64.045483
1148.000000	64.283845
1147.000000	64.521913
1146.000000	64.738535
1145.000000	64.918597
1144.000000	65.051441
1143.000000	65.132351
1142.000000	65.172326
1141.000000	65.198829
1140.000000	65.242173
1139.000000	65.325302
1138.000000	65.463862
1137.000000	65.663625
1136.000000	65.911494
1135.000000	66.175815
1134.000000	66.420956
1133.000000	66.619142
1132.000000	66.751086
1131.000000	66.809497
1130.000000	66.808302
1129.000000	66.781724
1128.000000	66.768916
1127.000000	66.802433
1126.000000	66.905983
1125.000000	67.088691
1124.000000	67.335247
1123.000000	67.609032
1122.000000	67.870089
1121.000000	68.087475
1120.000000	68.239311
1119.000000	68.316728
1118.000000	68.334101
1117.000000	68.325499
1116.000000	68.326487
1115.000000	68.362884
1114.000000	68.453195
1113.000000	68.606450
1112.000000	68.812589
1111.000000	69.043830
1110.000000	69.271223
1109.000000	69.474421
1108.000000	69.638092
1107.000000	69.752905
1106.000000	69.825143
1105.000000	69.874479
1104.000000	69.918276
1103.000000	69.965560
1102.000000	70.024123
1101.000000	70.101240
1100.000000	70.195642
1099.000000	70.297224
1098.000000	70.401586
1097.000000	70.512805
1096.000000	70.631749
1095.000000	70.752888
1094.000000	70.873298
1093.000000	70.993038
1092.000000	71.103882
1091.000000	71.190755
1090.000000	71.246887
1089.000000	71.278262
1088.000000	71.293497
1087.000000	71.302489
1086.000000	71.325532
1085.000000	71.389051
1084.000000	71.506744
1083.000000	71.671982
1082.000000	71.868016
1081.000000	72.072610
1080.000000	72.253155
1079.000000	72.373571
1078.000000	72.415756
1077.000000	72.385490
1076.000000	72.301103
1075.000000	72.189047
1074.000000	72.087713
1073.000000	72.036834
1072.000000	72.054231
1071.000000	72.128964
1070.000000	72.234063
1069.000000	72.332390
1068.000000	72.374815
1067.000000	72.311936
1066.000000	72.120881
1065.000000	71.816497
1064.000000	71.437981
1063.000000	71.040521
1062.000000	70.693662
1061.000000	70.466314
1060.000000	70.398524
1059.000000	70.492467
1058.000000	70.721802
1057.000000	71.042644
1056.000000	71.397147
1055.000000	71.724327
1054.000000	71.984973
1053.000000	72.169251
1052.000000	72.285335
1051.000000	72.352234
1050.000000	72.404431
1049.000000	72.482961
1048.000000	72.613050
1047.000000	72.796116
1046.000000	73.022059
1045.000000	73.275683
1044.000000	73.531629
1043.000000	73.760424
1042.000000	73.947296
1041.000000	74.096199
1040.000000	74.214500
1039.000000	74.306624
1038.000000	74.383264
1037.000000	74.461280
1036.000000	74.549127
1035.000000	74.645347
1034.000000	74.751972
1033.000000	74.877660
1032.000000	75.025469
1031.000000	75.191264
1030.000000	75.374748
1029.000000	75.579149
1028.000000	75.796070
1027.000000	76.003246
1026.000000	76.179631
1025.000000	76.312280
1024.000000	76.389421
1023.000000	76.405073
1022.000000	76.375660
1021.000000	76.337554
1020.000000	76.326716
1019.000000	76.369570
1018.000000	76.488278
1017.000000	76.693372
1016.000000	76.966062
1015.000000	77.259492
1014.000000	77.522715
1013.000000	77.715654
1012.000000	77.807950
1011.000000	77.786369
1010.000000	77.673126
1009.000000	77.522781
1008.000000	77.396080
1007.000000	77.342895
1006.000000	77.400963
1005.000000	77.585864
1004.000000	77.874272
1003.000000	78.208824
1002.000000	78.525031
1001.000000	78.769204
1000.000000	78.900132
999.000000	78.899318
998.000000	78.788294
997.000000	78.623116
996.000000	78.465612
995.000000	78.366533
994.000000	78.365642
993.000000	78.483888
992.000000	78.706734
991.000000	78.987349
990.000000	79.271061
989.000000	79.511741
988.000000	79.672070
987.000000	79.731015
986.000000	79.699804
985.000000	79.617013
984.000000	79.523651
983.000000	79.450547
982.000000	79.424954
981.000000	79.466295
980.000000	79.571333
979.000000	79.716468
978.000000	79.879236
977.000000	80.045340
976.000000	80.198631
975.000000	80.321817
974.000000	80.411536
973.000000	80.476806
972.000000	80.520060
971.000000	80.533339
970.000000	80.514635
969.000000	80.474388
968.000000	80.423542
967.000000	80.372837
966.000000	80.344197
965.000000	80.367312
964.000000	80.457935
963.000000	80.611210
962.000000	80.811731
961.000000	81.035240
960.000000	81.239009
959.000000	81.371721
958.000000	81.401207
957.000000	81.326726
956.000000	81.168576
955.000000	80.963615
954.000000	80.770864
953.000000	80.657401
952.000000	80.667337
951.000000	80.807080
950.000000	81.055546
949.000000	81.368465
948.000000	81.675281
947.000000	81.895484
946.000000	81.975716
945.000000	81.906098
944.000000	81.709614
943.000000	81.434862
942.000000	81.156809
941.000000	80.957589
940.000000	80.891456
939.000000	80.970389
938.000000	81.173818
937.000000	81.455952
936.000000	81.745165
935.000000	81.962845
934.000000	82.057241
933.000000	82.017883
932.000000	81.861837
931.000000	81.626673
930.000000	81.372273
929.000000	81.165106
928.000000	81.047406
927.000000	81.027310
926.000000	81.093338
925.000000	81.220376
924.000000	81.364182
923.000000	81.472801
922.000000	81.514879
921.000000	81.486759
920.000000	81.395645
919.000000	81.252110
918.000000	81.078562
917.000000	80.901452
916.000000	80.732341
915.000000	80.567330
914.000000	80.406134
913.000000	80.256398
912.000000	80.120059
911.000000	79.992950
910.000000	79.878302
909.000000	79.783303
908.000000	79.699239
907.000000	79.598761
906.000000	79.454395
905.000000	79.245291
904.000000	78.949559
903.000000	78.554282
902.000000	78.075474
901.000000	77.556753
900.000000	77.045071
899.000000	76.576818
898.000000	76.180020
897.000000	75.864553
896.000000	75.605057
895.000000	75.345016
894.000000	75.021687
893.000000	74.584175
892.000000	73.995521
891.000000	73.245005
890.000000	72.363859
889.000000	71.413003
888.000000	70.455007
887.000000	69.537854
886.000000	68.693244
885.000000	67.927067
884.000000	67.207179
883.000000	66.474406
882.000000	65.667869
881.000000	64.741004
880.000000	63.666772
879.000000	62.445019
878.000000	61.110370
877.000000	59.718334
876.000000	58.322135
875.000000	56.962774
874.000000	55.667916
873.000000	54.448067
872.000000	53.293336
871.000000	52.181465
870.000000	51.088870
869.000000	49.997968
868.000000	48.899750
867.000000	47.797680
866.000000	46.706955
865.000000	45.645880
864.000000	44.632400
863.000000	43.683145
862.000000	42.810107
861.000000	42.017439
860.000000	41.301416
859.000000	40.656894
858.000000	40.076066
857.000000	39.546168
856.000000	39.055140
855.000000	38.595592
854.000000	38.165101
853.000000	37.761828
852.000000	37.386127
851.000000	37.046134
850.000000	36.753293
849.000000	36.517739
848.000000	36.348908
847.000000	36.257600
846.000000	36.254789
845.000000	36.343930
844.000000	36.523988
843.000000	36.794501
842.000000	37.151864
841.000000	37.585650
840.000000	38.079277
839.000000	38.621048
838.000000	39.207469
837.000000	39.836270
836.000000	40.508183
835.000000	41.232490
834.000000	42.023333
833.000000	42.873662
832.000000	43.732666
831.000000	44.461126
830.000000	44.772244
829.000000	44.212610
828.000000	42.349861
827.000000	39.172831
826.000000	35.339762
825.000000	31.932485
824.000000	29.842910
823.000000	29.339987
822.000000	30.146545
821.000000	31.811277
820.000000	33.938404
819.000000	36.205840
818.000000	38.375727
817.000000	40.329416
816.000000	42.065607
815.000000	43.610688
814.000000	44.971331
813.000000	46.152988
812.000000	47.181661
811.000000	48.085104
810.000000	48.888908
809.000000	49.634567
808.000000	50.371686
807.000000	51.129779
806.000000	51.910640
805.000000	52.708302
804.000000	53.511472
803.000000	54.287496
802.000000	54.993856
801.000000	55.609423
800.000000	56.140859
799.000000	56.604227
798.000000	57.019954
797.000000	57.422237
796.000000	57.848110
795.000000	58.315737
794.000000	58.825184
793.000000	59.372777
792.000000	59.948611
791.000000	60.527262
790.000000	61.080510
789.000000	61.596494
788.000000	62.074379
787.000000	62.509834
786.000000	62.901462
785.000000	63.261578
784.000000	63.605186
783.000000	63.934675
782.000000	64.250091
781.000000	64.564678
780.000000	64.897137
779.000000	65.256535
778.000000	65.646604
777.000000	66.073210
776.000000	66.531942
775.000000	66.995669
774.000000	67.428513
773.000000	67.805151
772.000000	68.108396
771.000000	68.324704
770.000000	68.459179
769.000000	68.547353
768.000000	68.637989
767.000000	68.771807
766.000000	68.980348
765.000000	69.286610
764.000000	69.687147
763.000000	70.140780
762.000000	70.587729
761.000000	70.974914
760.000000	71.259345
759.000000	71.411278
758.000000	71.435576
757.000000	71.381445
756.000000	71.317851
755.000000	71.305216
754.000000	71.391208
753.000000	71.607977
752.000000	71.952366
751.000000	72.376927
750.000000	72.814156
749.000000	73.203883
748.000000	73.496848
747.000000	73.658403
746.000000	73.691127
745.000000	73.642710
744.000000	73.577199
743.000000	73.545714
742.000000	73.586191
741.000000	73.725479
740.000000	73.961419
739.000000	74.255456
738.000000	74.558049
737.000000	74.832484
736.000000	75.049617
735.000000	75.183571
734.000000	75.230987
733.000000	75.219716
732.000000	75.183715
731.000000	75.142271
730.000000	75.110099
729.000000	75.105197
728.000000	75.132355
727.000000	75.177380
726.000000	75.230659
725.000000	75.302368
724.000000	75.403335
723.000000	75.528494
722.000000	75.670964
721.000000	75.833034
720.000000	76.007668
719.000000	76.167849
718.000000	76.291083
717.000000	76.378637
716.000000	76.440635
715.000000	76.484552
714.000000	76.533012
713.000000	76.629923
712.000000	76.810302
711.000000	77.075885
710.000000	77.409348
709.000000	77.787670
708.000000	78.167967
707.000000	78.486759
706.000000	78.696229
705.000000	78.790381
704.000000	78.789503
703.000000	78.723047
702.000000	78.641816
701.000000	78.618250
700.000000	78.706848
699.000000	78.917062
698.000000	79.229352
697.000000	79.611328
696.000000	80.003305
695.000000	80.320496
694.000000	80.502549
693.000000	80.547676
692.000000	80.486979
691.000000	80.358304
690.000000	80.220202
689.000000	80.155171
688.000000	80.220900
687.000000	80.410206
686.000000	80.683517
685.000000	81.006603
684.000000	81.332016
683.000000	81.588183
682.000000	81.728622
681.000000	81.767356
680.000000	81.743896
679.000000	81.685933
678.000000	81.630765
677.000000	81.633765
676.000000	81.719992
675.000000	81.870139
674.000000	82.055496
673.000000	82.260992
672.000000	82.471978
671.000000	82.673284
670.000000	82.870168
669.000000	83.079229
668.000000	83.248063
667.000000	83.287167
666.000000	83.245525
665.000000	83.222488
664.000000	83.253099
663.000000	83.319290
662.000000	83.385122
661.000000	83.432080
660.000000	83.465822
659.000000	83.505275
658.000000	83.578525
657.000000	83.709390
656.000000	83.896077
655.000000	84.119559
654.000000	84.350291
653.000000	84.548589
652.000000	84.676434
651.000000	84.713857
650.000000	84.669656
649.000000	84.576901
648.000000	84.481102
647.000000	84.433161
646.000000	84.479290
645.000000	84.643999
644.000000	84.912511
643.000000	85.230228
642.000000	85.525869
641.000000	85.737908
640.000000	85.826795
639.000000	85.783760
638.000000	85.640683
637.000000	85.462527
636.000000	85.322328
635.000000	85.280390
634.000000	85.373790
633.000000	85.604077
632.000000	85.928098
631.000000	86.270214
630.000000	86.555104
629.000000	86.731255
628.000000	86.773157
627.000000	86.687112
626.000000	86.524689
625.000000	86.367643
624.000000	86.280356
623.000000	86.285831
622.000000	86.383067
621.000000	86.561174
620.000000	86.787534
619.000000	87.006218
618.000000	87.168144
617.000000	87.256942
616.000000	87.278826
615.000000	87.247872
614.000000	87.190394
613.000000	87.141464
612.000000	87.119672
611.000000	87.116510
610.000000	87.113199
609.000000	87.087003
608.000000	86.999747
607.000000	86.800690
606.000000	86.452158
605.000000	85.925076
604.000000	85.148269
603.000000	83.982796
602.000000	82.227593
601.000000	79.673120
600.000000	76.211213
599.000000	72.003504
598.000000	67.563750
597.000000	63.615965
596.000000	60.827830
595.000000	59.583546
594.000000	59.879722
593.000000	61.387193
592.000000	63.657781
591.000000	66.261814
590.000000	68.848814
589.000000	71.214257
588.000000	73.284238
587.000000	75.047177
586.000000	76.508036
585.000000	77.694849
584.000000	78.652679
583.000000	79.437555
582.000000	80.120779
581.000000	80.783810
580.000000	81.478300
579.000000	82.190765
578.000000	82.876089
577.000000	83.500338
576.000000	84.032695
575.000000	84.429876
574.000000	84.666147
573.000000	84.771081
572.000000	84.807721
571.000000	84.836092
570.000000	84.910231
569.000000	85.076017
568.000000	85.347018
567.000000	85.689213
566.000000	86.044511
565.000000	86.363854
564.000000	86.608486
563.000000	86.751349
562.000000	86.802188
561.000000	86.811936
560.000000	86.830829
559.000000	86.878334
558.000000	86.961759
557.000000	87.090941
556.000000	87.255172
555.000000	87.413143
554.000000	87.531047
553.000000	87.611571
552.000000	87.672172
551.000000	87.723378
550.000000	87.783142
549.000000	87.878935
548.000000	88.015568
547.000000	88.166141
546.000000	88.305859
545.000000	88.426177
544.000000	88.505052
543.000000	88.507874
542.000000	88.439161
541.000000	88.361587
540.000000	88.339785
539.000000	88.396191
538.000000	88.529914
537.000000	88.738054
536.000000	88.991904
535.000000	89.224717
534.000000	89.372528
533.000000	89.415000
532.000000	89.355470
531.000000	89.204626
530.000000	89.008624
529.000000	88.845296
528.000000	88.768907
527.000000	88.793002
526.000000	88.922880
525.000000	89.145861
524.000000	89.386050
523.000000	89.522215
522.000000	89.472741
521.000000	89.233379
520.000000	88.835547
519.000000	88.316794
518.000000	87.749316
517.000000	87.246189
516.000000	86.889865
515.000000	86.686913
514.000000	86.609910
513.000000	86.639703
512.000000	86.733753
511.000000	86.806290
510.000000	86.782526
509.000000	86.646702
508.000000	86.400295
507.000000	86.024790
506.000000	85.501184
505.000000	84.815782
504.000000	83.939669
503.000000	82.874189
502.000000	81.760240
501.000000	80.843962
500.000000	80.286724
499.000000	80.093431
498.000000	80.214781
497.000000	80.602498
496.000000	81.170795
495.000000	81.790197
494.000000	82.355360
493.000000	82.831441
492.000000	83.210128
491.000000	83.481611
490.000000	83.664654
489.000000	83.822055
488.000000	84.006444
487.000000	84.238719
486.000000	84.552380
485.000000	85.001829
484.000000	85.590876
483.000000	86.240738
482.000000	86.862412
481.000000	87.407378
480.000000	87.830043
479.000000	88.074617
478.000000	88.138781
477.000000	88.108590
476.000000	88.085901
475.000000	88.120825
474.000000	88.247136
473.000000	88.517103
472.000000	88.925139
471.000000	89.345076
470.000000	89.637483
469.000000	89.772184
468.000000	89.779885
467.000000	89.685811
466.000000	89.526638
465.000000	89.377099
464.000000	89.294595
463.000000	89.281333
462.000000	89.329470
461.000000	89.442304
460.000000	89.579099
459.000000	89.631347
458.000000	89.531650
457.000000	89.360277
456.000000	89.216251
455.000000	89.094402
454.000000	88.979889
453.000000	88.922729
452.000000	88.961877
451.000000	89.021029
450.000000	88.964528
449.000000	88.731531
448.000000	88.331408
447.000000	87.780322
446.000000	87.104149
445.000000	86.355873
444.000000	85.553827
443.000000	84.645445
442.000000	83.570476
441.000000	82.321083
440.000000	80.895135
439.000000	79.266410
438.000000	77.465443
437.000000	75.685582
436.000000	74.243646
435.000000	73.396695
434.000000	73.208090
433.000000	73.616583
432.000000	74.553599
431.000000	75.892519
430.000000	77.432980
429.000000	79.009404
428.000000	80.506230
427.000000	81.784608
426.000000	82.742668
425.000000	83.442140
424.000000	84.026065
423.000000	84.567098
422.000000	85.083842
421.000000	85.654905
420.000000	86.372793
419.000000	87.263065
418.000000	88.218439
417.000000	89.002424
416.000000	89.500919
415.000000	89.683035
414.000000	89.582478
413.000000	89.414253
412.000000	89.389968
411.000000	89.490333
410.000000	89.642068
409.000000	89.917973
408.000000	90.353247
407.000000	90.754521
406.000000	90.928167
405.000000	90.924604
404.000000	90.896895
403.000000	90.689976
402.000000	90.176066
401.000000	89.505927
400.000000	88.893743
