PE IR       SUBTECH     SPECTRUM    ASCII       PEDS        4.00        
   -1
23ms202, 218_nitrito.asc
24/09/02
16:28:01.00
24/09/02
16:28:01.00
Administrator
Sample 1079 By Administrator Date Monday, September 02 2024
400.000000
#HDR
-1
-1
#GR
cm-1
%T
1.0
0.0
4000.000000
-1.000000
3601
8
94.312007
26.477976
#DATA
4000.000000	84.052167
3999.000000	84.088129
3998.000000	84.120669
3997.000000	84.150319
3996.000000	84.178211
3995.000000	84.205790
3994.000000	84.234926
3993.000000	84.267322
3992.000000	84.303126
3991.000000	84.340347
3990.000000	84.376276
3989.000000	84.409538
3988.000000	84.440662
3987.000000	84.470910
3986.000000	84.501212
3985.000000	84.532284
3984.000000	84.564948
3983.000000	84.599716
3982.000000	84.636117
3981.000000	84.672764
3980.000000	84.708138
3979.000000	84.741235
3978.000000	84.771724
3977.000000	84.799894
3976.000000	84.826779
3975.000000	84.853889
3974.000000	84.882555
3973.000000	84.913409
3972.000000	84.946311
3971.000000	84.980279
3970.000000	85.013375
3969.000000	85.043420
3968.000000	85.069416
3967.000000	85.092670
3966.000000	85.116248
3965.000000	85.143426
3964.000000	85.175890
3963.000000	85.212505
3962.000000	85.249717
3961.000000	85.283884
3960.000000	85.313597
3959.000000	85.339704
3958.000000	85.363529
3957.000000	85.385951
3956.000000	85.408069
3955.000000	85.431790
3954.000000	85.458712
3953.000000	85.489289
3952.000000	85.522861
3951.000000	85.558097
3950.000000	85.592908
3949.000000	85.624162
3948.000000	85.649614
3947.000000	85.671226
3946.000000	85.695439
3945.000000	85.728094
3944.000000	85.768715
3943.000000	85.809737
3942.000000	85.843775
3941.000000	85.871799
3940.000000	85.900329
3939.000000	85.931488
3938.000000	85.961128
3937.000000	85.986211
3936.000000	86.010477
3935.000000	86.041691
3934.000000	86.083085
3933.000000	86.129550
3932.000000	86.171677
3931.000000	86.203400
3930.000000	86.225649
3929.000000	86.243683
3928.000000	86.264500
3927.000000	86.293479
3926.000000	86.329579
3925.000000	86.364854
3924.000000	86.392794
3923.000000	86.417166
3922.000000	86.445769
3921.000000	86.479571
3920.000000	86.514827
3919.000000	86.550470
3918.000000	86.586562
3917.000000	86.619329
3916.000000	86.644785
3915.000000	86.665990
3914.000000	86.690454
3913.000000	86.721115
3912.000000	86.753860
3911.000000	86.782875
3910.000000	86.804959
3909.000000	86.820988
3908.000000	86.834698
3907.000000	86.853040
3906.000000	86.881784
3905.000000	86.920180
3904.000000	86.960462
3903.000000	86.998825
3902.000000	87.041718
3901.000000	87.091954
3900.000000	87.137945
3899.000000	87.165826
3898.000000	87.177586
3897.000000	87.187679
3896.000000	87.205355
3895.000000	87.230321
3894.000000	87.263758
3893.000000	87.308049
3892.000000	87.351992
3891.000000	87.373760
3890.000000	87.371236
3889.000000	87.372594
3888.000000	87.402528
3887.000000	87.460997
3886.000000	87.522109
3885.000000	87.555847
3884.000000	87.568897
3883.000000	87.596490
3882.000000	87.649693
3881.000000	87.704327
3880.000000	87.731036
3879.000000	87.729370
3878.000000	87.730852
3877.000000	87.758980
3876.000000	87.805865
3875.000000	87.846589
3874.000000	87.861916
3873.000000	87.861660
3872.000000	87.878988
3871.000000	87.926343
3870.000000	87.972186
3869.000000	87.984643
3868.000000	87.984921
3867.000000	88.014497
3866.000000	88.073735
3865.000000	88.133269
3864.000000	88.171475
3863.000000	88.191986
3862.000000	88.212839
3861.000000	88.239700
3860.000000	88.260828
3859.000000	88.261200
3858.000000	88.229854
3857.000000	88.174675
3856.000000	88.134729
3855.000000	88.164810
3854.000000	88.260248
3853.000000	88.330777
3852.000000	88.345865
3851.000000	88.384126
3850.000000	88.469393
3849.000000	88.552425
3848.000000	88.607999
3847.000000	88.645978
3846.000000	88.682121
3845.000000	88.721482
3844.000000	88.757946
3843.000000	88.783693
3842.000000	88.798940
3841.000000	88.812814
3840.000000	88.834089
3839.000000	88.863304
3838.000000	88.891691
3837.000000	88.914600
3836.000000	88.939656
3835.000000	88.977468
3834.000000	89.026772
3833.000000	89.076257
3832.000000	89.114140
3831.000000	89.137811
3830.000000	89.159335
3829.000000	89.194064
3828.000000	89.241323
3827.000000	89.282601
3826.000000	89.300207
3825.000000	89.300234
3824.000000	89.311413
3823.000000	89.358252
3822.000000	89.427699
3821.000000	89.466470
3820.000000	89.451345
3819.000000	89.436070
3818.000000	89.468944
3817.000000	89.534357
3816.000000	89.587019
3815.000000	89.603051
3814.000000	89.612192
3813.000000	89.647669
3812.000000	89.692939
3811.000000	89.719764
3810.000000	89.733554
3809.000000	89.761088
3808.000000	89.811648
3807.000000	89.857900
3806.000000	89.873651
3805.000000	89.878599
3804.000000	89.907154
3803.000000	89.963720
3802.000000	90.020804
3801.000000	90.041888
3800.000000	90.038986
3799.000000	90.069378
3798.000000	90.142776
3797.000000	90.215593
3796.000000	90.256174
3795.000000	90.270030
3794.000000	90.284320
3793.000000	90.312704
3792.000000	90.347475
3791.000000	90.378747
3790.000000	90.407242
3789.000000	90.438245
3788.000000	90.474834
3787.000000	90.516279
3786.000000	90.557244
3785.000000	90.588820
3784.000000	90.608082
3783.000000	90.625921
3782.000000	90.658046
3781.000000	90.706851
3780.000000	90.756546
3779.000000	90.789379
3778.000000	90.806942
3777.000000	90.827340
3776.000000	90.857653
3775.000000	90.887406
3774.000000	90.908176
3773.000000	90.927551
3772.000000	90.959436
3771.000000	91.005156
3770.000000	91.049115
3769.000000	91.080713
3768.000000	91.112191
3767.000000	91.157236
3766.000000	91.205655
3765.000000	91.237309
3764.000000	91.250780
3763.000000	91.267591
3762.000000	91.305136
3761.000000	91.358146
3760.000000	91.409328
3759.000000	91.447032
3758.000000	91.470798
3757.000000	91.483347
3756.000000	91.483219
3755.000000	91.473177
3754.000000	91.465037
3753.000000	91.475370
3752.000000	91.512215
3751.000000	91.561028
3750.000000	91.596582
3749.000000	91.613196
3748.000000	91.625851
3747.000000	91.649780
3746.000000	91.699899
3745.000000	91.774887
3744.000000	91.828968
3743.000000	91.854750
3742.000000	91.916118
3741.000000	92.014092
3740.000000	92.088217
3739.000000	92.122283
3738.000000	92.145907
3737.000000	92.184863
3736.000000	92.230251
3735.000000	92.261233
3734.000000	92.281064
3733.000000	92.306606
3732.000000	92.338123
3731.000000	92.367563
3730.000000	92.399915
3729.000000	92.443052
3728.000000	92.493763
3727.000000	92.540933
3726.000000	92.576342
3725.000000	92.605403
3724.000000	92.640924
3723.000000	92.683493
3722.000000	92.722871
3721.000000	92.754528
3720.000000	92.784413
3719.000000	92.816193
3718.000000	92.843850
3717.000000	92.860357
3716.000000	92.867502
3715.000000	92.877480
3714.000000	92.903565
3713.000000	92.949972
3712.000000	93.004643
3711.000000	93.048654
3710.000000	93.081793
3709.000000	93.119421
3708.000000	93.165406
3707.000000	93.209894
3706.000000	93.245398
3705.000000	93.275630
3704.000000	93.309345
3703.000000	93.349044
3702.000000	93.386450
3701.000000	93.413370
3700.000000	93.436593
3699.000000	93.469901
3698.000000	93.512355
3697.000000	93.549607
3696.000000	93.572147
3695.000000	93.585157
3694.000000	93.600109
3693.000000	93.621047
3692.000000	93.646973
3691.000000	93.679341
3690.000000	93.717145
3689.000000	93.747965
3688.000000	93.764435
3687.000000	93.785525
3686.000000	93.830737
3685.000000	93.889287
3684.000000	93.937748
3683.000000	93.968923
3682.000000	93.989826
3681.000000	94.003393
3680.000000	94.000789
3679.000000	93.980390
3678.000000	93.966644
3677.000000	93.990492
3676.000000	94.038175
3675.000000	94.052493
3674.000000	94.035085
3673.000000	94.048511
3672.000000	94.103888
3671.000000	94.165141
3670.000000	94.199075
3669.000000	94.195848
3668.000000	94.192550
3667.000000	94.221728
3666.000000	94.264131
3665.000000	94.291864
3664.000000	94.302763
3663.000000	94.308091
3662.000000	94.312007
3661.000000	94.308078
3660.000000	94.291918
3659.000000	94.271224
3658.000000	94.257781
3657.000000	94.251064
3656.000000	94.237704
3655.000000	94.215836
3654.000000	94.202150
3653.000000	94.200893
3652.000000	94.203574
3651.000000	94.208702
3650.000000	94.210793
3649.000000	94.194318
3648.000000	94.162344
3647.000000	94.138573
3646.000000	94.133176
3645.000000	94.136079
3644.000000	94.133826
3643.000000	94.119147
3642.000000	94.090718
3641.000000	94.052565
3640.000000	94.012217
3639.000000	93.974591
3638.000000	93.937734
3637.000000	93.900436
3636.000000	93.866042
3635.000000	93.832663
3634.000000	93.787654
3633.000000	93.721917
3632.000000	93.646862
3631.000000	93.588917
3630.000000	93.564792
3629.000000	93.551268
3628.000000	93.516523
3627.000000	93.486948
3626.000000	93.492838
3625.000000	93.502775
3624.000000	93.480781
3623.000000	93.428617
3622.000000	93.366822
3621.000000	93.311153
3620.000000	93.262893
3619.000000	93.213678
3618.000000	93.162652
3617.000000	93.121369
3616.000000	93.093179
3615.000000	93.065124
3614.000000	93.022585
3613.000000	92.961871
3612.000000	92.895303
3611.000000	92.842279
3610.000000	92.810406
3609.000000	92.789447
3608.000000	92.764117
3607.000000	92.730063
3606.000000	92.694446
3605.000000	92.661089
3604.000000	92.625794
3603.000000	92.585133
3602.000000	92.539059
3601.000000	92.487938
3600.000000	92.432455
3599.000000	92.375732
3598.000000	92.321835
3597.000000	92.272848
3596.000000	92.229041
3595.000000	92.187798
3594.000000	92.143811
3593.000000	92.093544
3592.000000	92.039431
3591.000000	91.986025
3590.000000	91.939624
3589.000000	91.906144
3588.000000	91.881747
3587.000000	91.852894
3586.000000	91.815946
3585.000000	91.779560
3584.000000	91.744314
3583.000000	91.701549
3582.000000	91.646776
3581.000000	91.583839
3580.000000	91.520219
3579.000000	91.461258
3578.000000	91.407485
3577.000000	91.356465
3576.000000	91.306739
3575.000000	91.257900
3574.000000	91.209214
3573.000000	91.159084
3572.000000	91.106767
3571.000000	91.053331
3570.000000	91.002369
3569.000000	90.959119
3568.000000	90.923594
3567.000000	90.886166
3566.000000	90.840072
3565.000000	90.792258
3564.000000	90.749264
3563.000000	90.705652
3562.000000	90.653376
3561.000000	90.591314
3560.000000	90.524841
3559.000000	90.459537
3558.000000	90.396468
3557.000000	90.334067
3556.000000	90.272732
3555.000000	90.215044
3554.000000	90.161365
3553.000000	90.108133
3552.000000	90.051851
3551.000000	89.993779
3550.000000	89.938081
3549.000000	89.887150
3548.000000	89.840422
3547.000000	89.795044
3546.000000	89.746072
3545.000000	89.690224
3544.000000	89.629161
3543.000000	89.566333
3542.000000	89.502541
3541.000000	89.437564
3540.000000	89.373676
3539.000000	89.313886
3538.000000	89.257191
3537.000000	89.199147
3536.000000	89.137540
3535.000000	89.075427
3534.000000	89.017353
3533.000000	88.964795
3532.000000	88.916128
3531.000000	88.868475
3530.000000	88.819081
3529.000000	88.766436
3528.000000	88.712235
3527.000000	88.660573
3526.000000	88.614166
3525.000000	88.571149
3524.000000	88.526121
3523.000000	88.474341
3522.000000	88.415665
3521.000000	88.354568
3520.000000	88.295563
3519.000000	88.238949
3518.000000	88.182014
3517.000000	88.124334
3516.000000	88.068957
3515.000000	88.017298
3514.000000	87.966147
3513.000000	87.911999
3512.000000	87.855498
3511.000000	87.798526
3510.000000	87.739886
3509.000000	87.677284
3508.000000	87.612548
3507.000000	87.550698
3506.000000	87.494320
3505.000000	87.441471
3504.000000	87.388009
3503.000000	87.329811
3502.000000	87.264840
3501.000000	87.194985
3500.000000	87.124322
3499.000000	87.054541
3498.000000	86.983559
3497.000000	86.909563
3496.000000	86.834848
3495.000000	86.763239
3494.000000	86.694952
3493.000000	86.626861
3492.000000	86.556713
3491.000000	86.484330
3490.000000	86.409523
3489.000000	86.331873
3488.000000	86.252243
3487.000000	86.172276
3486.000000	86.092875
3485.000000	86.014738
3484.000000	85.939289
3483.000000	85.866606
3482.000000	85.793029
3481.000000	85.713453
3480.000000	85.626138
3479.000000	85.533541
3478.000000	85.439433
3477.000000	85.347146
3476.000000	85.259260
3475.000000	85.176337
3474.000000	85.096707
3473.000000	85.018724
3472.000000	84.941818
3471.000000	84.864133
3470.000000	84.781362
3469.000000	84.690346
3468.000000	84.592474
3467.000000	84.491722
3466.000000	84.390947
3465.000000	84.291640
3464.000000	84.194803
3463.000000	84.099458
3462.000000	84.001774
3461.000000	83.898496
3460.000000	83.790498
3459.000000	83.681379
3458.000000	83.574017
3457.000000	83.469999
3456.000000	83.370148
3455.000000	83.273115
3454.000000	83.174724
3453.000000	83.071071
3452.000000	82.961852
3451.000000	82.849467
3450.000000	82.736110
3449.000000	82.622768
3448.000000	82.509879
3447.000000	82.397069
3446.000000	82.283531
3445.000000	82.169079
3444.000000	82.053323
3443.000000	81.934109
3442.000000	81.809291
3441.000000	81.680896
3440.000000	81.554742
3439.000000	81.434172
3438.000000	81.316193
3437.000000	81.195270
3436.000000	81.068543
3435.000000	80.935715
3434.000000	80.796638
3433.000000	80.651831
3432.000000	80.503295
3431.000000	80.352359
3430.000000	80.198228
3429.000000	80.040433
3428.000000	79.881205
3427.000000	79.722612
3426.000000	79.563357
3425.000000	79.400704
3424.000000	79.233729
3423.000000	79.062367
3422.000000	78.885125
3421.000000	78.701253
3420.000000	78.513835
3419.000000	78.327513
3418.000000	78.143935
3417.000000	77.961374
3416.000000	77.777306
3415.000000	77.588719
3414.000000	77.391613
3413.000000	77.183772
3412.000000	76.967137
3411.000000	76.745331
3410.000000	76.519884
3409.000000	76.290665
3408.000000	76.058479
3407.000000	75.824222
3406.000000	75.586857
3405.000000	75.344694
3404.000000	75.097244
3403.000000	74.843789
3402.000000	74.581520
3401.000000	74.308005
3400.000000	74.024562
3399.000000	73.734855
3398.000000	73.441639
3397.000000	73.146380
3396.000000	72.849786
3395.000000	72.550064
3394.000000	72.241869
3393.000000	71.920161
3392.000000	71.584619
3391.000000	71.238745
3390.000000	70.886548
3389.000000	70.530799
3388.000000	70.172444
3387.000000	69.809352
3386.000000	69.437127
3385.000000	69.053690
3384.000000	68.660976
3383.000000	68.261470
3382.000000	67.855459
3381.000000	67.442906
3380.000000	67.025427
3379.000000	66.603713
3378.000000	66.175614
3377.000000	65.738803
3376.000000	65.293089
3375.000000	64.838956
3374.000000	64.376040
3373.000000	63.904777
3372.000000	63.427302
3371.000000	62.944512
3370.000000	62.454994
3369.000000	61.957527
3368.000000	61.452186
3367.000000	60.938383
3366.000000	60.414671
3365.000000	59.882185
3364.000000	59.344652
3363.000000	58.803828
3362.000000	58.258346
3361.000000	57.707777
3360.000000	57.154530
3359.000000	56.599981
3358.000000	56.042064
3357.000000	55.478780
3356.000000	54.910567
3355.000000	54.338093
3354.000000	53.760821
3353.000000	53.179145
3352.000000	52.595309
3351.000000	52.010767
3350.000000	51.425487
3349.000000	50.840355
3348.000000	50.256890
3347.000000	49.674094
3346.000000	49.088967
3345.000000	48.500969
3344.000000	47.912750
3343.000000	47.326288
3342.000000	46.742009
3341.000000	46.161747
3340.000000	45.588288
3339.000000	45.021320
3338.000000	44.457807
3337.000000	43.896725
3336.000000	43.339770
3335.000000	42.787395
3334.000000	42.238610
3333.000000	41.695118
3332.000000	41.160732
3331.000000	40.636411
3330.000000	40.119754
3329.000000	39.609516
3328.000000	39.106884
3327.000000	38.611862
3326.000000	38.123287
3325.000000	37.642665
3324.000000	37.173396
3323.000000	36.716579
3322.000000	36.270958
3321.000000	35.836948
3320.000000	35.416435
3319.000000	35.008279
3318.000000	34.609388
3317.000000	34.219293
3316.000000	33.839666
3315.000000	33.470168
3314.000000	33.108811
3313.000000	32.756621
3312.000000	32.416665
3311.000000	32.088858
3310.000000	31.770776
3309.000000	31.462424
3308.000000	31.166486
3307.000000	30.884078
3306.000000	30.614766
3305.000000	30.360345
3304.000000	30.122624
3303.000000	29.899085
3302.000000	29.685053
3301.000000	29.479290
3300.000000	29.283479
3299.000000	29.096685
3298.000000	28.916143
3297.000000	28.742524
3296.000000	28.578902
3295.000000	28.425834
3294.000000	28.281763
3293.000000	28.147963
3292.000000	28.027795
3291.000000	27.920692
3290.000000	27.822524
3289.000000	27.730654
3288.000000	27.644830
3287.000000	27.564045
3286.000000	27.486858
3285.000000	27.414956
3284.000000	27.351242
3283.000000	27.295473
3282.000000	27.245665
3281.000000	27.202207
3280.000000	27.166524
3279.000000	27.136459
3278.000000	27.108025
3277.000000	27.080829
3276.000000	27.057130
3275.000000	27.036980
3274.000000	27.018787
3273.000000	27.003865
3272.000000	26.995791
3271.000000	26.995502
3270.000000	27.001119
3269.000000	27.011328
3268.000000	27.024908
3267.000000	27.038654
3266.000000	27.049999
3265.000000	27.060909
3264.000000	27.075206
3263.000000	27.093141
3262.000000	27.112693
3261.000000	27.134002
3260.000000	27.158175
3259.000000	27.183333
3258.000000	27.206532
3257.000000	27.228624
3256.000000	27.252697
3255.000000	27.279228
3254.000000	27.306808
3253.000000	27.336018
3252.000000	27.368041
3251.000000	27.400825
3250.000000	27.431221
3249.000000	27.459808
3248.000000	27.489393
3247.000000	27.520109
3246.000000	27.550206
3245.000000	27.580355
3244.000000	27.612862
3243.000000	27.647612
3242.000000	27.682821
3241.000000	27.718415
3240.000000	27.754768
3239.000000	27.789580
3238.000000	27.820159
3237.000000	27.847506
3236.000000	27.874570
3235.000000	27.902149
3234.000000	27.930099
3233.000000	27.960425
3232.000000	27.994663
3231.000000	28.029892
3230.000000	28.061670
3229.000000	28.089452
3228.000000	28.115328
3227.000000	28.139394
3226.000000	28.160679
3225.000000	28.180927
3224.000000	28.202838
3223.000000	28.225807
3222.000000	28.247248
3221.000000	28.266699
3220.000000	28.284879
3219.000000	28.300381
3218.000000	28.311580
3217.000000	28.320076
3216.000000	28.328311
3215.000000	28.335452
3214.000000	28.339339
3213.000000	28.340781
3212.000000	28.341671
3211.000000	28.340735
3210.000000	28.335431
3209.000000	28.326227
3208.000000	28.315182
3207.000000	28.301946
3206.000000	28.285161
3205.000000	28.266285
3204.000000	28.247708
3203.000000	28.228734
3202.000000	28.207176
3201.000000	28.183162
3200.000000	28.157699
3199.000000	28.129247
3198.000000	28.095917
3197.000000	28.059338
3196.000000	28.022319
3195.000000	27.984505
3194.000000	27.944002
3193.000000	27.901496
3192.000000	27.858845
3191.000000	27.815285
3190.000000	27.769094
3189.000000	27.721165
3188.000000	27.673238
3187.000000	27.624447
3186.000000	27.573336
3185.000000	27.521509
3184.000000	27.471473
3183.000000	27.422825
3182.000000	27.374083
3181.000000	27.326042
3180.000000	27.279542
3179.000000	27.232289
3178.000000	27.181966
3177.000000	27.130512
3176.000000	27.081433
3175.000000	27.034948
3174.000000	26.989537
3173.000000	26.945955
3172.000000	26.905596
3171.000000	26.867078
3170.000000	26.828352
3169.000000	26.790299
3168.000000	26.754675
3167.000000	26.720593
3166.000000	26.686930
3165.000000	26.655745
3164.000000	26.629451
3163.000000	26.606896
3162.000000	26.585810
3161.000000	26.566903
3160.000000	26.551572
3159.000000	26.538098
3158.000000	26.524150
3157.000000	26.510631
3156.000000	26.499467
3155.000000	26.490037
3154.000000	26.481798
3153.000000	26.477976
3152.000000	26.482060
3151.000000	26.492740
3150.000000	26.506103
3149.000000	26.520796
3148.000000	26.537529
3147.000000	26.555729
3146.000000	26.574872
3145.000000	26.596952
3144.000000	26.623629
3143.000000	26.653085
3142.000000	26.683067
3141.000000	26.715106
3140.000000	26.752112
3139.000000	26.793848
3138.000000	26.838592
3137.000000	26.886728
3136.000000	26.939056
3135.000000	26.993710
3134.000000	27.048346
3133.000000	27.103819
3132.000000	27.162205
3131.000000	27.223391
3130.000000	27.286723
3129.000000	27.353375
3128.000000	27.424009
3127.000000	27.496445
3126.000000	27.568973
3125.000000	27.643417
3124.000000	27.721510
3123.000000	27.801245
3122.000000	27.880231
3121.000000	27.959958
3120.000000	28.043165
3119.000000	28.129416
3118.000000	28.217236
3117.000000	28.308053
3116.000000	28.404078
3115.000000	28.504399
3114.000000	28.606489
3113.000000	28.709623
3112.000000	28.813553
3111.000000	28.916420
3110.000000	29.017551
3109.000000	29.119958
3108.000000	29.226701
3107.000000	29.336831
3106.000000	29.447944
3105.000000	29.560294
3104.000000	29.675007
3103.000000	29.790761
3102.000000	29.905745
3101.000000	30.020871
3100.000000	30.137952
3099.000000	30.256500
3098.000000	30.375331
3097.000000	30.495224
3096.000000	30.616983
3095.000000	30.739120
3094.000000	30.860315
3093.000000	30.982109
3092.000000	31.106384
3091.000000	31.232336
3090.000000	31.358569
3089.000000	31.485702
3088.000000	31.614228
3087.000000	31.742448
3086.000000	31.869503
3085.000000	31.998052
3084.000000	32.130727
3083.000000	32.266084
3082.000000	32.401042
3081.000000	32.535076
3080.000000	32.669321
3079.000000	32.803865
3078.000000	32.938917
3077.000000	33.076434
3076.000000	33.217434
3075.000000	33.359687
3074.000000	33.500687
3073.000000	33.640793
3072.000000	33.781005
3071.000000	33.920117
3070.000000	34.057019
3069.000000	34.193546
3068.000000	34.332108
3067.000000	34.472482
3066.000000	34.613586
3065.000000	34.756308
3064.000000	34.901724
3063.000000	35.048452
3062.000000	35.194406
3061.000000	35.339312
3060.000000	35.483219
3059.000000	35.624780
3058.000000	35.763538
3057.000000	35.901841
3056.000000	36.041912
3055.000000	36.182986
3054.000000	36.323695
3053.000000	36.464997
3052.000000	36.608182
3051.000000	36.752072
3050.000000	36.894742
3049.000000	37.036047
3048.000000	37.176229
3047.000000	37.314267
3046.000000	37.450132
3045.000000	37.586489
3044.000000	37.725616
3043.000000	37.866595
3042.000000	38.007728
3041.000000	38.149310
3040.000000	38.291426
3039.000000	38.431524
3038.000000	38.567252
3037.000000	38.699876
3036.000000	38.832343
3035.000000	38.965792
3034.000000	39.100187
3033.000000	39.236149
3032.000000	39.373344
3031.000000	39.509160
3030.000000	39.641796
3029.000000	39.772788
3028.000000	39.904155
3027.000000	40.035262
3026.000000	40.165172
3025.000000	40.295733
3024.000000	40.429101
3023.000000	40.563960
3022.000000	40.697115
3021.000000	40.827362
3020.000000	40.955189
3019.000000	41.080312
3018.000000	41.202473
3017.000000	41.323422
3016.000000	41.445533
3015.000000	41.569448
3014.000000	41.694978
3013.000000	41.822721
3012.000000	41.952518
3011.000000	42.082007
3010.000000	42.209060
3009.000000	42.334342
3008.000000	42.459479
3007.000000	42.584448
3006.000000	42.708824
3005.000000	42.833713
3004.000000	42.960019
3003.000000	43.086200
3002.000000	43.209972
3001.000000	43.330860
3000.000000	43.449342
2999.000000	43.565339
2998.000000	43.679671
2997.000000	43.795136
2996.000000	43.913616
2995.000000	44.033668
2994.000000	44.153111
2993.000000	44.272303
2992.000000	44.392471
2991.000000	44.512572
2990.000000	44.630535
2989.000000	44.746360
2988.000000	44.861568
2987.000000	44.976823
2986.000000	45.092268
2985.000000	45.208868
2984.000000	45.326973
2983.000000	45.444709
2982.000000	45.560040
2981.000000	45.673331
2980.000000	45.785921
2979.000000	45.897574
2978.000000	46.007676
2977.000000	46.117680
2976.000000	46.229922
2975.000000	46.344812
2974.000000	46.461056
2973.000000	46.577469
2972.000000	46.692699
2971.000000	46.804587
2970.000000	46.912253
2969.000000	47.017963
2968.000000	47.124903
2967.000000	47.234068
2966.000000	47.344885
2965.000000	47.457276
2964.000000	47.570776
2963.000000	47.682959
2962.000000	47.791279
2961.000000	47.895604
2960.000000	47.997160
2959.000000	48.096436
2958.000000	48.194144
2957.000000	48.292627
2956.000000	48.393748
2955.000000	48.496534
2954.000000	48.598992
2953.000000	48.700777
2952.000000	48.801895
2951.000000	48.900487
2950.000000	48.994844
2949.000000	49.086642
2948.000000	49.179682
2947.000000	49.276143
2946.000000	49.376012
2945.000000	49.478886
2944.000000	49.583754
2943.000000	49.687746
2942.000000	49.787606
2941.000000	49.882395
2940.000000	49.973356
2939.000000	50.062138
2938.000000	50.150719
2937.000000	50.241717
2936.000000	50.336359
2935.000000	50.432724
2934.000000	50.527768
2933.000000	50.620163
2932.000000	50.709622
2931.000000	50.795210
2930.000000	50.876942
2929.000000	50.958033
2928.000000	51.042841
2927.000000	51.132876
2926.000000	51.226513
2925.000000	51.321384
2924.000000	51.414954
2923.000000	51.504170
2922.000000	51.587514
2921.000000	51.667085
2920.000000	51.746691
2919.000000	51.828583
2918.000000	51.913422
2917.000000	52.001776
2916.000000	52.092840
2915.000000	52.182484
2914.000000	52.265294
2913.000000	52.338789
2912.000000	52.404493
2911.000000	52.465775
2910.000000	52.526624
2909.000000	52.591540
2908.000000	52.663883
2907.000000	52.743551
2906.000000	52.827188
2905.000000	52.910547
2904.000000	52.989827
2903.000000	53.062211
2902.000000	53.127239
2901.000000	53.187924
2900.000000	53.248993
2899.000000	53.314128
2898.000000	53.384689
2897.000000	53.459475
2896.000000	53.534717
2895.000000	53.605466
2894.000000	53.669031
2893.000000	53.726696
2892.000000	53.781368
2891.000000	53.834846
2890.000000	53.888525
2889.000000	53.944951
2888.000000	54.006257
2887.000000	54.071510
2886.000000	54.137166
2885.000000	54.199578
2884.000000	54.255889
2883.000000	54.303912
2882.000000	54.343453
2881.000000	54.377449
2880.000000	54.410204
2879.000000	54.444745
2878.000000	54.482701
2877.000000	54.525140
2876.000000	54.571060
2875.000000	54.615765
2874.000000	54.653452
2873.000000	54.682187
2872.000000	54.705697
2871.000000	54.730811
2870.000000	54.764202
2869.000000	54.810404
2868.000000	54.870216
2867.000000	54.940389
2866.000000	55.015974
2865.000000	55.093205
2864.000000	55.170085
2863.000000	55.245716
2862.000000	55.320742
2861.000000	55.397739
2860.000000	55.479501
2859.000000	55.566896
2858.000000	55.659102
2857.000000	55.754750
2856.000000	55.851408
2855.000000	55.945172
2854.000000	56.032886
2853.000000	56.114793
2852.000000	56.194041
2851.000000	56.274057
2850.000000	56.357216
2849.000000	56.444626
2848.000000	56.535184
2847.000000	56.625231
2846.000000	56.710626
2845.000000	56.789239
2844.000000	56.861101
2843.000000	56.927475
2842.000000	56.991066
2841.000000	57.055972
2840.000000	57.125373
2839.000000	57.199301
2838.000000	57.275478
2837.000000	57.351463
2836.000000	57.424832
2835.000000	57.492673
2834.000000	57.553370
2833.000000	57.608930
2832.000000	57.664023
2831.000000	57.722673
2830.000000	57.786689
2829.000000	57.856138
2828.000000	57.929297
2827.000000	58.002312
2826.000000	58.070776
2825.000000	58.132322
2824.000000	58.187331
2823.000000	58.237855
2822.000000	58.287015
2821.000000	58.338675
2820.000000	58.395697
2819.000000	58.458013
2818.000000	58.523012
2817.000000	58.587404
2816.000000	58.648106
2815.000000	58.702684
2814.000000	58.751045
2813.000000	58.796626
2812.000000	58.844391
2811.000000	58.897456
2810.000000	58.956217
2809.000000	59.019635
2808.000000	59.085495
2807.000000	59.149988
2806.000000	59.209237
2805.000000	59.261943
2804.000000	59.309717
2803.000000	59.355299
2802.000000	59.401680
2801.000000	59.452136
2800.000000	59.508732
2799.000000	59.570135
2798.000000	59.632078
2797.000000	59.690364
2796.000000	59.742871
2795.000000	59.789461
2794.000000	59.831836
2793.000000	59.873656
2792.000000	59.919073
2791.000000	59.970224
2790.000000	60.026562
2789.000000	60.086114
2788.000000	60.146117
2787.000000	60.202825
2786.000000	60.252770
2785.000000	60.295191
2784.000000	60.332640
2783.000000	60.369193
2782.000000	60.408602
2781.000000	60.453412
2780.000000	60.503911
2779.000000	60.557377
2778.000000	60.609451
2777.000000	60.656790
2776.000000	60.698262
2775.000000	60.734425
2774.000000	60.767326
2773.000000	60.800657
2772.000000	60.838324
2771.000000	60.882081
2770.000000	60.930889
2769.000000	60.982187
2768.000000	61.032772
2767.000000	61.079101
2766.000000	61.118754
2765.000000	61.152348
2764.000000	61.183282
2763.000000	61.215399
2762.000000	61.251385
2761.000000	61.292620
2760.000000	61.338605
2759.000000	61.386214
2758.000000	61.430961
2757.000000	61.469833
2756.000000	61.502680
2755.000000	61.531406
2754.000000	61.559022
2753.000000	61.589165
2752.000000	61.624687
2751.000000	61.665904
2750.000000	61.710670
2749.000000	61.756030
2748.000000	61.799092
2747.000000	61.837057
2746.000000	61.868383
2745.000000	61.894521
2744.000000	61.919398
2743.000000	61.946786
2742.000000	61.978635
2741.000000	62.015289
2740.000000	62.055550
2739.000000	62.096278
2738.000000	62.133517
2737.000000	62.164932
2736.000000	62.190787
2735.000000	62.213026
2734.000000	62.234559
2733.000000	62.259050
2732.000000	62.289458
2731.000000	62.325939
2730.000000	62.365852
2729.000000	62.405789
2728.000000	62.442734
2727.000000	62.473899
2726.000000	62.497690
2725.000000	62.515730
2724.000000	62.532648
2723.000000	62.553052
2722.000000	62.579132
2721.000000	62.610701
2720.000000	62.645817
2719.000000	62.680877
2718.000000	62.711796
2717.000000	62.736443
2716.000000	62.755760
2715.000000	62.772608
2714.000000	62.790429
2713.000000	62.812687
2712.000000	62.841624
2711.000000	62.876391
2710.000000	62.913068
2709.000000	62.946986
2708.000000	62.974763
2707.000000	62.994783
2706.000000	63.007529
2705.000000	63.016167
2704.000000	63.025506
2703.000000	63.039341
2702.000000	63.058832
2701.000000	63.082785
2700.000000	63.108149
2699.000000	63.130280
2698.000000	63.144713
2697.000000	63.150171
2696.000000	63.149442
2695.000000	63.147190
2694.000000	63.147592
2693.000000	63.153553
2692.000000	63.166090
2691.000000	63.183203
2690.000000	63.200272
2689.000000	63.212515
2688.000000	63.217138
2687.000000	63.213874
2686.000000	63.204986
2685.000000	63.195078
2684.000000	63.189286
2683.000000	63.190350
2682.000000	63.197461
2681.000000	63.207504
2680.000000	63.216517
2679.000000	63.220402
2678.000000	63.216411
2677.000000	63.205296
2676.000000	63.191394
2675.000000	63.180063
2674.000000	63.175305
2673.000000	63.179212
2672.000000	63.191715
2671.000000	63.210064
2670.000000	63.229703
2669.000000	63.246740
2668.000000	63.259890
2667.000000	63.270540
2666.000000	63.282310
2665.000000	63.300422
2664.000000	63.329412
2663.000000	63.370377
2662.000000	63.420427
2661.000000	63.474815
2660.000000	63.529022
2659.000000	63.579366
2658.000000	63.624022
2657.000000	63.664469
2656.000000	63.705088
2655.000000	63.750524
2654.000000	63.803297
2653.000000	63.863410
2652.000000	63.928499
2651.000000	63.993839
2650.000000	64.053730
2649.000000	64.104365
2648.000000	64.145660
2647.000000	64.180698
2646.000000	64.214284
2645.000000	64.251506
2644.000000	64.295592
2643.000000	64.345754
2642.000000	64.397574
2641.000000	64.445854
2640.000000	64.486704
2639.000000	64.518006
2638.000000	64.540076
2637.000000	64.556814
2636.000000	64.574623
2635.000000	64.598654
2634.000000	64.630200
2633.000000	64.667235
2632.000000	64.705922
2631.000000	64.741382
2630.000000	64.769080
2629.000000	64.787440
2628.000000	64.798853
2627.000000	64.807692
2626.000000	64.818061
2625.000000	64.833173
2624.000000	64.854765
2623.000000	64.881420
2622.000000	64.908298
2621.000000	64.929979
2620.000000	64.943591
2619.000000	64.949507
2618.000000	64.950506
2617.000000	64.951126
2616.000000	64.956460
2615.000000	64.969662
2614.000000	64.990165
2613.000000	65.014249
2612.000000	65.036707
2611.000000	65.052383
2610.000000	65.057987
2609.000000	65.054064
2608.000000	65.044913
2607.000000	65.035807
2606.000000	65.030349
2605.000000	65.029709
2604.000000	65.032576
2603.000000	65.035029
2602.000000	65.031628
2601.000000	65.018448
2600.000000	64.995189
2599.000000	64.964709
2598.000000	64.931659
2597.000000	64.901556
2596.000000	64.879339
2595.000000	64.867210
2594.000000	64.863952
2593.000000	64.866489
2592.000000	64.871731
2591.000000	64.877234
2590.000000	64.882288
2589.000000	64.889559
2588.000000	64.904403
2587.000000	64.931956
2586.000000	64.974418
2585.000000	65.030806
2584.000000	65.097778
2583.000000	65.169757
2582.000000	65.240494
2581.000000	65.306092
2580.000000	65.366874
2579.000000	65.426391
2578.000000	65.488978
2577.000000	65.558462
2576.000000	65.637033
2575.000000	65.723616
2574.000000	65.813624
2573.000000	65.901174
2572.000000	65.981829
2571.000000	66.053766
2570.000000	66.117983
2569.000000	66.178388
2568.000000	66.240551
2567.000000	66.308765
2566.000000	66.383840
2565.000000	66.463498
2564.000000	66.543719
2563.000000	66.619718
2562.000000	66.687383
2561.000000	66.745585
2560.000000	66.797121
2559.000000	66.846831
2558.000000	66.899209
2557.000000	66.957447
2556.000000	67.022655
2555.000000	67.092553
2554.000000	67.161668
2553.000000	67.224407
2552.000000	67.278061
2551.000000	67.323005
2550.000000	67.361702
2549.000000	67.398378
2548.000000	67.438202
2547.000000	67.484611
2546.000000	67.537033
2545.000000	67.591669
2544.000000	67.643438
2543.000000	67.687280
2542.000000	67.719563
2541.000000	67.740313
2540.000000	67.754082
2539.000000	67.767178
2538.000000	67.784108
2537.000000	67.806216
2536.000000	67.831589
2535.000000	67.855171
2534.000000	67.869856
2533.000000	67.869926
2532.000000	67.854060
2531.000000	67.824903
2530.000000	67.787366
2529.000000	67.747505
2528.000000	67.711085
2527.000000	67.680949
2526.000000	67.655508
2525.000000	67.630911
2524.000000	67.604074
2523.000000	67.573758
2522.000000	67.540760
2521.000000	67.509084
2520.000000	67.485777
2519.000000	67.477877
2518.000000	67.488942
2517.000000	67.517893
2516.000000	67.560411
2515.000000	67.609950
2514.000000	67.659551
2513.000000	67.704991
2512.000000	67.746382
2511.000000	67.787132
2510.000000	67.831509
2509.000000	67.883386
2508.000000	67.945149
2507.000000	68.015487
2506.000000	68.088795
2505.000000	68.157874
2504.000000	68.217499
2503.000000	68.265770
2502.000000	68.304075
2501.000000	68.337243
2500.000000	68.372387
2499.000000	68.415163
2498.000000	68.466406
2497.000000	68.522617
2496.000000	68.578419
2495.000000	68.628070
2494.000000	68.666789
2493.000000	68.693281
2492.000000	68.711344
2491.000000	68.727683
2490.000000	68.748188
2489.000000	68.776203
2488.000000	68.812206
2487.000000	68.853187
2486.000000	68.892863
2485.000000	68.924649
2484.000000	68.945334
2483.000000	68.955955
2482.000000	68.960632
2481.000000	68.965591
2480.000000	68.977457
2479.000000	68.999901
2478.000000	69.031250
2477.000000	69.065932
2476.000000	69.097643
2475.000000	69.121234
2474.000000	69.133890
2473.000000	69.136948
2472.000000	69.136353
2471.000000	69.139493
2470.000000	69.151163
2469.000000	69.172345
2468.000000	69.200855
2467.000000	69.231604
2466.000000	69.257607
2465.000000	69.273443
2464.000000	69.278531
2463.000000	69.276860
2462.000000	69.274427
2461.000000	69.277386
2460.000000	69.290437
2459.000000	69.314227
2458.000000	69.344215
2457.000000	69.373270
2456.000000	69.395634
2455.000000	69.408574
2454.000000	69.412330
2453.000000	69.410607
2452.000000	69.410052
2451.000000	69.416932
2450.000000	69.433694
2449.000000	69.458721
2448.000000	69.487962
2447.000000	69.515833
2446.000000	69.536442
2445.000000	69.546723
2444.000000	69.548724
2443.000000	69.548036
2442.000000	69.550450
2441.000000	69.560286
2440.000000	69.579749
2439.000000	69.607451
2438.000000	69.637966
2437.000000	69.664761
2436.000000	69.683846
2435.000000	69.694510
2434.000000	69.698453
2433.000000	69.699842
2432.000000	69.704757
2431.000000	69.717960
2430.000000	69.739848
2429.000000	69.767080
2428.000000	69.795218
2427.000000	69.819889
2426.000000	69.837399
2425.000000	69.846922
2424.000000	69.851956
2423.000000	69.858047
2422.000000	69.869280
2421.000000	69.887425
2420.000000	69.912632
2419.000000	69.942757
2418.000000	69.972862
2417.000000	69.997699
2416.000000	70.015051
2415.000000	70.026020
2414.000000	70.033229
2413.000000	70.040239
2412.000000	70.051429
2411.000000	70.069862
2410.000000	70.094971
2409.000000	70.123240
2408.000000	70.150702
2407.000000	70.174023
2406.000000	70.190786
2405.000000	70.200987
2404.000000	70.208063
2403.000000	70.216859
2402.000000	70.230730
2401.000000	70.250994
2400.000000	70.277569
2399.000000	70.308339
2398.000000	70.338829
2397.000000	70.364578
2396.000000	70.383984
2395.000000	70.398312
2394.000000	70.410181
2393.000000	70.423199
2392.000000	70.441515
2391.000000	70.467442
2390.000000	70.499706
2389.000000	70.534976
2388.000000	70.570387
2387.000000	70.603513
2386.000000	70.631954
2385.000000	70.655377
2384.000000	70.676997
2383.000000	70.701686
2382.000000	70.732544
2381.000000	70.770451
2380.000000	70.815366
2379.000000	70.865246
2378.000000	70.915334
2377.000000	70.960541
2376.000000	70.998755
2375.000000	71.031000
2374.000000	71.059584
2373.000000	71.087954
2372.000000	71.120963
2371.000000	71.162187
2370.000000	71.210763
2369.000000	71.263261
2368.000000	71.316699
2367.000000	71.367958
2366.000000	71.412766
2365.000000	71.449480
2364.000000	71.482564
2363.000000	71.516330
2362.000000	71.553324
2361.000000	71.596004
2360.000000	71.644452
2359.000000	71.697756
2358.000000	71.749656
2357.000000	71.794296
2356.000000	71.831196
2355.000000	71.860432
2354.000000	71.886133
2353.000000	71.914540
2352.000000	71.956663
2351.000000	72.014066
2350.000000	72.073738
2349.000000	72.125254
2348.000000	72.167756
2347.000000	72.211912
2346.000000	72.260217
2345.000000	72.304615
2344.000000	72.340113
2343.000000	72.368102
2342.000000	72.400376
2341.000000	72.441942
2340.000000	72.493577
2339.000000	72.551129
2338.000000	72.608142
2337.000000	72.658645
2336.000000	72.701272
2335.000000	72.738574
2334.000000	72.774064
2333.000000	72.810815
2332.000000	72.853244
2331.000000	72.905810
2330.000000	72.964478
2329.000000	73.026515
2328.000000	73.083527
2327.000000	73.134104
2326.000000	73.173957
2325.000000	73.204534
2324.000000	73.232627
2323.000000	73.264920
2322.000000	73.306175
2321.000000	73.354361
2320.000000	73.408638
2319.000000	73.465978
2318.000000	73.520801
2317.000000	73.567064
2316.000000	73.602089
2315.000000	73.630299
2314.000000	73.656218
2313.000000	73.686714
2312.000000	73.725759
2311.000000	73.776898
2310.000000	73.835283
2309.000000	73.894274
2308.000000	73.946221
2307.000000	73.988449
2306.000000	74.019268
2305.000000	74.041691
2304.000000	74.062636
2303.000000	74.091388
2302.000000	74.132072
2301.000000	74.184017
2300.000000	74.242229
2299.000000	74.300891
2298.000000	74.351553
2297.000000	74.389274
2296.000000	74.414672
2295.000000	74.434978
2294.000000	74.456924
2293.000000	74.486149
2292.000000	74.526300
2291.000000	74.577993
2290.000000	74.635437
2289.000000	74.689461
2288.000000	74.733543
2287.000000	74.766122
2286.000000	74.788900
2285.000000	74.806168
2284.000000	74.825731
2283.000000	74.855238
2282.000000	74.897221
2281.000000	74.948163
2280.000000	75.002360
2279.000000	75.053493
2278.000000	75.094919
2277.000000	75.122703
2276.000000	75.139660
2275.000000	75.153782
2274.000000	75.172242
2273.000000	75.199116
2272.000000	75.236313
2271.000000	75.282876
2270.000000	75.332744
2269.000000	75.377305
2268.000000	75.411058
2267.000000	75.433538
2266.000000	75.447002
2265.000000	75.455987
2264.000000	75.467804
2263.000000	75.489514
2262.000000	75.522599
2261.000000	75.562732
2260.000000	75.603895
2259.000000	75.640212
2258.000000	75.665999
2257.000000	75.678267
2256.000000	75.680482
2255.000000	75.680593
2254.000000	75.685316
2253.000000	75.698034
2252.000000	75.720005
2251.000000	75.749734
2250.000000	75.780823
2249.000000	75.804877
2248.000000	75.817081
2247.000000	75.817801
2246.000000	75.809912
2245.000000	75.798046
2244.000000	75.789148
2243.000000	75.789392
2242.000000	75.799428
2241.000000	75.814740
2240.000000	75.829733
2239.000000	75.839170
2238.000000	75.837585
2237.000000	75.822103
2236.000000	75.796339
2235.000000	75.768474
2234.000000	75.745414
2233.000000	75.730690
2232.000000	75.725670
2231.000000	75.728554
2230.000000	75.732544
2229.000000	75.729181
2228.000000	75.714218
2227.000000	75.688481
2226.000000	75.654811
2225.000000	75.617843
2224.000000	75.585277
2223.000000	75.564376
2222.000000	75.556216
2221.000000	75.555699
2220.000000	75.556389
2219.000000	75.552615
2218.000000	75.538816
2217.000000	75.512085
2216.000000	75.476301
2215.000000	75.440534
2214.000000	75.412953
2213.000000	75.397932
2212.000000	75.396822
2211.000000	75.406943
2210.000000	75.420050
2209.000000	75.426025
2208.000000	75.419370
2207.000000	75.400857
2206.000000	75.374686
2205.000000	75.347608
2204.000000	75.329128
2203.000000	75.327176
2202.000000	75.342109
2201.000000	75.366899
2200.000000	75.392627
2199.000000	75.411577
2198.000000	75.417558
2197.000000	75.408767
2196.000000	75.391298
2195.000000	75.376313
2194.000000	75.373041
2193.000000	75.385593
2192.000000	75.413875
2191.000000	75.452749
2190.000000	75.491175
2189.000000	75.517200
2188.000000	75.525685
2187.000000	75.519626
2186.000000	75.505781
2185.000000	75.492552
2184.000000	75.489892
2183.000000	75.504993
2182.000000	75.536207
2181.000000	75.573686
2180.000000	75.606017
2179.000000	75.624428
2178.000000	75.623583
2177.000000	75.604303
2176.000000	75.576372
2175.000000	75.554172
2174.000000	75.547863
2173.000000	75.559708
2172.000000	75.586429
2171.000000	75.620313
2170.000000	75.649200
2169.000000	75.661337
2168.000000	75.653043
2167.000000	75.629987
2166.000000	75.602169
2165.000000	75.580393
2164.000000	75.574982
2163.000000	75.591228
2162.000000	75.624265
2161.000000	75.661206
2160.000000	75.689198
2159.000000	75.700187
2158.000000	75.691169
2157.000000	75.665803
2156.000000	75.636258
2155.000000	75.618174
2154.000000	75.621342
2153.000000	75.645709
2152.000000	75.684219
2151.000000	75.725311
2150.000000	75.754804
2149.000000	75.761883
2148.000000	75.746278
2147.000000	75.717701
2146.000000	75.689031
2145.000000	75.671819
2144.000000	75.675020
2143.000000	75.700801
2142.000000	75.740253
2141.000000	75.777104
2140.000000	75.797686
2139.000000	75.796204
2138.000000	75.773865
2137.000000	75.738632
2136.000000	75.705449
2135.000000	75.690196
2134.000000	75.700158
2133.000000	75.731190
2132.000000	75.772303
2131.000000	75.809885
2130.000000	75.830199
2129.000000	75.825024
2128.000000	75.798061
2127.000000	75.763169
2126.000000	75.735783
2125.000000	75.727039
2124.000000	75.742532
2123.000000	75.779699
2122.000000	75.825595
2121.000000	75.862297
2120.000000	75.877363
2119.000000	75.868626
2118.000000	75.841973
2117.000000	75.809362
2116.000000	75.787376
2115.000000	75.790336
2114.000000	75.821585
2113.000000	75.872265
2112.000000	75.927922
2111.000000	75.973972
2110.000000	75.998651
2109.000000	75.998189
2108.000000	75.981577
2107.000000	75.966419
2106.000000	75.968733
2105.000000	75.997241
2104.000000	76.053376
2103.000000	76.129949
2102.000000	76.210349
2101.000000	76.275539
2100.000000	76.315490
2099.000000	76.332896
2098.000000	76.338435
2097.000000	76.346558
2096.000000	76.373295
2095.000000	76.429510
2094.000000	76.513099
2093.000000	76.609767
2092.000000	76.701946
2091.000000	76.774998
2090.000000	76.819425
2089.000000	76.835280
2088.000000	76.836018
2087.000000	76.842105
2086.000000	76.868659
2085.000000	76.919796
2084.000000	76.990791
2083.000000	77.069597
2082.000000	77.137630
2081.000000	77.177559
2080.000000	77.184354
2079.000000	77.167047
2078.000000	77.140882
2077.000000	77.121447
2076.000000	77.122484
2075.000000	77.150213
2074.000000	77.196875
2073.000000	77.244248
2072.000000	77.275141
2071.000000	77.279762
2070.000000	77.255948
2069.000000	77.211108
2068.000000	77.163584
2067.000000	77.134329
2066.000000	77.133804
2065.000000	77.158313
2064.000000	77.196883
2063.000000	77.236589
2062.000000	77.263033
2061.000000	77.264896
2060.000000	77.242720
2059.000000	77.209838
2058.000000	77.183566
2057.000000	77.178185
2056.000000	77.202846
2055.000000	77.257608
2054.000000	77.329512
2053.000000	77.398113
2052.000000	77.447823
2051.000000	77.474101
2050.000000	77.480928
2049.000000	77.479274
2048.000000	77.486882
2047.000000	77.520905
2046.000000	77.587145
2045.000000	77.678044
2044.000000	77.779845
2043.000000	77.877383
2042.000000	77.955373
2041.000000	78.005171
2040.000000	78.033721
2039.000000	78.060649
2038.000000	78.104809
2037.000000	78.175999
2036.000000	78.275827
2035.000000	78.397875
2034.000000	78.526181
2033.000000	78.641321
2032.000000	78.732291
2031.000000	78.800950
2030.000000	78.856451
2029.000000	78.911252
2028.000000	78.980463
2027.000000	79.075558
2026.000000	79.195162
2025.000000	79.325975
2024.000000	79.452871
2023.000000	79.564520
2022.000000	79.653465
2021.000000	79.719913
2020.000000	79.776248
2019.000000	79.840206
2018.000000	79.921368
2017.000000	80.017766
2016.000000	80.124114
2015.000000	80.235429
2014.000000	80.341919
2013.000000	80.430350
2012.000000	80.495257
2011.000000	80.543141
2010.000000	80.584862
2009.000000	80.630443
2008.000000	80.689969
2007.000000	80.770000
2006.000000	80.865668
2005.000000	80.962241
2004.000000	81.046550
2003.000000	81.112803
2002.000000	81.159707
2001.000000	81.190390
2000.000000	81.216494
1999.000000	81.253184
1998.000000	81.307014
1997.000000	81.375052
1996.000000	81.453942
1995.000000	81.540220
1994.000000	81.622243
1993.000000	81.682772
1992.000000	81.714095
1991.000000	81.726375
1990.000000	81.738077
1989.000000	81.761367
1988.000000	81.799452
1987.000000	81.850591
1986.000000	81.907967
1985.000000	81.961341
1984.000000	82.003724
1983.000000	82.033797
1982.000000	82.052678
1981.000000	82.064018
1980.000000	82.077436
1979.000000	82.103642
1978.000000	82.144330
1977.000000	82.192716
1976.000000	82.242541
1975.000000	82.289872
1974.000000	82.328241
1973.000000	82.351822
1972.000000	82.364602
1971.000000	82.379056
1970.000000	82.404517
1969.000000	82.441895
1968.000000	82.487040
1967.000000	82.531496
1966.000000	82.564107
1965.000000	82.581111
1964.000000	82.590452
1963.000000	82.601018
1962.000000	82.612824
1961.000000	82.622027
1960.000000	82.631503
1959.000000	82.648798
1958.000000	82.675412
1957.000000	82.706121
1956.000000	82.737168
1955.000000	82.766964
1954.000000	82.790868
1953.000000	82.804717
1952.000000	82.812097
1951.000000	82.820884
1950.000000	82.834424
1949.000000	82.852067
1948.000000	82.876366
1947.000000	82.910827
1946.000000	82.951261
1945.000000	82.988095
1944.000000	83.015977
1943.000000	83.032357
1942.000000	83.030803
1941.000000	83.012124
1940.000000	82.993371
1939.000000	82.988981
1938.000000	82.996433
1937.000000	83.007292
1936.000000	83.020917
1935.000000	83.040764
1934.000000	83.062659
1933.000000	83.077511
1932.000000	83.083191
1931.000000	83.084453
1930.000000	83.082981
1929.000000	83.076944
1928.000000	83.071194
1927.000000	83.076737
1926.000000	83.099664
1925.000000	83.135705
1924.000000	83.174513
1923.000000	83.203008
1922.000000	83.208411
1921.000000	83.190470
1920.000000	83.160834
1919.000000	83.128843
1918.000000	83.097494
1917.000000	83.071361
1916.000000	83.063726
1915.000000	83.080624
1914.000000	83.107110
1913.000000	83.126030
1912.000000	83.136245
1911.000000	83.143400
1910.000000	83.141708
1909.000000	83.119753
1908.000000	83.083048
1907.000000	83.052187
1906.000000	83.039158
1905.000000	83.038896
1904.000000	83.042213
1903.000000	83.044279
1902.000000	83.038612
1901.000000	83.018514
1900.000000	82.989693
1899.000000	82.969035
1898.000000	82.968316
1897.000000	82.987106
1896.000000	83.018540
1895.000000	83.052692
1894.000000	83.077457
1893.000000	83.087484
1892.000000	83.087991
1891.000000	83.084252
1890.000000	83.071261
1889.000000	83.042102
1888.000000	83.012304
1887.000000	83.010970
1886.000000	83.040793
1885.000000	83.077259
1884.000000	83.100693
1883.000000	83.108057
1882.000000	83.099847
1881.000000	83.075146
1880.000000	83.043259
1879.000000	83.022001
1878.000000	83.020556
1877.000000	83.035515
1876.000000	83.061303
1875.000000	83.093621
1874.000000	83.124177
1873.000000	83.142762
1872.000000	83.148085
1871.000000	83.150067
1870.000000	83.159626
1869.000000	83.175115
1868.000000	83.181416
1867.000000	83.173343
1866.000000	83.158539
1865.000000	83.137176
1864.000000	83.107609
1863.000000	83.075020
1862.000000	83.039874
1861.000000	82.997640
1860.000000	82.955263
1859.000000	82.930071
1858.000000	82.928552
1857.000000	82.941428
1856.000000	82.959107
1855.000000	82.976162
1854.000000	82.980782
1853.000000	82.958548
1852.000000	82.913969
1851.000000	82.868598
1850.000000	82.838561
1849.000000	82.830778
1848.000000	82.849547
1847.000000	82.888780
1846.000000	82.920453
1845.000000	82.908684
1844.000000	82.844520
1843.000000	82.761148
1842.000000	82.696791
1841.000000	82.654136
1840.000000	82.624262
1839.000000	82.614558
1838.000000	82.628531
1837.000000	82.647727
1836.000000	82.649698
1835.000000	82.631588
1834.000000	82.600913
1833.000000	82.562769
1832.000000	82.525707
1831.000000	82.503607
1830.000000	82.492504
1829.000000	82.466557
1828.000000	82.427517
1827.000000	82.396568
1826.000000	82.364293
1825.000000	82.308865
1824.000000	82.231666
1823.000000	82.155405
1822.000000	82.090169
1821.000000	82.028584
1820.000000	81.975530
1819.000000	81.946739
1818.000000	81.942627
1817.000000	81.943804
1816.000000	81.934254
1815.000000	81.914536
1814.000000	81.886208
1813.000000	81.846251
1812.000000	81.798292
1811.000000	81.751114
1810.000000	81.707113
1809.000000	81.665491
1808.000000	81.632015
1807.000000	81.611000
1806.000000	81.590826
1805.000000	81.550107
1804.000000	81.482993
1803.000000	81.408845
1802.000000	81.350473
1801.000000	81.314682
1800.000000	81.298732
1799.000000	81.301544
1798.000000	81.317459
1797.000000	81.330423
1796.000000	81.328301
1795.000000	81.307097
1794.000000	81.256766
1793.000000	81.167033
1792.000000	81.048599
1791.000000	80.936460
1790.000000	80.869434
1789.000000	80.852279
1788.000000	80.852475
1787.000000	80.836625
1786.000000	80.787660
1785.000000	80.710025
1784.000000	80.635512
1783.000000	80.600663
1782.000000	80.604635
1781.000000	80.615759
1780.000000	80.613280
1779.000000	80.604035
1778.000000	80.599916
1777.000000	80.596366
1776.000000	80.594464
1775.000000	80.607062
1774.000000	80.627687
1773.000000	80.625787
1772.000000	80.567772
1771.000000	80.449831
1770.000000	80.314794
1769.000000	80.196756
1768.000000	80.096798
1767.000000	80.022248
1766.000000	79.978976
1765.000000	79.947776
1764.000000	79.902921
1763.000000	79.844102
1762.000000	79.787971
1761.000000	79.748913
1760.000000	79.739394
1759.000000	79.750274
1758.000000	79.738223
1757.000000	79.667755
1756.000000	79.561049
1755.000000	79.479138
1754.000000	79.444886
1753.000000	79.432684
1752.000000	79.431593
1751.000000	79.460764
1750.000000	79.514842
1749.000000	79.540201
1748.000000	79.493938
1747.000000	79.387899
1746.000000	79.257223
1745.000000	79.124862
1744.000000	79.006099
1743.000000	78.915390
1742.000000	78.851069
1741.000000	78.790604
1740.000000	78.713988
1739.000000	78.629057
1738.000000	78.556354
1737.000000	78.492555
1736.000000	78.411368
1735.000000	78.301062
1734.000000	78.173629
1733.000000	78.044104
1732.000000	77.937363
1731.000000	77.840722
1730.000000	77.708086
1729.000000	77.525352
1728.000000	77.320657
1727.000000	77.135375
1726.000000	76.974193
1725.000000	76.819980
1724.000000	76.672991
1723.000000	76.553186
1722.000000	76.468259
1721.000000	76.401990
1720.000000	76.345847
1719.000000	76.312222
1718.000000	76.278353
1717.000000	76.140256
1716.000000	75.852657
1715.000000	75.507637
1714.000000	75.196675
1713.000000	74.953643
1712.000000	74.774556
1711.000000	74.631518
1710.000000	74.490244
1709.000000	74.328325
1708.000000	74.146094
1707.000000	73.951835
1706.000000	73.740837
1705.000000	73.507316
1704.000000	73.284584
1703.000000	73.102105
1702.000000	72.907220
1701.000000	72.624678
1700.000000	72.331145
1699.000000	72.193480
1698.000000	72.180659
1697.000000	72.083151
1696.000000	71.753320
1695.000000	71.278899
1694.000000	70.887689
1693.000000	70.642326
1692.000000	70.458099
1691.000000	70.277327
1690.000000	70.068876
1689.000000	69.832703
1688.000000	69.616968
1687.000000	69.471194
1686.000000	69.356588
1685.000000	69.165151
1684.000000	68.806804
1683.000000	68.328221
1682.000000	67.917334
1681.000000	67.616004
1680.000000	67.326115
1679.000000	67.023526
1678.000000	66.711906
1677.000000	66.374843
1676.000000	65.998614
1675.000000	65.639493
1674.000000	65.375964
1673.000000	65.206289
1672.000000	65.053214
1671.000000	64.843176
1670.000000	64.525410
1669.000000	64.088498
1668.000000	63.627040
1667.000000	63.262101
1666.000000	63.001313
1665.000000	62.775728
1664.000000	62.536053
1663.000000	62.272580
1662.000000	61.979077
1661.000000	61.656619
1660.000000	61.333307
1659.000000	61.036230
1658.000000	60.775200
1657.000000	60.555458
1656.000000	60.393398
1655.000000	60.285895
1654.000000	60.166614
1653.000000	59.855126
1652.000000	59.382961
1651.000000	59.053460
1650.000000	58.857715
1649.000000	58.651816
1648.000000	58.417901
1647.000000	58.112383
1646.000000	57.715177
1645.000000	57.312753
1644.000000	57.010516
1643.000000	56.785503
1642.000000	56.578355
1641.000000	56.352738
1640.000000	56.120408
1639.000000	55.924782
1638.000000	55.776985
1637.000000	55.624719
1636.000000	55.385744
1635.000000	55.042008
1634.000000	54.710929
1633.000000	54.478857
1632.000000	54.300373
1631.000000	54.130068
1630.000000	53.950040
1629.000000	53.751656
1628.000000	53.547746
1627.000000	53.372214
1626.000000	53.246462
1625.000000	53.154250
1624.000000	53.064044
1623.000000	52.951540
1622.000000	52.809508
1621.000000	52.663426
1620.000000	52.551491
1619.000000	52.493258
1618.000000	52.475185
1617.000000	52.441486
1616.000000	52.347672
1615.000000	52.230167
1614.000000	52.144652
1613.000000	52.089320
1612.000000	52.043795
1611.000000	52.003311
1610.000000	51.967193
1609.000000	51.930370
1608.000000	51.900196
1607.000000	51.900707
1606.000000	51.942670
1605.000000	52.010871
1604.000000	52.084850
1603.000000	52.149191
1602.000000	52.186100
1601.000000	52.184832
1600.000000	52.163500
1599.000000	52.160718
1598.000000	52.201738
1597.000000	52.285338
1596.000000	52.399254
1595.000000	52.526922
1594.000000	52.640486
1593.000000	52.713107
1592.000000	52.743429
1591.000000	52.752478
1590.000000	52.759242
1589.000000	52.774448
1588.000000	52.814024
1587.000000	52.894940
1586.000000	53.011429
1585.000000	53.133382
1584.000000	53.235347
1583.000000	53.309293
1582.000000	53.352486
1581.000000	53.371741
1580.000000	53.400867
1579.000000	53.488366
1578.000000	53.657382
1577.000000	53.872043
1576.000000	54.033558
1575.000000	54.078594
1574.000000	54.059874
1573.000000	54.043413
1572.000000	54.044468
1571.000000	54.063205
1570.000000	54.091187
1569.000000	54.111607
1568.000000	54.145399
1567.000000	54.240327
1566.000000	54.388135
1565.000000	54.537742
1564.000000	54.658957
1563.000000	54.753029
1562.000000	54.842782
1561.000000	54.928974
1560.000000	55.067163
1559.000000	55.278603
1558.000000	55.329740
1557.000000	55.293668
1556.000000	55.384995
1555.000000	55.513162
1554.000000	55.620125
1553.000000	55.687125
1552.000000	55.743022
1551.000000	55.809702
1550.000000	55.905385
1549.000000	56.036072
1548.000000	56.211297
1547.000000	56.442654
1546.000000	56.726429
1545.000000	57.045244
1544.000000	57.362875
1543.000000	57.657555
1542.000000	57.956842
1541.000000	58.298768
1540.000000	58.601000
1539.000000	58.746294
1538.000000	58.843838
1537.000000	59.013111
1536.000000	59.233474
1535.000000	59.505843
1534.000000	59.809210
1533.000000	60.068110
1532.000000	60.253999
1531.000000	60.450863
1530.000000	60.720875
1529.000000	61.061934
1528.000000	61.466560
1527.000000	61.922208
1526.000000	62.385790
1525.000000	62.808775
1524.000000	63.187342
1523.000000	63.553273
1522.000000	63.911828
1521.000000	64.204012
1520.000000	64.438496
1519.000000	64.731523
1518.000000	65.135405
1517.000000	65.587255
1516.000000	65.972985
1515.000000	66.257197
1514.000000	66.491858
1513.000000	66.708878
1512.000000	66.937167
1511.000000	67.219428
1510.000000	67.594235
1509.000000	68.084132
1508.000000	68.723484
1507.000000	69.389365
1506.000000	69.739257
1505.000000	69.827673
1504.000000	69.943633
1503.000000	70.098271
1502.000000	70.287880
1501.000000	70.529461
1500.000000	70.846702
1499.000000	71.265396
1498.000000	71.776102
1497.000000	72.289873
1496.000000	72.694048
1495.000000	72.974389
1494.000000	73.183783
1493.000000	73.357400
1492.000000	73.542647
1491.000000	73.823416
1490.000000	74.224959
1489.000000	74.643422
1488.000000	74.989647
1487.000000	75.274638
1486.000000	75.503388
1485.000000	75.651340
1484.000000	75.732063
1483.000000	75.795954
1482.000000	75.870819
1481.000000	75.950567
1480.000000	76.040934
1479.000000	76.157916
1478.000000	76.269522
1477.000000	76.307032
1476.000000	76.238853
1475.000000	76.065988
1474.000000	75.723494
1473.000000	75.090928
1472.000000	74.192390
1471.000000	73.239393
1470.000000	72.338567
1469.000000	71.381718
1468.000000	70.233494
1467.000000	68.777917
1466.000000	66.835044
1465.000000	64.296661
1464.000000	61.404656
1463.000000	58.581386
1462.000000	55.978506
1461.000000	53.510682
1460.000000	51.110096
1459.000000	48.697429
1458.000000	46.051475
1457.000000	43.154898
1456.000000	40.623227
1455.000000	38.950907
1454.000000	37.911056
1453.000000	37.177916
1452.000000	36.708917
1451.000000	36.561990
1450.000000	36.729074
1449.000000	37.173412
1448.000000	37.890812
1447.000000	38.816191
1446.000000	39.819978
1445.000000	40.843027
1444.000000	41.920932
1443.000000	43.076002
1442.000000	44.271245
1441.000000	45.463625
1440.000000	46.644798
1439.000000	47.838017
1438.000000	49.106134
1437.000000	50.507976
1436.000000	51.958936
1435.000000	53.285668
1434.000000	54.451302
1433.000000	55.554583
1432.000000	56.692311
1431.000000	57.880741
1430.000000	59.064430
1429.000000	60.172621
1428.000000	61.147173
1427.000000	61.963521
1426.000000	62.643832
1425.000000	63.235716
1424.000000	63.757114
1423.000000	64.195117
1422.000000	64.580299
1421.000000	64.990226
1420.000000	65.488225
1419.000000	66.052246
1418.000000	66.582263
1417.000000	67.035085
1416.000000	67.438060
1415.000000	67.813836
1414.000000	68.197006
1413.000000	68.639089
1412.000000	69.164700
1411.000000	69.752785
1410.000000	70.372683
1409.000000	71.001877
1408.000000	71.601791
1407.000000	72.127662
1406.000000	72.570465
1405.000000	72.955354
1404.000000	73.301511
1403.000000	73.625562
1402.000000	73.965613
1401.000000	74.359160
1400.000000	74.802828
1399.000000	75.236590
1398.000000	75.598221
1397.000000	75.871470
1396.000000	76.049077
1395.000000	76.123859
1394.000000	76.146655
1393.000000	76.213119
1392.000000	76.356456
1391.000000	76.527609
1390.000000	76.677960
1389.000000	76.778219
1388.000000	76.778805
1387.000000	76.634559
1386.000000	76.390613
1385.000000	76.164494
1384.000000	76.034284
1383.000000	76.013022
1382.000000	76.087790
1381.000000	76.218845
1380.000000	76.333324
1379.000000	76.366911
1378.000000	76.309839
1377.000000	76.187130
1376.000000	76.007665
1375.000000	75.768445
1374.000000	75.495676
1373.000000	75.250068
1372.000000	75.079232
1371.000000	74.975557
1370.000000	74.893555
1369.000000	74.781858
1368.000000	74.593651
1367.000000	74.311384
1366.000000	73.960456
1365.000000	73.574663
1364.000000	73.168227
1363.000000	72.747204
1362.000000	72.333672
1361.000000	71.962075
1360.000000	71.642390
1359.000000	71.354680
1358.000000	71.088624
1357.000000	70.858343
1356.000000	70.685780
1355.000000	70.594391
1354.000000	70.607555
1353.000000	70.727997
1352.000000	70.918132
1351.000000	71.112420
1350.000000	71.238786
1349.000000	71.227299
1348.000000	71.019201
1347.000000	70.589113
1346.000000	69.955382
1345.000000	69.161241
1344.000000	68.253352
1343.000000	67.266988
1342.000000	66.213575
1341.000000	65.066881
1340.000000	63.774061
1339.000000	62.303515
1338.000000	60.669768
1337.000000	58.901665
1336.000000	57.013195
1335.000000	55.022289
1334.000000	52.966741
1333.000000	50.884568
1332.000000	48.808946
1331.000000	46.786123
1330.000000	44.868552
1329.000000	43.086343
1328.000000	41.445512
1327.000000	39.944502
1326.000000	38.570671
1325.000000	37.295597
1324.000000	36.095913
1323.000000	34.974871
1322.000000	33.943410
1321.000000	32.996648
1320.000000	32.136725
1319.000000	31.399661
1318.000000	30.845077
1317.000000	30.525669
1316.000000	30.478758
1315.000000	30.733319
1314.000000	31.289171
1313.000000	32.106998
1312.000000	33.130382
1311.000000	34.303417
1310.000000	35.571532
1309.000000	36.875749
1308.000000	38.165190
1307.000000	39.411087
1306.000000	40.602946
1305.000000	41.742420
1304.000000	42.841611
1303.000000	43.916630
1302.000000	44.973170
1301.000000	45.998375
1300.000000	46.964991
1299.000000	47.843147
1298.000000	48.610012
1297.000000	49.258612
1296.000000	49.811040
1295.000000	50.322119
1294.000000	50.863651
1293.000000	51.496986
1292.000000	52.252079
1291.000000	53.122400
1290.000000	54.073330
1289.000000	55.057112
1288.000000	56.030289
1287.000000	56.971041
1286.000000	57.885877
1285.000000	58.797889
1284.000000	59.725453
1283.000000	60.668718
1282.000000	61.607020
1281.000000	62.501258
1280.000000	63.299862
1279.000000	63.959192
1278.000000	64.470022
1277.000000	64.861822
1276.000000	65.188214
1275.000000	65.512100
1274.000000	65.893002
1273.000000	66.366567
1272.000000	66.925010
1271.000000	67.525076
1270.000000	68.117537
1269.000000	68.667662
1268.000000	69.159515
1267.000000	69.601925
1266.000000	70.033198
1265.000000	70.502786
1264.000000	71.039026
1263.000000	71.635629
1262.000000	72.259878
1261.000000	72.860438
1260.000000	73.374084
1259.000000	73.753289
1258.000000	74.001398
1257.000000	74.167626
1256.000000	74.310956
1255.000000	74.478451
1254.000000	74.700271
1253.000000	74.977969
1252.000000	75.270083
1251.000000	75.508691
1250.000000	75.639222
1249.000000	75.640965
1248.000000	75.524181
1247.000000	75.325687
1246.000000	75.104668
1245.000000	74.917520
1244.000000	74.782557
1243.000000	74.675491
1242.000000	74.550559
1241.000000	74.357345
1240.000000	74.051498
1239.000000	73.615033
1238.000000	73.077208
1237.000000	72.502182
1236.000000	71.954477
1235.000000	71.479042
1234.000000	71.096677
1233.000000	70.798058
1232.000000	70.542792
1231.000000	70.280421
1230.000000	69.980961
1229.000000	69.648813
1228.000000	69.313928
1227.000000	69.022119
1226.000000	68.826296
1225.000000	68.763201
1224.000000	68.833255
1223.000000	69.001388
1222.000000	69.216137
1221.000000	69.427681
1220.000000	69.597428
1219.000000	69.714413
1218.000000	69.805753
1217.000000	69.922330
1216.000000	70.110158
1215.000000	70.390940
1214.000000	70.759718
1213.000000	71.184565
1212.000000	71.609632
1211.000000	71.977051
1210.000000	72.258079
1209.000000	72.463771
1208.000000	72.630742
1207.000000	72.806486
1206.000000	73.038877
1205.000000	73.356248
1204.000000	73.747419
1203.000000	74.166340
1202.000000	74.558590
1201.000000	74.882081
1200.000000	75.115142
1199.000000	75.266234
1198.000000	75.379934
1197.000000	75.517705
1196.000000	75.722949
1195.000000	76.005300
1194.000000	76.347097
1193.000000	76.709013
1192.000000	77.035176
1191.000000	77.275920
1190.000000	77.418837
1189.000000	77.492948
1188.000000	77.545384
1187.000000	77.623339
1186.000000	77.766092
1185.000000	77.989748
1184.000000	78.270971
1183.000000	78.555348
1182.000000	78.788154
1181.000000	78.935595
1180.000000	78.989596
1179.000000	78.973817
1178.000000	78.943694
1177.000000	78.960088
1176.000000	79.053494
1175.000000	79.215961
1174.000000	79.417109
1173.000000	79.614202
1172.000000	79.757156
1171.000000	79.808898
1170.000000	79.771805
1169.000000	79.685970
1168.000000	79.601044
1167.000000	79.557726
1166.000000	79.583912
1165.000000	79.684063
1164.000000	79.826781
1163.000000	79.957192
1162.000000	80.030015
1161.000000	80.027707
1160.000000	79.956527
1159.000000	79.844967
1158.000000	79.743554
1157.000000	79.703727
1156.000000	79.747135
1155.000000	79.859204
1154.000000	80.006025
1153.000000	80.146191
1152.000000	80.235339
1151.000000	80.245078
1150.000000	80.186963
1149.000000	80.106628
1148.000000	80.052990
1147.000000	80.059747
1146.000000	80.144382
1145.000000	80.301084
1144.000000	80.491398
1143.000000	80.659627
1142.000000	80.766249
1141.000000	80.803089
1140.000000	80.784589
1139.000000	80.741942
1138.000000	80.721697
1137.000000	80.766588
1136.000000	80.887857
1135.000000	81.061889
1134.000000	81.250626
1133.000000	81.415071
1132.000000	81.517959
1131.000000	81.538676
1130.000000	81.492973
1129.000000	81.425500
1128.000000	81.379799
1127.000000	81.382270
1126.000000	81.444015
1125.000000	81.554313
1124.000000	81.672160
1123.000000	81.742458
1122.000000	81.729376
1121.000000	81.629977
1120.000000	81.461356
1119.000000	81.253718
1118.000000	81.050012
1117.000000	80.887561
1116.000000	80.772623
1115.000000	80.677135
1114.000000	80.560003
1113.000000	80.381296
1112.000000	80.104022
1111.000000	79.710095
1110.000000	79.216565
1109.000000	78.665878
1108.000000	78.097307
1107.000000	77.530307
1106.000000	76.967996
1105.000000	76.390192
1104.000000	75.748145
1103.000000	74.984550
1102.000000	74.061198
1101.000000	72.972658
1100.000000	71.735688
1099.000000	70.381719
1098.000000	68.952322
1097.000000	67.474317
1096.000000	65.944123
1095.000000	64.330459
1094.000000	62.591984
1093.000000	60.696617
1092.000000	58.631275
1091.000000	56.416962
1090.000000	54.107890
1089.000000	51.773332
1088.000000	49.480668
1087.000000	47.284049
1086.000000	45.212615
1085.000000	43.268576
1084.000000	41.444701
1083.000000	39.735534
1082.000000	38.141382
1081.000000	36.666289
1080.000000	35.325001
1079.000000	34.141794
1078.000000	33.122339
1077.000000	32.250193
1076.000000	31.500157
1075.000000	30.843935
1074.000000	30.247754
1073.000000	29.676282
1072.000000	29.118060
1071.000000	28.587568
1070.000000	28.102136
1069.000000	27.675277
1068.000000	27.322869
1067.000000	27.059948
1066.000000	26.881400
1065.000000	26.762143
1064.000000	26.684084
1063.000000	26.642191
1062.000000	26.632967
1061.000000	26.655391
1060.000000	26.723788
1059.000000	26.864227
1058.000000	27.087573
1057.000000	27.383975
1056.000000	27.740054
1055.000000	28.141972
1054.000000	28.568029
1053.000000	28.994981
1052.000000	29.420655
1051.000000	29.866368
1050.000000	30.353924
1049.000000	30.898367
1048.000000	31.513598
1047.000000	32.205877
1046.000000	32.960064
1045.000000	33.744841
1044.000000	34.536588
1043.000000	35.325978
1042.000000	36.110868
1041.000000	36.899418
1040.000000	37.715108
1039.000000	38.586739
1038.000000	39.526871
1037.000000	40.525303
1036.000000	41.558732
1035.000000	42.595065
1034.000000	43.596849
1033.000000	44.536788
1032.000000	45.416053
1031.000000	46.263216
1030.000000	47.115954
1029.000000	48.004298
1028.000000	48.941698
1027.000000	49.918804
1026.000000	50.901894
1025.000000	51.845931
1024.000000	52.713942
1023.000000	53.491646
1022.000000	54.193331
1021.000000	54.855935
1020.000000	55.525610
1019.000000	56.238939
1018.000000	57.007626
1017.000000	57.814161
1016.000000	58.616472
1015.000000	59.363855
1014.000000	60.019007
1013.000000	60.574695
1012.000000	61.056678
1011.000000	61.513114
1010.000000	61.998085
1009.000000	62.549935
1008.000000	63.172681
1007.000000	63.834613
1006.000000	64.482860
1005.000000	65.064439
1004.000000	65.544759
1003.000000	65.922373
1002.000000	66.234810
1001.000000	66.543338
1000.000000	66.904533
999.000000	67.347931
998.000000	67.867949
997.000000	68.425977
996.000000	68.959834
995.000000	69.408700
994.000000	69.745184
993.000000	69.987388
992.000000	70.185658
991.000000	70.401995
990.000000	70.691376
989.000000	71.080056
988.000000	71.548619
987.000000	72.039269
986.000000	72.484017
985.000000	72.832282
984.000000	73.066178
983.000000	73.208292
982.000000	73.319719
981.000000	73.474917
980.000000	73.724417
979.000000	74.075220
978.000000	74.495175
977.000000	74.925399
976.000000	75.295385
975.000000	75.551394
974.000000	75.687909
973.000000	75.750223
972.000000	75.807582
971.000000	75.924760
970.000000	76.144000
969.000000	76.469086
968.000000	76.855661
967.000000	77.227682
966.000000	77.516102
965.000000	77.687907
964.000000	77.751379
963.000000	77.752305
962.000000	77.764009
961.000000	77.857252
960.000000	78.062999
959.000000	78.361486
958.000000	78.698675
957.000000	79.006855
956.000000	79.222687
955.000000	79.313385
954.000000	79.300288
953.000000	79.249778
952.000000	79.235916
951.000000	79.310536
950.000000	79.493325
949.000000	79.765591
948.000000	80.066834
947.000000	80.316655
946.000000	80.458214
945.000000	80.483330
944.000000	80.425671
943.000000	80.345445
942.000000	80.313786
941.000000	80.384765
940.000000	80.565957
939.000000	80.816214
938.000000	81.070196
937.000000	81.263489
936.000000	81.349057
935.000000	81.316787
934.000000	81.208045
933.000000	81.097867
932.000000	81.052906
931.000000	81.105785
930.000000	81.254088
929.000000	81.461559
928.000000	81.660555
927.000000	81.777820
926.000000	81.775844
925.000000	81.668758
924.000000	81.504832
923.000000	81.345001
922.000000	81.248613
921.000000	81.252411
920.000000	81.346956
919.000000	81.478327
918.000000	81.578044
917.000000	81.590893
916.000000	81.488127
915.000000	81.279037
914.000000	81.016423
913.000000	80.773569
912.000000	80.604098
911.000000	80.523222
910.000000	80.512333
909.000000	80.524956
908.000000	80.494451
907.000000	80.359941
906.000000	80.101362
905.000000	79.746911
904.000000	79.350012
903.000000	78.968196
902.000000	78.650864
901.000000	78.420548
900.000000	78.253012
899.000000	78.084265
898.000000	77.846314
897.000000	77.494610
896.000000	77.016716
895.000000	76.437131
894.000000	75.814489
893.000000	75.216585
892.000000	74.684032
891.000000	74.215841
890.000000	73.778313
889.000000	73.316576
888.000000	72.768325
887.000000	72.087772
886.000000	71.271934
885.000000	70.361412
884.000000	69.414382
883.000000	68.484421
882.000000	67.606047
881.000000	66.780216
880.000000	65.967795
879.000000	65.105138
878.000000	64.137571
877.000000	63.041876
876.000000	61.830774
875.000000	60.548049
874.000000	59.253242
873.000000	57.998101
872.000000	56.804727
871.000000	55.659846
870.000000	54.525337
869.000000	53.354525
868.000000	52.111070
867.000000	50.785156
866.000000	49.399279
865.000000	47.999034
864.000000	46.635052
863.000000	45.343915
862.000000	44.134054
861.000000	42.986686
860.000000	41.870032
859.000000	40.757665
858.000000	39.640566
857.000000	38.537808
856.000000	37.502583
855.000000	36.603785
854.000000	35.899070
853.000000	35.413766
852.000000	35.135303
851.000000	35.017183
850.000000	34.984741
849.000000	34.962113
848.000000	34.900711
847.000000	34.787901
846.000000	34.639788
845.000000	34.490007
844.000000	34.381876
843.000000	34.350348
842.000000	34.403258
841.000000	34.524398
840.000000	34.689923
839.000000	34.880301
838.000000	35.084367
837.000000	35.305201
836.000000	35.565078
835.000000	35.892914
834.000000	36.307024
833.000000	36.809376
832.000000	37.387928
831.000000	38.018365
830.000000	38.666211
829.000000	39.301345
828.000000	39.913793
827.000000	40.514456
826.000000	41.127454
825.000000	41.782363
824.000000	42.504011
823.000000	43.297039
822.000000	44.138839
821.000000	44.990051
820.000000	45.809824
819.000000	46.566264
818.000000	47.246082
817.000000	47.862285
816.000000	48.448834
815.000000	49.043648
814.000000	49.672698
813.000000	50.341651
812.000000	51.033679
811.000000	51.713224
810.000000	52.341503
809.000000	52.896095
808.000000	53.379607
807.000000	53.817929
806.000000	54.253221
805.000000	54.729743
804.000000	55.272794
803.000000	55.875540
802.000000	56.506052
801.000000	57.123443
800.000000	57.689474
799.000000	58.179445
798.000000	58.596439
797.000000	58.974739
796.000000	59.362139
795.000000	59.797030
794.000000	60.297479
793.000000	60.857839
792.000000	61.446434
791.000000	62.013348
790.000000	62.513713
789.000000	62.928635
788.000000	63.268507
787.000000	63.567686
786.000000	63.876630
785.000000	64.242535
784.000000	64.683203
783.000000	65.177422
782.000000	65.680802
781.000000	66.146265
780.000000	66.534611
779.000000	66.826567
778.000000	67.038726
777.000000	67.221655
776.000000	67.432909
775.000000	67.710456
774.000000	68.064997
773.000000	68.479615
772.000000	68.909361
771.000000	69.294884
770.000000	69.592714
769.000000	69.796606
768.000000	69.934204
767.000000	70.054454
766.000000	70.215261
765.000000	70.461483
764.000000	70.798621
763.000000	71.188178
762.000000	71.571067
761.000000	71.892829
760.000000	72.115679
759.000000	72.232243
758.000000	72.280047
757.000000	72.329428
756.000000	72.444272
755.000000	72.652260
754.000000	72.943786
753.000000	73.279592
752.000000	73.595881
751.000000	73.825191
750.000000	73.933717
749.000000	73.940142
748.000000	73.898805
747.000000	73.873540
746.000000	73.921207
745.000000	74.072489
744.000000	74.309837
743.000000	74.570098
742.000000	74.778996
741.000000	74.884996
740.000000	74.871712
739.000000	74.763590
738.000000	74.627026
737.000000	74.545365
736.000000	74.573938
735.000000	74.715917
734.000000	74.934605
733.000000	75.172706
732.000000	75.362343
731.000000	75.447450
730.000000	75.420553
729.000000	75.332976
728.000000	75.262810
727.000000	75.277340
726.000000	75.416248
725.000000	75.681319
724.000000	76.025006
723.000000	76.363191
722.000000	76.618152
721.000000	76.754279
720.000000	76.783534
719.000000	76.758793
718.000000	76.762518
717.000000	76.873520
716.000000	77.121490
715.000000	77.472094
714.000000	77.854520
713.000000	78.193749
712.000000	78.425969
711.000000	78.519688
710.000000	78.504090
709.000000	78.462837
708.000000	78.485137
707.000000	78.622662
706.000000	78.882265
705.000000	79.230417
704.000000	79.592952
703.000000	79.877248
702.000000	80.023998
701.000000	80.039331
700.000000	79.979366
699.000000	79.921509
698.000000	79.945161
697.000000	80.104275
696.000000	80.391477
695.000000	80.735500
694.000000	81.045541
693.000000	81.253523
692.000000	81.325178
691.000000	81.269070
690.000000	81.150858
689.000000	81.074733
688.000000	81.122847
687.000000	81.310175
686.000000	81.596976
685.000000	81.916788
684.000000	82.184967
683.000000	82.322484
682.000000	82.306249
681.000000	82.188702
680.000000	82.060308
679.000000	82.002828
678.000000	82.072535
677.000000	82.283803
676.000000	82.584981
675.000000	82.877139
674.000000	83.074389
673.000000	83.144405
672.000000	83.105317
671.000000	83.008456
670.000000	82.927304
669.000000	82.945770
668.000000	83.099242
667.000000	83.342977
666.000000	83.601877
665.000000	83.810940
664.000000	83.924578
663.000000	83.915052
662.000000	83.796352
661.000000	83.641327
660.000000	83.541433
659.000000	83.561486
658.000000	83.722525
657.000000	83.992623
656.000000	84.290163
655.000000	84.517674
654.000000	84.608929
653.000000	84.556797
652.000000	84.408719
651.000000	84.247621
650.000000	84.167043
649.000000	84.230297
648.000000	84.435739
647.000000	84.718514
646.000000	84.986423
645.000000	85.159719
644.000000	85.191259
643.000000	85.081625
642.000000	84.893599
641.000000	84.730928
640.000000	84.682271
639.000000	84.781418
638.000000	85.004995
637.000000	85.286299
636.000000	85.531672
635.000000	85.651363
634.000000	85.607812
633.000000	85.438838
632.000000	85.231570
631.000000	85.082530
630.000000	85.068366
629.000000	85.216156
628.000000	85.482770
627.000000	85.770035
626.000000	85.974659
625.000000	86.033871
624.000000	85.939123
623.000000	85.737564
622.000000	85.527202
621.000000	85.418000
620.000000	85.471654
619.000000	85.675253
618.000000	85.961042
617.000000	86.235575
616.000000	86.401145
615.000000	86.393256
614.000000	86.226681
613.000000	85.994115
612.000000	85.808729
611.000000	85.752280
610.000000	85.859595
609.000000	86.110219
608.000000	86.420231
607.000000	86.667743
606.000000	86.758440
605.000000	86.672224
604.000000	86.455732
603.000000	86.198228
602.000000	86.012040
601.000000	85.988598
600.000000	86.141074
599.000000	86.391457
598.000000	86.621633
597.000000	86.730937
596.000000	86.659215
595.000000	86.408126
594.000000	86.066230
593.000000	85.779579
592.000000	85.668766
591.000000	85.773192
590.000000	86.057137
589.000000	86.435210
588.000000	86.786291
587.000000	86.986363
586.000000	86.975669
585.000000	86.797136
584.000000	86.561149
583.000000	86.387605
582.000000	86.375507
581.000000	86.571043
580.000000	86.926103
579.000000	87.307027
578.000000	87.573465
577.000000	87.645388
576.000000	87.510866
575.000000	87.227485
574.000000	86.927550
573.000000	86.764519
572.000000	86.825509
571.000000	87.092535
570.000000	87.467718
569.000000	87.817858
568.000000	88.007166
567.000000	87.947786
566.000000	87.669174
565.000000	87.313747
564.000000	87.041571
563.000000	86.953963
562.000000	87.083743
561.000000	87.394677
560.000000	87.769677
559.000000	88.041446
558.000000	88.087119
557.000000	87.898212
556.000000	87.561091
555.000000	87.207583
554.000000	86.985394
553.000000	87.006212
552.000000	87.276526
551.000000	87.682823
550.000000	88.059629
549.000000	88.271805
548.000000	88.245069
547.000000	87.981970
546.000000	87.594442
545.000000	87.273733
544.000000	87.179187
543.000000	87.356522
542.000000	87.741288
541.000000	88.196059
540.000000	88.545628
539.000000	88.639816
538.000000	88.444623
537.000000	88.068333
536.000000	87.685811
535.000000	87.453909
534.000000	87.477458
533.000000	87.775408
532.000000	88.245366
531.000000	88.690303
530.000000	88.928349
529.000000	88.885788
528.000000	88.594397
527.000000	88.162295
526.000000	87.772341
525.000000	87.622072
524.000000	87.792955
523.000000	88.196317
522.000000	88.652153
521.000000	88.984079
520.000000	89.055833
519.000000	88.804753
518.000000	88.301712
517.000000	87.746053
516.000000	87.353070
515.000000	87.241114
514.000000	87.403598
513.000000	87.722056
512.000000	87.992625
511.000000	88.002568
510.000000	87.654019
509.000000	87.010591
508.000000	86.232211
507.000000	85.505911
506.000000	85.004956
505.000000	84.819863
504.000000	84.896361
503.000000	85.052757
502.000000	85.076247
501.000000	84.839036
500.000000	84.348857
499.000000	83.719495
498.000000	83.144012
497.000000	82.839273
496.000000	82.934936
495.000000	83.404937
494.000000	84.099416
493.000000	84.811465
492.000000	85.328192
491.000000	85.513129
490.000000	85.403442
489.000000	85.195281
488.000000	85.117170
487.000000	85.324774
486.000000	85.867221
485.000000	86.661332
484.000000	87.475684
483.000000	88.015156
482.000000	88.103508
481.000000	87.780626
480.000000	87.229491
479.000000	86.672880
478.000000	86.334800
477.000000	86.381113
476.000000	86.815489
475.000000	87.451307
474.000000	88.020657
473.000000	88.297068
472.000000	88.171302
471.000000	87.725492
470.000000	87.216089
469.000000	86.923203
468.000000	87.021778
467.000000	87.515222
466.000000	88.245400
465.000000	88.967298
464.000000	89.426578
463.000000	89.441559
462.000000	89.030082
461.000000	88.431038
460.000000	87.934495
459.000000	87.756159
458.000000	88.019621
457.000000	88.668015
456.000000	89.420598
455.000000	89.932057
454.000000	89.999517
453.000000	89.635610
452.000000	89.019456
451.000000	88.408681
450.000000	88.060828
449.000000	88.158313
448.000000	88.713137
447.000000	89.503030
446.000000	90.191790
445.000000	90.534203
444.000000	90.435012
443.000000	89.938556
442.000000	89.278950
441.000000	88.810226
440.000000	88.766713
439.000000	89.140680
438.000000	89.778447
437.000000	90.475596
436.000000	90.966969
435.000000	91.003189
434.000000	90.571267
433.000000	89.930207
432.000000	89.401320
431.000000	89.207563
430.000000	89.443862
429.000000	90.066473
428.000000	90.847663
427.000000	91.415061
426.000000	91.483786
425.000000	91.057053
424.000000	90.357961
423.000000	89.655827
422.000000	89.198174
421.000000	89.189400
420.000000	89.742370
419.000000	90.639691
418.000000	91.300023
417.000000	91.464270
416.000000	91.227165
415.000000	90.645907
414.000000	89.901650
413.000000	89.385012
412.000000	89.385216
411.000000	89.859427
410.000000	90.562468
409.000000	91.251090
408.000000	91.681417
407.000000	91.601987
406.000000	91.013457
405.000000	90.264871
404.000000	89.768408
403.000000	89.661421
402.000000	89.940856
401.000000	90.622284
400.000000	91.555270
