PE IR       SUBTECH     SPECTRUM    ASCII       PEDS        4.00        
   -1
23MS063_nitrito.asc
24/09/05
16:04:53.00
24/09/05
16:04:53.00
Administrator
Sample 1104 By Administrator Date Thursday, September 05 2024
400.000000
#HDR
-1
-1
#GR
cm-1
%T
1.0
0.0
4000.000000
-1.000000
3601
8
92.542561
23.195102
#DATA
4000.000000	81.061590
3999.000000	81.098991
3998.000000	81.135653
3997.000000	81.171636
3996.000000	81.207168
3995.000000	81.242680
3994.000000	81.278745
3993.000000	81.315782
3992.000000	81.353776
3991.000000	81.392418
3990.000000	81.431401
3989.000000	81.470568
3988.000000	81.509874
3987.000000	81.549334
3986.000000	81.588966
3985.000000	81.628555
3984.000000	81.667409
3983.000000	81.704411
3982.000000	81.738409
3981.000000	81.768858
3980.000000	81.796321
3979.000000	81.822486
3978.000000	81.849587
3977.000000	81.879442
3976.000000	81.912621
3975.000000	81.948324
3974.000000	81.985142
3973.000000	82.022387
3972.000000	82.060349
3971.000000	82.099372
3970.000000	82.138844
3969.000000	82.176957
3968.000000	82.211739
3967.000000	82.242379
3966.000000	82.269916
3965.000000	82.296528
3964.000000	82.324218
3963.000000	82.353818
3962.000000	82.385135
3961.000000	82.417851
3960.000000	82.451809
3959.000000	82.486903
3958.000000	82.523154
3957.000000	82.560280
3956.000000	82.597450
3955.000000	82.633211
3954.000000	82.666560
3953.000000	82.697685
3952.000000	82.727756
3951.000000	82.758150
3950.000000	82.789052
3949.000000	82.819448
3948.000000	82.848701
3947.000000	82.878175
3946.000000	82.909973
3945.000000	82.944480
3944.000000	82.980590
3943.000000	83.017129
3942.000000	83.053934
3941.000000	83.091439
3940.000000	83.128740
3939.000000	83.164145
3938.000000	83.197958
3937.000000	83.231963
3936.000000	83.267988
3935.000000	83.306621
3934.000000	83.347580
3933.000000	83.389412
3932.000000	83.428550
3931.000000	83.461302
3930.000000	83.486776
3929.000000	83.509016
3928.000000	83.535118
3927.000000	83.568833
3926.000000	83.607857
3925.000000	83.647756
3924.000000	83.687353
3923.000000	83.727447
3922.000000	83.766360
3921.000000	83.802778
3920.000000	83.839119
3919.000000	83.877242
3918.000000	83.913650
3917.000000	83.942860
3916.000000	83.965258
3915.000000	83.986062
3914.000000	84.008541
3913.000000	84.033611
3912.000000	84.062629
3911.000000	84.096343
3910.000000	84.134187
3909.000000	84.173821
3908.000000	84.214600
3907.000000	84.256503
3906.000000	84.298768
3905.000000	84.338850
3904.000000	84.375575
3903.000000	84.411789
3902.000000	84.448226
3901.000000	84.478831
3900.000000	84.499438
3899.000000	84.515313
3898.000000	84.536418
3897.000000	84.566601
3896.000000	84.602625
3895.000000	84.643088
3894.000000	84.689992
3893.000000	84.739317
3892.000000	84.779855
3891.000000	84.806147
3890.000000	84.830679
3889.000000	84.862996
3888.000000	84.899651
3887.000000	84.936981
3886.000000	84.972874
3885.000000	85.008701
3884.000000	85.050389
3883.000000	85.092867
3882.000000	85.126147
3881.000000	85.148140
3880.000000	85.164568
3879.000000	85.187851
3878.000000	85.224691
3877.000000	85.266985
3876.000000	85.305044
3875.000000	85.334496
3874.000000	85.359752
3873.000000	85.392163
3872.000000	85.435091
3871.000000	85.477214
3870.000000	85.506242
3869.000000	85.530345
3868.000000	85.565381
3867.000000	85.604431
3866.000000	85.636542
3865.000000	85.666034
3864.000000	85.697884
3863.000000	85.730138
3862.000000	85.760140
3861.000000	85.790228
3860.000000	85.822868
3859.000000	85.849026
3858.000000	85.857807
3857.000000	85.852341
3856.000000	85.858232
3855.000000	85.899355
3854.000000	85.956539
3853.000000	85.996999
3852.000000	86.039908
3851.000000	86.096822
3850.000000	86.141514
3849.000000	86.171637
3848.000000	86.204508
3847.000000	86.248182
3846.000000	86.298988
3845.000000	86.350533
3844.000000	86.398040
3843.000000	86.440512
3842.000000	86.480157
3841.000000	86.516957
3840.000000	86.549458
3839.000000	86.577350
3838.000000	86.603326
3837.000000	86.629709
3836.000000	86.658397
3835.000000	86.689110
3834.000000	86.720967
3833.000000	86.753353
3832.000000	86.786128
3831.000000	86.822749
3830.000000	86.867659
3829.000000	86.916877
3828.000000	86.958169
3827.000000	86.983134
3826.000000	86.998412
3825.000000	87.019335
3824.000000	87.054930
3823.000000	87.102476
3822.000000	87.147114
3821.000000	87.173541
3820.000000	87.199169
3819.000000	87.243635
3818.000000	87.293121
3817.000000	87.332128
3816.000000	87.358070
3815.000000	87.383521
3814.000000	87.419667
3813.000000	87.453666
3812.000000	87.473797
3811.000000	87.491574
3810.000000	87.521709
3809.000000	87.563887
3808.000000	87.604538
3807.000000	87.635649
3806.000000	87.669962
3805.000000	87.720372
3804.000000	87.775680
3803.000000	87.822586
3802.000000	87.855330
3801.000000	87.877978
3800.000000	87.914466
3799.000000	87.966131
3798.000000	88.008915
3797.000000	88.034982
3796.000000	88.054378
3795.000000	88.078733
3794.000000	88.109329
3793.000000	88.139287
3792.000000	88.165962
3791.000000	88.193420
3790.000000	88.224432
3789.000000	88.258764
3788.000000	88.296458
3787.000000	88.338113
3786.000000	88.381141
3785.000000	88.422340
3784.000000	88.463853
3783.000000	88.511700
3782.000000	88.565428
3781.000000	88.615463
3780.000000	88.651427
3779.000000	88.673593
3778.000000	88.693286
3777.000000	88.716573
3776.000000	88.739236
3775.000000	88.759815
3774.000000	88.786147
3773.000000	88.824370
3772.000000	88.871230
3771.000000	88.918646
3770.000000	88.964281
3769.000000	89.013285
3768.000000	89.068098
3767.000000	89.119549
3766.000000	89.158745
3765.000000	89.188759
3764.000000	89.220708
3763.000000	89.259909
3762.000000	89.300179
3761.000000	89.336214
3760.000000	89.369764
3759.000000	89.404349
3758.000000	89.441199
3757.000000	89.477972
3756.000000	89.513460
3755.000000	89.548817
3754.000000	89.589622
3753.000000	89.642884
3752.000000	89.704546
3751.000000	89.755313
3750.000000	89.784001
3749.000000	89.804277
3748.000000	89.827891
3747.000000	89.849517
3746.000000	89.868867
3745.000000	89.887682
3744.000000	89.910440
3743.000000	89.969341
3742.000000	90.057967
3741.000000	90.127585
3740.000000	90.172334
3739.000000	90.218005
3738.000000	90.277513
3737.000000	90.340406
3736.000000	90.393519
3735.000000	90.433596
3734.000000	90.460402
3733.000000	90.471647
3732.000000	90.474175
3731.000000	90.486412
3730.000000	90.516037
3729.000000	90.553104
3728.000000	90.588949
3727.000000	90.625516
3726.000000	90.668324
3725.000000	90.718661
3724.000000	90.769639
3723.000000	90.815155
3722.000000	90.855886
3721.000000	90.896362
3720.000000	90.937686
3719.000000	90.975571
3718.000000	91.007886
3717.000000	91.037444
3716.000000	91.068965
3715.000000	91.103652
3714.000000	91.142077
3713.000000	91.184521
3712.000000	91.224030
3711.000000	91.254010
3710.000000	91.279525
3709.000000	91.309722
3708.000000	91.348612
3707.000000	91.394730
3706.000000	91.444462
3705.000000	91.493143
3704.000000	91.535718
3703.000000	91.567596
3702.000000	91.587466
3701.000000	91.602683
3700.000000	91.625832
3699.000000	91.659485
3698.000000	91.695312
3697.000000	91.728018
3696.000000	91.761202
3695.000000	91.799685
3694.000000	91.842224
3693.000000	91.886066
3692.000000	91.932160
3691.000000	91.981112
3690.000000	92.026955
3689.000000	92.061660
3688.000000	92.091297
3687.000000	92.128365
3686.000000	92.166549
3685.000000	92.191270
3684.000000	92.204581
3683.000000	92.219927
3682.000000	92.242181
3681.000000	92.262690
3680.000000	92.276343
3679.000000	92.293398
3678.000000	92.326091
3677.000000	92.369347
3676.000000	92.395720
3675.000000	92.400480
3674.000000	92.423236
3673.000000	92.471323
3672.000000	92.511874
3671.000000	92.527897
3670.000000	92.517308
3669.000000	92.495230
3668.000000	92.486381
3667.000000	92.491843
3666.000000	92.500146
3665.000000	92.507096
3664.000000	92.513416
3663.000000	92.519471
3662.000000	92.524840
3661.000000	92.529798
3660.000000	92.536152
3659.000000	92.542561
3658.000000	92.540487
3657.000000	92.521589
3656.000000	92.493007
3655.000000	92.478530
3654.000000	92.484352
3653.000000	92.492605
3652.000000	92.494234
3651.000000	92.494350
3650.000000	92.486721
3649.000000	92.456046
3648.000000	92.403585
3647.000000	92.350715
3646.000000	92.314822
3645.000000	92.294184
3644.000000	92.275710
3643.000000	92.249215
3642.000000	92.213469
3641.000000	92.171620
3640.000000	92.127094
3639.000000	92.081133
3638.000000	92.036369
3637.000000	91.996265
3636.000000	91.959375
3635.000000	91.919903
3634.000000	91.875628
3633.000000	91.832047
3632.000000	91.792662
3631.000000	91.754027
3630.000000	91.705260
3629.000000	91.636819
3628.000000	91.572875
3627.000000	91.547016
3626.000000	91.543221
3625.000000	91.529376
3624.000000	91.500963
3623.000000	91.465954
3622.000000	91.425272
3621.000000	91.373353
3620.000000	91.308532
3619.000000	91.239986
3618.000000	91.186086
3617.000000	91.156184
3616.000000	91.139432
3615.000000	91.117019
3614.000000	91.077322
3613.000000	91.022799
3612.000000	90.965671
3611.000000	90.914067
3610.000000	90.864171
3609.000000	90.808292
3608.000000	90.745670
3607.000000	90.683997
3606.000000	90.629946
3605.000000	90.582901
3604.000000	90.539884
3603.000000	90.497746
3602.000000	90.453016
3601.000000	90.405028
3600.000000	90.357885
3599.000000	90.315148
3598.000000	90.274051
3597.000000	90.229278
3596.000000	90.177518
3595.000000	90.119315
3594.000000	90.057793
3593.000000	89.999411
3592.000000	89.948593
3591.000000	89.904729
3590.000000	89.862675
3589.000000	89.816619
3588.000000	89.763551
3587.000000	89.709652
3586.000000	89.666833
3585.000000	89.637597
3584.000000	89.612531
3583.000000	89.581947
3582.000000	89.541444
3581.000000	89.490745
3580.000000	89.432234
3579.000000	89.369525
3578.000000	89.304970
3577.000000	89.240229
3576.000000	89.176572
3575.000000	89.115010
3574.000000	89.056138
3573.000000	89.001549
3572.000000	88.954223
3571.000000	88.915451
3570.000000	88.882016
3569.000000	88.846053
3568.000000	88.799235
3567.000000	88.739401
3566.000000	88.674860
3565.000000	88.615317
3564.000000	88.561620
3563.000000	88.508221
3562.000000	88.449613
3561.000000	88.383078
3560.000000	88.309543
3559.000000	88.232548
3558.000000	88.156019
3557.000000	88.083672
3556.000000	88.018784
3555.000000	87.961219
3554.000000	87.906063
3553.000000	87.847981
3552.000000	87.787599
3551.000000	87.729791
3550.000000	87.675682
3549.000000	87.620569
3548.000000	87.560001
3547.000000	87.493044
3546.000000	87.419839
3545.000000	87.340742
3544.000000	87.257731
3543.000000	87.173881
3542.000000	87.091520
3541.000000	87.012508
3540.000000	86.939371
3539.000000	86.873704
3538.000000	86.814395
3537.000000	86.758533
3536.000000	86.704080
3535.000000	86.649867
3534.000000	86.594034
3533.000000	86.535153
3532.000000	86.473677
3531.000000	86.410735
3530.000000	86.345574
3529.000000	86.277672
3528.000000	86.210510
3527.000000	86.150404
3526.000000	86.100474
3525.000000	86.058278
3524.000000	86.019018
3523.000000	85.978999
3522.000000	85.936401
3521.000000	85.891106
3520.000000	85.844221
3519.000000	85.796692
3518.000000	85.748339
3517.000000	85.698811
3516.000000	85.648493
3515.000000	85.597920
3514.000000	85.546780
3513.000000	85.494352
3512.000000	85.439629
3511.000000	85.381313
3510.000000	85.319108
3509.000000	85.256452
3508.000000	85.199642
3507.000000	85.151927
3506.000000	85.109786
3505.000000	85.066956
3504.000000	85.020149
3503.000000	84.969521
3502.000000	84.915490
3501.000000	84.857904
3500.000000	84.797071
3499.000000	84.733367
3498.000000	84.665938
3497.000000	84.593912
3496.000000	84.518509
3495.000000	84.442275
3494.000000	84.367062
3493.000000	84.294288
3492.000000	84.225846
3491.000000	84.162648
3490.000000	84.102668
3489.000000	84.042493
3488.000000	83.980441
3487.000000	83.916653
3486.000000	83.850516
3485.000000	83.779841
3484.000000	83.702728
3483.000000	83.619118
3482.000000	83.531161
3481.000000	83.442989
3480.000000	83.358576
3479.000000	83.278350
3478.000000	83.198877
3477.000000	83.117214
3476.000000	83.034294
3475.000000	82.952736
3474.000000	82.873193
3473.000000	82.794753
3472.000000	82.717460
3471.000000	82.641815
3470.000000	82.566325
3469.000000	82.487450
3468.000000	82.401987
3467.000000	82.308691
3466.000000	82.208449
3465.000000	82.104176
3464.000000	82.000067
3463.000000	81.899397
3462.000000	81.802965
3461.000000	81.709900
3460.000000	81.618728
3459.000000	81.527117
3458.000000	81.432450
3457.000000	81.334166
3456.000000	81.234411
3455.000000	81.134923
3454.000000	81.034507
3453.000000	80.931533
3452.000000	80.827283
3451.000000	80.724384
3450.000000	80.622144
3449.000000	80.516523
3448.000000	80.404795
3447.000000	80.288569
3446.000000	80.171885
3445.000000	80.057402
3444.000000	79.944826
3443.000000	79.831988
3442.000000	79.717000
3441.000000	79.600223
3440.000000	79.483649
3439.000000	79.367866
3438.000000	79.250614
3437.000000	79.128842
3436.000000	79.001084
3435.000000	78.866951
3434.000000	78.725981
3433.000000	78.579170
3432.000000	78.429973
3431.000000	78.281897
3430.000000	78.135309
3429.000000	77.988233
3428.000000	77.839188
3427.000000	77.687594
3426.000000	77.532969
3425.000000	77.375388
3424.000000	77.215386
3423.000000	77.051837
3422.000000	76.881496
3421.000000	76.702627
3420.000000	76.517510
3419.000000	76.329414
3418.000000	76.138981
3417.000000	75.945416
3416.000000	75.749409
3415.000000	75.552400
3414.000000	75.353954
3413.000000	75.152199
3412.000000	74.945554
3411.000000	74.732656
3410.000000	74.512029
3409.000000	74.283358
3408.000000	74.048001
3407.000000	73.806616
3406.000000	73.558211
3405.000000	73.302855
3404.000000	73.043156
3403.000000	72.781575
3402.000000	72.517659
3401.000000	72.249000
3400.000000	71.972970
3399.000000	71.686776
3398.000000	71.388908
3397.000000	71.081905
3396.000000	70.770744
3395.000000	70.457250
3394.000000	70.138221
3393.000000	69.810298
3392.000000	69.473432
3391.000000	69.127826
3390.000000	68.771487
3389.000000	68.402837
3388.000000	68.023430
3387.000000	67.635693
3386.000000	67.240230
3385.000000	66.837814
3384.000000	66.430681
3383.000000	66.020009
3382.000000	65.604125
3381.000000	65.180914
3380.000000	64.750006
3379.000000	64.310858
3378.000000	63.861581
3377.000000	63.401519
3376.000000	62.932234
3375.000000	62.454822
3374.000000	61.968537
3373.000000	61.473529
3372.000000	60.972467
3371.000000	60.467084
3370.000000	59.956210
3369.000000	59.438082
3368.000000	58.912310
3367.000000	58.378568
3366.000000	57.835871
3365.000000	57.284927
3364.000000	56.728292
3363.000000	56.167141
3362.000000	55.600623
3361.000000	55.028739
3360.000000	54.452950
3359.000000	53.872876
3358.000000	53.285660
3357.000000	52.690348
3356.000000	52.089377
3355.000000	51.485157
3354.000000	50.878303
3353.000000	50.270104
3352.000000	49.663419
3351.000000	49.059552
3350.000000	48.457223
3349.000000	47.855494
3348.000000	47.254676
3347.000000	46.653955
3346.000000	46.051565
3345.000000	45.448002
3344.000000	44.845647
3343.000000	44.244757
3342.000000	43.643456
3341.000000	43.042304
3340.000000	42.445165
3339.000000	41.854929
3338.000000	41.271793
3337.000000	40.695909
3336.000000	40.128160
3335.000000	39.567873
3334.000000	39.013431
3333.000000	38.465706
3332.000000	37.927003
3331.000000	37.396917
3330.000000	36.872726
3329.000000	36.353721
3328.000000	35.842096
3327.000000	35.339447
3326.000000	34.846552
3325.000000	34.365807
3324.000000	33.899292
3323.000000	33.445328
3322.000000	33.000509
3321.000000	32.564870
3320.000000	32.141302
3319.000000	31.730140
3318.000000	31.329785
3317.000000	30.940895
3316.000000	30.565530
3315.000000	30.202802
3314.000000	29.849376
3313.000000	29.504383
3312.000000	29.169072
3311.000000	28.842562
3310.000000	28.523219
3309.000000	28.212932
3308.000000	27.916268
3307.000000	27.635577
3306.000000	27.370946
3305.000000	27.123913
3304.000000	26.895074
3303.000000	26.680129
3302.000000	26.472976
3301.000000	26.272037
3300.000000	26.079543
3299.000000	25.895505
3298.000000	25.718143
3297.000000	25.548892
3296.000000	25.390903
3295.000000	25.243806
3294.000000	25.104640
3293.000000	24.973763
3292.000000	24.854611
3291.000000	24.747388
3290.000000	24.648861
3289.000000	24.557213
3288.000000	24.472889
3287.000000	24.395197
3286.000000	24.322473
3285.000000	24.255838
3284.000000	24.197537
3283.000000	24.146469
3282.000000	24.099521
3281.000000	24.056241
3280.000000	24.018210
3279.000000	23.984487
3278.000000	23.952522
3277.000000	23.922748
3276.000000	23.897442
3275.000000	23.876097
3274.000000	23.856392
3273.000000	23.839328
3272.000000	23.829031
3271.000000	23.827594
3270.000000	23.833998
3269.000000	23.846852
3268.000000	23.864109
3267.000000	23.881518
3266.000000	23.895558
3265.000000	23.907543
3264.000000	23.921136
3263.000000	23.936819
3262.000000	23.952699
3261.000000	23.968801
3260.000000	23.986421
3259.000000	24.004755
3258.000000	24.022532
3257.000000	24.041831
3256.000000	24.065832
3255.000000	24.093968
3254.000000	24.123163
3253.000000	24.152563
3252.000000	24.182976
3251.000000	24.213143
3250.000000	24.241102
3249.000000	24.268229
3248.000000	24.297687
3247.000000	24.329785
3246.000000	24.362490
3245.000000	24.395269
3244.000000	24.428672
3243.000000	24.461420
3242.000000	24.491980
3241.000000	24.521815
3240.000000	24.553409
3239.000000	24.586128
3238.000000	24.617511
3237.000000	24.647210
3236.000000	24.676469
3235.000000	24.705426
3234.000000	24.734261
3233.000000	24.765049
3232.000000	24.798701
3231.000000	24.831877
3230.000000	24.860665
3229.000000	24.885519
3228.000000	24.909221
3227.000000	24.932241
3226.000000	24.953871
3225.000000	24.975722
3224.000000	24.999670
3223.000000	25.024110
3222.000000	25.046164
3221.000000	25.066015
3220.000000	25.085300
3219.000000	25.103070
3218.000000	25.117277
3217.000000	25.128363
3216.000000	25.137641
3215.000000	25.144104
3214.000000	25.146482
3213.000000	25.146613
3212.000000	25.146754
3211.000000	25.145493
3210.000000	25.140230
3209.000000	25.131663
3208.000000	25.122168
3207.000000	25.111583
3206.000000	25.098347
3205.000000	25.083041
3204.000000	25.066756
3203.000000	25.047977
3202.000000	25.024819
3201.000000	24.998442
3200.000000	24.970772
3199.000000	24.940657
3198.000000	24.906146
3197.000000	24.868443
3196.000000	24.829892
3195.000000	24.790234
3194.000000	24.748439
3193.000000	24.706068
3192.000000	24.664986
3191.000000	24.623802
3190.000000	24.580479
3189.000000	24.536125
3188.000000	24.492423
3187.000000	24.447570
3186.000000	24.398755
3185.000000	24.346670
3184.000000	24.293678
3183.000000	24.239797
3182.000000	24.184386
3181.000000	24.129422
3180.000000	24.077078
3179.000000	24.026024
3178.000000	23.974108
3177.000000	23.922733
3176.000000	23.874672
3175.000000	23.829585
3174.000000	23.785505
3173.000000	23.742618
3172.000000	23.701698
3171.000000	23.661072
3170.000000	23.618963
3169.000000	23.576911
3168.000000	23.537233
3167.000000	23.499159
3166.000000	23.461216
3165.000000	23.425030
3164.000000	23.393017
3163.000000	23.364595
3162.000000	23.338219
3161.000000	23.315006
3160.000000	23.296467
3159.000000	23.280878
3158.000000	23.265587
3157.000000	23.250566
3156.000000	23.236535
3155.000000	23.222303
3154.000000	23.207838
3153.000000	23.197386
3152.000000	23.195102
3151.000000	23.199800
3150.000000	23.207543
3149.000000	23.217153
3148.000000	23.229614
3147.000000	23.244473
3146.000000	23.261007
3145.000000	23.280676
3144.000000	23.304432
3143.000000	23.329873
3142.000000	23.354606
3141.000000	23.380605
3140.000000	23.411620
3139.000000	23.448206
3138.000000	23.488733
3137.000000	23.532697
3136.000000	23.579634
3135.000000	23.627233
3134.000000	23.674032
3133.000000	23.722221
3132.000000	23.774471
3131.000000	23.830441
3130.000000	23.889313
3129.000000	23.952652
3128.000000	24.021507
3127.000000	24.093266
3126.000000	24.164837
3125.000000	24.236402
3124.000000	24.308800
3123.000000	24.380475
3122.000000	24.450650
3121.000000	24.522607
3120.000000	24.599929
3119.000000	24.681823
3118.000000	24.766098
3117.000000	24.854047
3116.000000	24.948333
3115.000000	25.048304
3114.000000	25.150936
3113.000000	25.254526
3112.000000	25.358155
3111.000000	25.460109
3110.000000	25.560453
3109.000000	25.662797
3108.000000	25.769983
3107.000000	25.879938
3106.000000	25.988851
3105.000000	26.096207
3104.000000	26.203546
3103.000000	26.310986
3102.000000	26.418649
3101.000000	26.529276
3100.000000	26.645743
3099.000000	26.767350
3098.000000	26.891681
3097.000000	27.018098
3096.000000	27.146342
3095.000000	27.274035
3094.000000	27.398900
3093.000000	27.521846
3092.000000	27.645075
3091.000000	27.768959
3090.000000	27.893237
3089.000000	28.018941
3088.000000	28.146470
3087.000000	28.274231
3086.000000	28.401922
3085.000000	28.532795
3084.000000	28.669540
3083.000000	28.810165
3082.000000	28.950891
3081.000000	29.090801
3080.000000	29.230963
3079.000000	29.371392
3078.000000	29.511959
3077.000000	29.654007
3076.000000	29.797891
3075.000000	29.941026
3074.000000	30.081255
3073.000000	30.220114
3072.000000	30.360127
3071.000000	30.501132
3070.000000	30.642240
3069.000000	30.785121
3068.000000	30.932021
3067.000000	31.082280
3066.000000	31.233621
3065.000000	31.385249
3064.000000	31.536967
3063.000000	31.687165
3062.000000	31.834553
3061.000000	31.980265
3060.000000	32.125787
3059.000000	32.270512
3058.000000	32.413657
3057.000000	32.556582
3056.000000	32.700739
3055.000000	32.845214
3054.000000	32.988867
3053.000000	33.133065
3052.000000	33.279870
3051.000000	33.429125
3050.000000	33.579424
3049.000000	33.730055
3048.000000	33.879919
3047.000000	34.026682
3046.000000	34.169389
3045.000000	34.310059
3044.000000	34.450788
3043.000000	34.591406
3042.000000	34.731809
3041.000000	34.873850
3040.000000	35.018315
3039.000000	35.162471
3038.000000	35.303508
3037.000000	35.442559
3036.000000	35.582967
3035.000000	35.726345
3034.000000	35.872386
3033.000000	36.020292
3032.000000	36.167945
3031.000000	36.311813
3030.000000	36.450217
3029.000000	36.584859
3028.000000	36.717467
3027.000000	36.847397
3026.000000	36.974702
3025.000000	37.102753
3024.000000	37.234837
3023.000000	37.370314
3022.000000	37.506772
3021.000000	37.643916
3020.000000	37.782502
3019.000000	37.921219
3018.000000	38.057612
3017.000000	38.190822
3016.000000	38.321185
3015.000000	38.448699
3014.000000	38.574223
3013.000000	38.700597
3012.000000	38.830141
3011.000000	38.962282
3010.000000	39.095390
3009.000000	39.229183
3008.000000	39.363515
3007.000000	39.496898
3006.000000	39.628410
3005.000000	39.759316
3004.000000	39.890678
3003.000000	40.020968
3002.000000	40.148033
3001.000000	40.271795
3000.000000	40.393359
2999.000000	40.513372
2998.000000	40.633026
2997.000000	40.754433
2996.000000	40.877892
2995.000000	41.000923
2994.000000	41.122245
2993.000000	41.244563
2992.000000	41.371019
2991.000000	41.500819
2990.000000	41.630785
2989.000000	41.759322
2988.000000	41.886297
2987.000000	42.010867
2986.000000	42.132160
2985.000000	42.250924
2984.000000	42.368194
2983.000000	42.483631
2982.000000	42.597252
2981.000000	42.711184
2980.000000	42.827454
2979.000000	42.945281
2978.000000	43.062680
2977.000000	43.179435
2976.000000	43.296589
2975.000000	43.414515
2974.000000	43.533442
2973.000000	43.654271
2972.000000	43.776790
2971.000000	43.898521
2970.000000	44.017361
2969.000000	44.133937
2968.000000	44.249416
2967.000000	44.362849
2966.000000	44.472913
2965.000000	44.580716
2964.000000	44.688573
2963.000000	44.797442
2962.000000	44.907716
2961.000000	45.020698
2960.000000	45.136879
2959.000000	45.254202
2958.000000	45.370176
2957.000000	45.484209
2956.000000	45.595934
2955.000000	45.703440
2954.000000	45.805734
2953.000000	45.904992
2952.000000	46.003613
2951.000000	46.100626
2950.000000	46.193906
2949.000000	46.284546
2948.000000	46.376274
2947.000000	46.471696
2946.000000	46.571585
2945.000000	46.676702
2944.000000	46.787236
2943.000000	46.900829
2942.000000	47.013508
2941.000000	47.122558
2940.000000	47.227032
2939.000000	47.326517
2938.000000	47.421341
2937.000000	47.513134
2936.000000	47.603351
2935.000000	47.691875
2934.000000	47.778705
2933.000000	47.865911
2932.000000	47.956195
2931.000000	48.050392
2930.000000	48.147871
2929.000000	48.248075
2928.000000	48.349877
2927.000000	48.450858
2926.000000	48.549143
2925.000000	48.644875
2924.000000	48.738412
2923.000000	48.828710
2922.000000	48.915317
2921.000000	49.000214
2920.000000	49.085561
2919.000000	49.171184
2918.000000	49.256239
2917.000000	49.341817
2916.000000	49.429548
2915.000000	49.518809
2914.000000	49.607424
2913.000000	49.694196
2912.000000	49.779035
2911.000000	49.861672
2910.000000	49.942023
2909.000000	50.020933
2908.000000	50.098930
2907.000000	50.175148
2906.000000	50.248827
2905.000000	50.320706
2904.000000	50.391628
2903.000000	50.461188
2902.000000	50.529592
2901.000000	50.599336
2900.000000	50.673296
2899.000000	50.752051
2898.000000	50.834173
2897.000000	50.918037
2896.000000	51.001486
2895.000000	51.081372
2894.000000	51.155612
2893.000000	51.225038
2892.000000	51.291525
2891.000000	51.355304
2890.000000	51.415719
2889.000000	51.473421
2888.000000	51.529852
2887.000000	51.585417
2886.000000	51.639940
2885.000000	51.694116
2884.000000	51.748804
2883.000000	51.803670
2882.000000	51.858047
2881.000000	51.912171
2880.000000	51.965914
2879.000000	52.017360
2878.000000	52.064632
2877.000000	52.108321
2876.000000	52.150237
2875.000000	52.190400
2874.000000	52.227221
2873.000000	52.260217
2872.000000	52.290996
2871.000000	52.322290
2870.000000	52.357583
2869.000000	52.401040
2868.000000	52.455651
2867.000000	52.521443
2866.000000	52.596687
2865.000000	52.680031
2864.000000	52.770231
2863.000000	52.864949
2862.000000	52.961609
2861.000000	53.058811
2860.000000	53.155471
2859.000000	53.249480
2858.000000	53.339169
2857.000000	53.425543
2856.000000	53.511403
2855.000000	53.598826
2854.000000	53.688851
2853.000000	53.782638
2852.000000	53.880894
2851.000000	53.982481
2850.000000	54.085123
2849.000000	54.187068
2848.000000	54.286870
2847.000000	54.382428
2846.000000	54.471978
2845.000000	54.555716
2844.000000	54.635041
2843.000000	54.710664
2842.000000	54.782906
2841.000000	54.853293
2840.000000	54.924181
2839.000000	54.996919
2838.000000	55.071548
2837.000000	55.147993
2836.000000	55.226311
2835.000000	55.305988
2834.000000	55.386130
2833.000000	55.466100
2832.000000	55.545080
2831.000000	55.621486
2830.000000	55.693959
2829.000000	55.762542
2828.000000	55.827967
2827.000000	55.890463
2826.000000	55.950424
2825.000000	56.009509
2824.000000	56.069666
2823.000000	56.131396
2822.000000	56.194188
2821.000000	56.258219
2820.000000	56.324244
2819.000000	56.392144
2818.000000	56.460883
2817.000000	56.529708
2816.000000	56.598253
2815.000000	56.665716
2814.000000	56.731135
2813.000000	56.794335
2812.000000	56.855735
2811.000000	56.915505
2810.000000	56.973824
2809.000000	57.031548
2808.000000	57.089619
2807.000000	57.148201
2806.000000	57.207334
2805.000000	57.267869
2804.000000	57.330574
2803.000000	57.394769
2802.000000	57.459009
2801.000000	57.522758
2800.000000	57.586336
2799.000000	57.649589
2798.000000	57.711683
2797.000000	57.771931
2796.000000	57.829872
2795.000000	57.884976
2794.000000	57.937354
2793.000000	57.988404
2792.000000	58.039804
2791.000000	58.092300
2790.000000	58.146291
2789.000000	58.202718
2788.000000	58.262057
2787.000000	58.323062
2786.000000	58.383785
2785.000000	58.443358
2784.000000	58.501566
2783.000000	58.557405
2782.000000	58.609657
2781.000000	58.658525
2780.000000	58.705224
2779.000000	58.750298
2778.000000	58.793918
2777.000000	58.837459
2776.000000	58.883123
2775.000000	58.931917
2774.000000	58.983272
2773.000000	59.036505
2772.000000	59.091153
2771.000000	59.145892
2770.000000	59.198674
2769.000000	59.248334
2768.000000	59.295101
2767.000000	59.339525
2766.000000	59.382032
2765.000000	59.423459
2764.000000	59.464885
2763.000000	59.506828
2762.000000	59.549544
2761.000000	59.593887
2760.000000	59.640751
2759.000000	59.689804
2758.000000	59.739867
2757.000000	59.790277
2756.000000	59.840640
2755.000000	59.889470
2754.000000	59.934630
2753.000000	59.975403
2752.000000	60.013017
2751.000000	60.049146
2750.000000	60.085022
2749.000000	60.121838
2748.000000	60.160570
2747.000000	60.201106
2746.000000	60.242672
2745.000000	60.285263
2744.000000	60.329519
2743.000000	60.375112
2742.000000	60.420462
2741.000000	60.464262
2740.000000	60.506253
2739.000000	60.546426
2738.000000	60.584606
2737.000000	60.620953
2736.000000	60.655860
2735.000000	60.689270
2734.000000	60.721059
2733.000000	60.752104
2732.000000	60.783839
2731.000000	60.816672
2730.000000	60.849955
2729.000000	60.883503
2728.000000	60.917897
2727.000000	60.953208
2726.000000	60.988694
2725.000000	61.024044
2724.000000	61.059731
2723.000000	61.095744
2722.000000	61.130998
2721.000000	61.164326
2720.000000	61.195245
2719.000000	61.223584
2718.000000	61.249437
2717.000000	61.273759
2716.000000	61.298066
2715.000000	61.323319
2714.000000	61.349856
2713.000000	61.378311
2712.000000	61.409541
2711.000000	61.443478
2710.000000	61.479001
2709.000000	61.514963
2708.000000	61.550364
2707.000000	61.583531
2706.000000	61.612335
2705.000000	61.635620
2704.000000	61.653558
2703.000000	61.666706
2702.000000	61.675938
2701.000000	61.683235
2700.000000	61.691318
2699.000000	61.702050
2698.000000	61.715963
2697.000000	61.733258
2696.000000	61.753879
2695.000000	61.776463
2694.000000	61.798500
2693.000000	61.818023
2692.000000	61.834283
2691.000000	61.846667
2690.000000	61.854227
2689.000000	61.856621
2688.000000	61.854613
2687.000000	61.849544
2686.000000	61.843218
2685.000000	61.838276
2684.000000	61.837344
2683.000000	61.841252
2682.000000	61.848915
2681.000000	61.858926
2680.000000	61.870158
2679.000000	61.880940
2678.000000	61.889242
2677.000000	61.894203
2676.000000	61.896494
2675.000000	61.896984
2674.000000	61.896143
2673.000000	61.894968
2672.000000	61.895244
2671.000000	61.898474
2670.000000	61.905462
2669.000000	61.917028
2668.000000	61.934069
2667.000000	61.956520
2666.000000	61.983569
2665.000000	62.015103
2664.000000	62.051750
2663.000000	62.093558
2662.000000	62.139548
2661.000000	62.188927
2660.000000	62.241567
2659.000000	62.296765
2658.000000	62.352944
2657.000000	62.408871
2656.000000	62.464179
2655.000000	62.518390
2654.000000	62.570487
2653.000000	62.620028
2652.000000	62.667744
2651.000000	62.714697
2650.000000	62.761812
2649.000000	62.810470
2648.000000	62.862300
2647.000000	62.917695
2646.000000	62.975312
2645.000000	63.033305
2644.000000	63.090114
2643.000000	63.143778
2642.000000	63.191905
2641.000000	63.233110
2640.000000	63.267600
2639.000000	63.296209
2638.000000	63.319857
2637.000000	63.340544
2636.000000	63.361651
2635.000000	63.386114
2634.000000	63.415025
2633.000000	63.448214
2632.000000	63.485056
2631.000000	63.524058
2630.000000	63.562662
2629.000000	63.598332
2628.000000	63.629289
2627.000000	63.654085
2626.000000	63.671759
2625.000000	63.683108
2624.000000	63.690971
2623.000000	63.698448
2622.000000	63.707431
2621.000000	63.719134
2620.000000	63.734601
2619.000000	63.753864
2618.000000	63.775493
2617.000000	63.797703
2616.000000	63.819247
2615.000000	63.838830
2614.000000	63.854811
2613.000000	63.866362
2612.000000	63.874232
2611.000000	63.879802
2610.000000	63.883938
2609.000000	63.887171
2608.000000	63.889960
2607.000000	63.891959
2606.000000	63.891992
2605.000000	63.889116
2604.000000	63.883082
2603.000000	63.873508
2602.000000	63.859572
2601.000000	63.841347
2600.000000	63.820373
2599.000000	63.798400
2598.000000	63.776557
2597.000000	63.756100
2596.000000	63.738823
2595.000000	63.725945
2594.000000	63.717403
2593.000000	63.712803
2592.000000	63.712334
2591.000000	63.716061
2590.000000	63.723580
2589.000000	63.735203
2588.000000	63.752431
2587.000000	63.777063
2586.000000	63.810144
2585.000000	63.852451
2584.000000	63.905086
2583.000000	63.968238
2582.000000	64.040393
2581.000000	64.118822
2580.000000	64.200367
2579.000000	64.281677
2578.000000	64.359514
2577.000000	64.432205
2576.000000	64.500231
2575.000000	64.564943
2574.000000	64.627437
2573.000000	64.689117
2572.000000	64.752442
2571.000000	64.820040
2570.000000	64.893319
2569.000000	64.972254
2568.000000	65.055676
2567.000000	65.141148
2566.000000	65.225258
2565.000000	65.304963
2564.000000	65.378612
2563.000000	65.445698
2562.000000	65.506510
2561.000000	65.562610
2560.000000	65.616765
2559.000000	65.671462
2558.000000	65.728064
2557.000000	65.787470
2556.000000	65.850451
2555.000000	65.916574
2554.000000	65.983605
2553.000000	66.048931
2552.000000	66.110961
2551.000000	66.168705
2550.000000	66.221211
2549.000000	66.268365
2548.000000	66.311649
2547.000000	66.353117
2546.000000	66.394089
2545.000000	66.435501
2544.000000	66.478233
2543.000000	66.522200
2542.000000	66.565716
2541.000000	66.606529
2540.000000	66.643110
2539.000000	66.674203
2538.000000	66.698454
2537.000000	66.715430
2536.000000	66.726022
2535.000000	66.731330
2534.000000	66.731523
2533.000000	66.726725
2532.000000	66.717875
2531.000000	66.705321
2530.000000	66.688011
2529.000000	66.664654
2528.000000	66.635163
2527.000000	66.600224
2526.000000	66.560411
2525.000000	66.517341
2524.000000	66.474674
2523.000000	66.436818
2522.000000	66.407106
2521.000000	66.388026
2520.000000	66.381726
2519.000000	66.389170
2518.000000	66.409231
2517.000000	66.439242
2516.000000	66.476646
2515.000000	66.518979
2514.000000	66.563760
2513.000000	66.609638
2512.000000	66.656803
2511.000000	66.706145
2510.000000	66.758218
2509.000000	66.813860
2508.000000	66.874768
2507.000000	66.941936
2506.000000	67.014305
2505.000000	67.089424
2504.000000	67.164697
2503.000000	67.237201
2502.000000	67.303381
2501.000000	67.360456
2500.000000	67.408028
2499.000000	67.447626
2498.000000	67.481313
2497.000000	67.511811
2496.000000	67.542716
2495.000000	67.577222
2494.000000	67.616837
2493.000000	67.661719
2492.000000	67.711424
2491.000000	67.764200
2490.000000	67.816512
2489.000000	67.864540
2488.000000	67.905749
2487.000000	67.938728
2486.000000	67.962745
2485.000000	67.978838
2484.000000	67.990433
2483.000000	68.001315
2482.000000	68.013733
2481.000000	68.029108
2480.000000	68.049228
2479.000000	68.075187
2478.000000	68.105836
2477.000000	68.138702
2476.000000	68.171836
2475.000000	68.203756
2474.000000	68.232588
2473.000000	68.256888
2472.000000	68.276883
2471.000000	68.293684
2470.000000	68.307870
2469.000000	68.320021
2468.000000	68.331625
2467.000000	68.344101
2466.000000	68.357394
2465.000000	68.370721
2464.000000	68.384176
2463.000000	68.398443
2462.000000	68.413714
2461.000000	68.430119
2460.000000	68.448662
2459.000000	68.470432
2458.000000	68.495442
2457.000000	68.523000
2456.000000	68.552342
2455.000000	68.581773
2454.000000	68.608033
2453.000000	68.627926
2452.000000	68.640258
2451.000000	68.645562
2450.000000	68.644950
2449.000000	68.640653
2448.000000	68.636686
2447.000000	68.637461
2446.000000	68.646030
2445.000000	68.664222
2444.000000	68.693034
2443.000000	68.731492
2442.000000	68.775817
2441.000000	68.820929
2440.000000	68.862351
2439.000000	68.896071
2438.000000	68.918250
2437.000000	68.926991
2436.000000	68.924099
2435.000000	68.913842
2434.000000	68.900968
2433.000000	68.890597
2432.000000	68.888249
2431.000000	68.897902
2430.000000	68.920315
2429.000000	68.954006
2428.000000	68.996759
2427.000000	69.045012
2426.000000	69.093040
2425.000000	69.134998
2424.000000	69.167418
2423.000000	69.189049
2422.000000	69.199675
2421.000000	69.200897
2420.000000	69.196930
2419.000000	69.192711
2418.000000	69.191556
2417.000000	69.195600
2416.000000	69.207157
2415.000000	69.227630
2414.000000	69.255801
2413.000000	69.288771
2412.000000	69.324167
2411.000000	69.360071
2410.000000	69.394050
2409.000000	69.424071
2408.000000	69.449871
2407.000000	69.472015
2406.000000	69.490294
2405.000000	69.504339
2404.000000	69.514893
2403.000000	69.523037
2402.000000	69.528948
2401.000000	69.533204
2400.000000	69.538453
2399.000000	69.548225
2398.000000	69.564550
2397.000000	69.588024
2396.000000	69.619050
2395.000000	69.657372
2394.000000	69.701003
2393.000000	69.746876
2392.000000	69.792005
2391.000000	69.832891
2390.000000	69.865205
2389.000000	69.885825
2388.000000	69.894997
2387.000000	69.895262
2386.000000	69.889633
2385.000000	69.882114
2384.000000	69.878256
2383.000000	69.883415
2382.000000	69.900581
2381.000000	69.931132
2380.000000	69.976110
2379.000000	70.034754
2378.000000	70.102749
2377.000000	70.173805
2376.000000	70.242705
2375.000000	70.304997
2374.000000	70.356073
2373.000000	70.392989
2372.000000	70.417151
2371.000000	70.433449
2370.000000	70.446613
2369.000000	70.460905
2368.000000	70.481814
2367.000000	70.514435
2366.000000	70.559345
2365.000000	70.613018
2364.000000	70.674322
2363.000000	70.741634
2362.000000	70.807256
2361.000000	70.866628
2360.000000	70.919482
2359.000000	70.967686
2358.000000	71.013503
2357.000000	71.054697
2356.000000	71.094804
2355.000000	71.136861
2354.000000	71.179341
2353.000000	71.220724
2352.000000	71.262462
2351.000000	71.311928
2350.000000	71.362277
2349.000000	71.402282
2348.000000	71.431898
2347.000000	71.461961
2346.000000	71.510747
2345.000000	71.579746
2344.000000	71.659559
2343.000000	71.731950
2342.000000	71.785282
2341.000000	71.825842
2340.000000	71.858909
2339.000000	71.891320
2338.000000	71.923641
2337.000000	71.958181
2336.000000	71.997815
2335.000000	72.045411
2334.000000	72.098619
2333.000000	72.155084
2332.000000	72.213538
2331.000000	72.278450
2330.000000	72.345808
2329.000000	72.408968
2328.000000	72.465866
2327.000000	72.512764
2326.000000	72.553126
2325.000000	72.583558
2324.000000	72.611557
2323.000000	72.642274
2322.000000	72.679039
2321.000000	72.723110
2320.000000	72.773227
2319.000000	72.831495
2318.000000	72.893236
2317.000000	72.955069
2316.000000	73.012916
2315.000000	73.066446
2314.000000	73.113868
2313.000000	73.153562
2312.000000	73.186736
2311.000000	73.214998
2310.000000	73.240373
2309.000000	73.263220
2308.000000	73.288624
2307.000000	73.320614
2306.000000	73.361747
2305.000000	73.409888
2304.000000	73.464486
2303.000000	73.524732
2302.000000	73.588570
2301.000000	73.652231
2300.000000	73.713506
2299.000000	73.770479
2298.000000	73.820628
2297.000000	73.861214
2296.000000	73.893928
2295.000000	73.921775
2294.000000	73.947787
2293.000000	73.973020
2292.000000	74.001483
2291.000000	74.036788
2290.000000	74.080212
2289.000000	74.129725
2288.000000	74.184671
2287.000000	74.244927
2286.000000	74.308174
2285.000000	74.369591
2284.000000	74.425208
2283.000000	74.472725
2282.000000	74.509841
2281.000000	74.535577
2280.000000	74.552397
2279.000000	74.565301
2278.000000	74.577890
2277.000000	74.592865
2276.000000	74.613869
2275.000000	74.644864
2274.000000	74.686821
2273.000000	74.738072
2272.000000	74.796879
2271.000000	74.860608
2270.000000	74.923756
2269.000000	74.979641
2268.000000	75.024474
2267.000000	75.057118
2266.000000	75.076421
2265.000000	75.082319
2264.000000	75.079099
2263.000000	75.073851
2262.000000	75.072460
2261.000000	75.078779
2260.000000	75.096932
2259.000000	75.129766
2258.000000	75.175499
2257.000000	75.229054
2256.000000	75.285709
2255.000000	75.341401
2254.000000	75.389885
2253.000000	75.424695
2252.000000	75.443314
2251.000000	75.447364
2250.000000	75.439193
2249.000000	75.421734
2248.000000	75.400660
2247.000000	75.382505
2246.000000	75.371026
2245.000000	75.367484
2244.000000	75.373809
2243.000000	75.391301
2242.000000	75.417316
2241.000000	75.446483
2240.000000	75.474986
2239.000000	75.500419
2238.000000	75.518786
2237.000000	75.525545
2236.000000	75.519577
2235.000000	75.502751
2234.000000	75.476242
2233.000000	75.440796
2232.000000	75.399784
2231.000000	75.358500
2230.000000	75.320548
2229.000000	75.288159
2228.000000	75.264757
2227.000000	75.253608
2226.000000	75.254213
2225.000000	75.263184
2224.000000	75.277915
2223.000000	75.296062
2222.000000	75.312298
2221.000000	75.319410
2220.000000	75.312811
2219.000000	75.291234
2218.000000	75.254410
2217.000000	75.203785
2216.000000	75.145086
2215.000000	75.086506
2214.000000	75.034698
2213.000000	74.994814
2212.000000	74.972704
2211.000000	74.972853
2210.000000	74.994181
2209.000000	75.030774
2208.000000	75.075719
2207.000000	75.121574
2206.000000	75.158774
2205.000000	75.178467
2204.000000	75.177218
2203.000000	75.156530
2202.000000	75.119309
2201.000000	75.070526
2200.000000	75.019709
2199.000000	74.978070
2198.000000	74.952968
2197.000000	74.947708
2196.000000	74.964875
2195.000000	75.005041
2194.000000	75.062785
2193.000000	75.127919
2192.000000	75.190929
2191.000000	75.244409
2190.000000	75.281226
2189.000000	75.296314
2188.000000	75.290696
2187.000000	75.270248
2186.000000	75.240791
2185.000000	75.207649
2184.000000	75.178240
2183.000000	75.160240
2182.000000	75.156837
2181.000000	75.167182
2180.000000	75.190305
2179.000000	75.224791
2178.000000	75.265508
2177.000000	75.305109
2176.000000	75.338863
2175.000000	75.364788
2174.000000	75.380166
2173.000000	75.382406
2172.000000	75.373066
2171.000000	75.356716
2170.000000	75.336077
2169.000000	75.311951
2168.000000	75.287230
2167.000000	75.266587
2166.000000	75.252585
2165.000000	75.245819
2164.000000	75.248276
2163.000000	75.262502
2162.000000	75.287616
2161.000000	75.319806
2160.000000	75.356156
2159.000000	75.394229
2158.000000	75.428600
2157.000000	75.452414
2156.000000	75.462328
2155.000000	75.458484
2154.000000	75.440790
2153.000000	75.409884
2152.000000	75.371396
2151.000000	75.334832
2150.000000	75.307916
2149.000000	75.295111
2148.000000	75.300322
2147.000000	75.325846
2146.000000	75.368333
2145.000000	75.419606
2144.000000	75.471588
2143.000000	75.517239
2142.000000	75.548426
2141.000000	75.558036
2140.000000	75.544878
2139.000000	75.513326
2138.000000	75.468926
2137.000000	75.418230
2136.000000	75.371478
2135.000000	75.339968
2134.000000	75.329766
2133.000000	75.341098
2132.000000	75.372247
2131.000000	75.419577
2130.000000	75.474445
2129.000000	75.525157
2128.000000	75.563005
2127.000000	75.583793
2126.000000	75.585054
2125.000000	75.566742
2124.000000	75.534558
2123.000000	75.497965
2122.000000	75.464467
2121.000000	75.438915
2120.000000	75.426777
2119.000000	75.432708
2118.000000	75.455895
2117.000000	75.490740
2116.000000	75.531847
2115.000000	75.574915
2114.000000	75.614104
2113.000000	75.643701
2112.000000	75.662861
2111.000000	75.674879
2110.000000	75.682212
2109.000000	75.686302
2108.000000	75.691092
2107.000000	75.701806
2106.000000	75.720253
2105.000000	75.745355
2104.000000	75.777547
2103.000000	75.818265
2102.000000	75.865831
2101.000000	75.916636
2100.000000	75.969975
2099.000000	76.027600
2098.000000	76.088770
2097.000000	76.150361
2096.000000	76.211662
2095.000000	76.273910
2094.000000	76.335424
2093.000000	76.391879
2092.000000	76.441244
2091.000000	76.484127
2090.000000	76.520060
2089.000000	76.548589
2088.000000	76.573765
2087.000000	76.602496
2086.000000	76.638487
2085.000000	76.681935
2084.000000	76.733776
2083.000000	76.794826
2082.000000	76.860803
2081.000000	76.923414
2080.000000	76.976326
2079.000000	77.016004
2078.000000	77.038059
2077.000000	77.038620
2076.000000	77.019876
2075.000000	76.989135
2074.000000	76.953203
2073.000000	76.918077
2072.000000	76.892378
2071.000000	76.885053
2070.000000	76.898793
2069.000000	76.929725
2068.000000	76.972338
2067.000000	77.019998
2066.000000	77.062056
2065.000000	77.087133
2064.000000	77.090696
2063.000000	77.075196
2062.000000	77.044079
2061.000000	77.001621
2060.000000	76.957265
2059.000000	76.923462
2058.000000	76.908552
2057.000000	76.915884
2056.000000	76.947947
2055.000000	77.004774
2054.000000	77.079310
2053.000000	77.159863
2052.000000	77.237195
2051.000000	77.305800
2050.000000	77.359980
2049.000000	77.395300
2048.000000	77.414519
2047.000000	77.426694
2046.000000	77.439973
2045.000000	77.459717
2044.000000	77.492339
2043.000000	77.544148
2042.000000	77.615604
2041.000000	77.702084
2040.000000	77.800116
2039.000000	77.907671
2038.000000	78.019178
2037.000000	78.126448
2036.000000	78.225386
2035.000000	78.316687
2034.000000	78.400387
2033.000000	78.476042
2032.000000	78.547877
2031.000000	78.622761
2030.000000	78.703088
2029.000000	78.786729
2028.000000	78.873823
2027.000000	78.966820
2026.000000	79.064635
2025.000000	79.163397
2024.000000	79.262891
2023.000000	79.367268
2022.000000	79.478288
2021.000000	79.593788
2020.000000	79.712451
2019.000000	79.833374
2018.000000	79.950578
2017.000000	80.055371
2016.000000	80.145299
2015.000000	80.223642
2014.000000	80.290872
2013.000000	80.344705
2012.000000	80.388192
2011.000000	80.429644
2010.000000	80.474912
2009.000000	80.526792
2008.000000	80.591399
2007.000000	80.676088
2006.000000	80.780614
2005.000000	80.897240
2004.000000	81.018379
2003.000000	81.138484
2002.000000	81.247225
2001.000000	81.331838
2000.000000	81.386784
1999.000000	81.414537
1998.000000	81.420779
1997.000000	81.414759
1996.000000	81.411394
1995.000000	81.424430
1994.000000	81.458810
1993.000000	81.513805
1992.000000	81.590808
1991.000000	81.690695
1990.000000	81.803422
1989.000000	81.910568
1988.000000	81.999949
1987.000000	82.068653
1986.000000	82.113559
1985.000000	82.130567
1984.000000	82.123724
1983.000000	82.105735
1982.000000	82.087191
1981.000000	82.075131
1980.000000	82.079050
1979.000000	82.107553
1978.000000	82.160162
1977.000000	82.228621
1976.000000	82.306050
1975.000000	82.387490
1974.000000	82.464041
1973.000000	82.526015
1972.000000	82.572227
1971.000000	82.608477
1970.000000	82.637547
1969.000000	82.657590
1968.000000	82.668493
1967.000000	82.673488
1966.000000	82.676218
1965.000000	82.680394
1964.000000	82.691646
1963.000000	82.713944
1962.000000	82.743097
1961.000000	82.770890
1960.000000	82.796024
1959.000000	82.823814
1958.000000	82.856172
1957.000000	82.890183
1956.000000	82.925846
1955.000000	82.965408
1954.000000	83.006457
1953.000000	83.042366
1952.000000	83.070737
1951.000000	83.094293
1950.000000	83.111406
1949.000000	83.118111
1948.000000	83.118497
1947.000000	83.121280
1946.000000	83.127719
1945.000000	83.133742
1944.000000	83.142688
1943.000000	83.163075
1942.000000	83.197105
1941.000000	83.241244
1940.000000	83.291028
1939.000000	83.340725
1938.000000	83.381259
1937.000000	83.402526
1936.000000	83.401392
1935.000000	83.381902
1934.000000	83.348392
1933.000000	83.304624
1932.000000	83.261322
1931.000000	83.234440
1930.000000	83.230088
1929.000000	83.246906
1928.000000	83.286298
1927.000000	83.352072
1926.000000	83.436058
1925.000000	83.515806
1924.000000	83.574477
1923.000000	83.605772
1922.000000	83.604848
1921.000000	83.566385
1920.000000	83.496274
1919.000000	83.420835
1918.000000	83.367592
1917.000000	83.344808
1916.000000	83.346364
1915.000000	83.362012
1914.000000	83.385978
1913.000000	83.418264
1912.000000	83.459047
1911.000000	83.501403
1910.000000	83.527299
1909.000000	83.523168
1908.000000	83.494289
1907.000000	83.458846
1906.000000	83.427372
1905.000000	83.397148
1904.000000	83.370315
1903.000000	83.355072
1902.000000	83.350473
1901.000000	83.349242
1900.000000	83.351512
1899.000000	83.364485
1898.000000	83.387066
1897.000000	83.405758
1896.000000	83.412580
1895.000000	83.413586
1894.000000	83.417237
1893.000000	83.424536
1892.000000	83.435112
1891.000000	83.451703
1890.000000	83.468842
1889.000000	83.476978
1888.000000	83.481333
1887.000000	83.490214
1886.000000	83.496691
1885.000000	83.489960
1884.000000	83.473344
1883.000000	83.459470
1882.000000	83.451695
1881.000000	83.446215
1880.000000	83.445628
1879.000000	83.456847
1878.000000	83.478884
1877.000000	83.500543
1876.000000	83.516631
1875.000000	83.535723
1874.000000	83.561894
1873.000000	83.583537
1872.000000	83.591964
1871.000000	83.599747
1870.000000	83.623601
1869.000000	83.649440
1868.000000	83.650786
1867.000000	83.628273
1866.000000	83.593355
1865.000000	83.554031
1864.000000	83.525306
1863.000000	83.518784
1862.000000	83.525327
1861.000000	83.525573
1860.000000	83.513510
1859.000000	83.495070
1858.000000	83.470516
1857.000000	83.435937
1856.000000	83.397742
1855.000000	83.369932
1854.000000	83.354507
1853.000000	83.348287
1852.000000	83.354472
1851.000000	83.376049
1850.000000	83.412896
1849.000000	83.457908
1848.000000	83.492550
1847.000000	83.487263
1846.000000	83.423423
1845.000000	83.322367
1844.000000	83.238349
1843.000000	83.209859
1842.000000	83.214820
1841.000000	83.204290
1840.000000	83.169824
1839.000000	83.141158
1838.000000	83.129769
1837.000000	83.116278
1836.000000	83.097030
1835.000000	83.093506
1834.000000	83.111107
1833.000000	83.132150
1832.000000	83.146029
1831.000000	83.156980
1830.000000	83.150980
1829.000000	83.106200
1828.000000	83.026800
1827.000000	82.925098
1826.000000	82.817593
1825.000000	82.725407
1824.000000	82.663713
1823.000000	82.633004
1822.000000	82.614479
1821.000000	82.592109
1820.000000	82.567722
1819.000000	82.551629
1818.000000	82.543499
1817.000000	82.530679
1816.000000	82.512010
1815.000000	82.496459
1814.000000	82.483794
1813.000000	82.460772
1812.000000	82.415475
1811.000000	82.350310
1810.000000	82.271455
1809.000000	82.183540
1808.000000	82.101259
1807.000000	82.044102
1806.000000	82.013977
1805.000000	81.993894
1804.000000	81.978205
1803.000000	81.977318
1802.000000	81.993731
1801.000000	82.008023
1800.000000	82.002736
1799.000000	81.986697
1798.000000	81.970063
1797.000000	81.944479
1796.000000	81.897235
1795.000000	81.820437
1794.000000	81.718505
1793.000000	81.606926
1792.000000	81.501410
1791.000000	81.427414
1790.000000	81.394726
1789.000000	81.373203
1788.000000	81.337260
1787.000000	81.295516
1786.000000	81.269623
1785.000000	81.271791
1784.000000	81.307793
1783.000000	81.360316
1782.000000	81.389614
1781.000000	81.365139
1780.000000	81.290115
1779.000000	81.200867
1778.000000	81.124880
1777.000000	81.070189
1776.000000	81.036864
1775.000000	81.012901
1774.000000	80.992436
1773.000000	80.981129
1772.000000	80.963134
1771.000000	80.925716
1770.000000	80.868910
1769.000000	80.788084
1768.000000	80.714827
1767.000000	80.692886
1766.000000	80.704449
1765.000000	80.678297
1764.000000	80.575706
1763.000000	80.428999
1762.000000	80.295381
1761.000000	80.206919
1760.000000	80.160372
1759.000000	80.126530
1758.000000	80.082238
1757.000000	80.048335
1756.000000	80.062902
1755.000000	80.119154
1754.000000	80.158366
1753.000000	80.145132
1752.000000	80.117396
1751.000000	80.130125
1750.000000	80.161879
1749.000000	80.135260
1748.000000	80.024779
1747.000000	79.872960
1746.000000	79.728756
1745.000000	79.606333
1744.000000	79.501390
1743.000000	79.412693
1742.000000	79.328652
1741.000000	79.231808
1740.000000	79.141659
1739.000000	79.101158
1738.000000	79.090674
1737.000000	79.019394
1736.000000	78.837986
1735.000000	78.625827
1734.000000	78.474356
1733.000000	78.394493
1732.000000	78.340780
1731.000000	78.239822
1730.000000	78.062573
1729.000000	77.843995
1728.000000	77.639568
1727.000000	77.473043
1726.000000	77.332466
1725.000000	77.196215
1724.000000	77.061093
1723.000000	76.952615
1722.000000	76.874389
1721.000000	76.795066
1720.000000	76.701703
1719.000000	76.627794
1718.000000	76.550420
1717.000000	76.371586
1716.000000	76.085419
1715.000000	75.769600
1714.000000	75.467356
1713.000000	75.185448
1712.000000	74.926054
1711.000000	74.697763
1710.000000	74.506358
1709.000000	74.352285
1708.000000	74.225587
1707.000000	74.111773
1706.000000	73.988507
1705.000000	73.836326
1704.000000	73.648557
1703.000000	73.376386
1702.000000	72.967520
1701.000000	72.513283
1700.000000	72.205623
1699.000000	72.104638
1698.000000	72.026965
1697.000000	71.734060
1696.000000	71.234254
1695.000000	70.800008
1694.000000	70.589215
1693.000000	70.485174
1692.000000	70.360344
1691.000000	70.196951
1690.000000	70.012009
1689.000000	69.815520
1688.000000	69.610219
1687.000000	69.375434
1686.000000	69.072386
1685.000000	68.663288
1684.000000	68.131494
1683.000000	67.645146
1682.000000	67.332346
1681.000000	67.076950
1680.000000	66.797711
1679.000000	66.508253
1678.000000	66.204238
1677.000000	65.849203
1676.000000	65.455437
1675.000000	65.107931
1674.000000	64.865063
1673.000000	64.675786
1672.000000	64.442676
1671.000000	64.125349
1670.000000	63.720121
1669.000000	63.264753
1668.000000	62.859155
1667.000000	62.554755
1666.000000	62.299319
1665.000000	62.015266
1664.000000	61.678366
1663.000000	61.310744
1662.000000	60.942393
1661.000000	60.602141
1660.000000	60.297597
1659.000000	60.033937
1658.000000	59.813898
1657.000000	59.624929
1656.000000	59.417955
1655.000000	59.162498
1654.000000	58.805779
1653.000000	58.268414
1652.000000	57.823613
1651.000000	57.672882
1650.000000	57.601718
1649.000000	57.448056
1648.000000	57.160508
1647.000000	56.723552
1646.000000	56.237017
1645.000000	55.850923
1644.000000	55.591239
1643.000000	55.388703
1642.000000	55.190519
1641.000000	54.984530
1640.000000	54.791169
1639.000000	54.625216
1638.000000	54.449169
1637.000000	54.184901
1636.000000	53.771198
1635.000000	53.312252
1634.000000	52.991637
1633.000000	52.805810
1632.000000	52.662108
1631.000000	52.529986
1630.000000	52.407325
1629.000000	52.280455
1628.000000	52.137338
1627.000000	51.990322
1626.000000	51.845635
1625.000000	51.681480
1624.000000	51.481173
1623.000000	51.264179
1622.000000	51.079763
1621.000000	50.955974
1620.000000	50.875036
1619.000000	50.812570
1618.000000	50.755910
1617.000000	50.685515
1616.000000	50.607289
1615.000000	50.563573
1614.000000	50.553190
1613.000000	50.536095
1612.000000	50.503760
1611.000000	50.473684
1610.000000	50.447750
1609.000000	50.408988
1608.000000	50.359658
1607.000000	50.325896
1606.000000	50.324407
1605.000000	50.353136
1604.000000	50.405022
1603.000000	50.476014
1602.000000	50.556109
1601.000000	50.630286
1600.000000	50.696741
1599.000000	50.766306
1598.000000	50.842254
1597.000000	50.913707
1596.000000	50.972422
1595.000000	51.022250
1594.000000	51.068316
1593.000000	51.111659
1592.000000	51.157598
1591.000000	51.214657
1590.000000	51.280819
1589.000000	51.345735
1588.000000	51.407659
1587.000000	51.475707
1586.000000	51.550744
1585.000000	51.627493
1584.000000	51.707041
1583.000000	51.793554
1582.000000	51.891575
1581.000000	52.005891
1580.000000	52.135888
1579.000000	52.267185
1578.000000	52.376438
1577.000000	52.432007
1576.000000	52.421310
1575.000000	52.402172
1574.000000	52.426400
1573.000000	52.469340
1572.000000	52.504636
1571.000000	52.557314
1570.000000	52.643219
1569.000000	52.744446
1568.000000	52.861241
1567.000000	52.997755
1566.000000	53.138772
1565.000000	53.274096
1564.000000	53.399712
1563.000000	53.488569
1562.000000	53.521189
1561.000000	53.515362
1560.000000	53.615314
1559.000000	53.700349
1558.000000	53.652183
1557.000000	53.684787
1556.000000	53.800221
1555.000000	53.923505
1554.000000	54.084096
1553.000000	54.293991
1552.000000	54.523485
1551.000000	54.739637
1550.000000	54.939026
1549.000000	55.116265
1548.000000	55.268739
1547.000000	55.405700
1546.000000	55.561949
1545.000000	55.766627
1544.000000	56.003451
1543.000000	56.260135
1542.000000	56.563881
1541.000000	56.904708
1540.000000	57.167180
1539.000000	57.367291
1538.000000	57.631425
1537.000000	57.927672
1536.000000	58.195062
1535.000000	58.461590
1534.000000	58.764935
1533.000000	59.074653
1532.000000	59.358834
1531.000000	59.641372
1530.000000	59.936461
1529.000000	60.243621
1528.000000	60.569608
1527.000000	60.929390
1526.000000	61.331501
1525.000000	61.756537
1524.000000	62.168181
1523.000000	62.564563
1522.000000	62.960829
1521.000000	63.348053
1520.000000	63.738001
1519.000000	64.146027
1518.000000	64.556518
1517.000000	64.933734
1516.000000	65.259116
1515.000000	65.560053
1514.000000	65.858881
1513.000000	66.162782
1512.000000	66.499486
1511.000000	66.880992
1510.000000	67.289917
1509.000000	67.702636
1508.000000	68.127485
1507.000000	68.454950
1506.000000	68.680427
1505.000000	69.005036
1504.000000	69.423791
1503.000000	69.837510
1502.000000	70.233156
1501.000000	70.614425
1500.000000	70.986795
1499.000000	71.347076
1498.000000	71.678150
1497.000000	71.942685
1496.000000	72.159007
1495.000000	72.407380
1494.000000	72.704699
1493.000000	73.011023
1492.000000	73.347789
1491.000000	73.793074
1490.000000	74.317891
1489.000000	74.774412
1488.000000	75.101881
1487.000000	75.361475
1486.000000	75.586326
1485.000000	75.759909
1484.000000	75.883074
1483.000000	75.981649
1482.000000	76.064910
1481.000000	76.113679
1480.000000	76.133374
1479.000000	76.155617
1478.000000	76.187777
1477.000000	76.199726
1476.000000	76.166398
1475.000000	76.061056
1474.000000	75.789974
1473.000000	75.206972
1472.000000	74.326302
1471.000000	73.356941
1470.000000	72.365547
1469.000000	71.227925
1468.000000	69.853189
1467.000000	68.184971
1466.000000	66.085602
1465.000000	63.462027
1464.000000	60.540747
1463.000000	57.702146
1462.000000	55.048657
1461.000000	52.472792
1460.000000	49.903096
1459.000000	47.269344
1458.000000	44.380029
1457.000000	41.302921
1456.000000	38.740533
1455.000000	37.130371
1454.000000	36.149818
1453.000000	35.446508
1452.000000	34.973721
1451.000000	34.794294
1450.000000	34.900344
1449.000000	35.259610
1448.000000	35.894772
1447.000000	36.775576
1446.000000	37.785912
1445.000000	38.857675
1444.000000	40.011778
1443.000000	41.262000
1442.000000	42.558197
1441.000000	43.833335
1440.000000	45.054022
1439.000000	46.242893
1438.000000	47.506846
1437.000000	48.973765
1436.000000	50.592523
1435.000000	52.142780
1434.000000	53.511537
1433.000000	54.769104
1432.000000	56.025037
1431.000000	57.310170
1430.000000	58.578988
1429.000000	59.783049
1428.000000	60.899007
1427.000000	61.914123
1426.000000	62.848319
1425.000000	63.749883
1424.000000	64.601874
1423.000000	65.321281
1422.000000	65.880639
1421.000000	66.357189
1420.000000	66.868198
1419.000000	67.442617
1418.000000	68.023166
1417.000000	68.582076
1416.000000	69.117616
1415.000000	69.635851
1414.000000	70.168798
1413.000000	70.739741
1412.000000	71.322698
1411.000000	71.869914
1410.000000	72.371036
1409.000000	72.838908
1408.000000	73.267941
1407.000000	73.644528
1406.000000	73.981921
1405.000000	74.312398
1404.000000	74.641165
1403.000000	74.953291
1402.000000	75.252469
1401.000000	75.568100
1400.000000	75.918946
1399.000000	76.279478
1398.000000	76.613396
1397.000000	76.900686
1396.000000	77.120534
1395.000000	77.262063
1394.000000	77.366891
1393.000000	77.490193
1392.000000	77.613593
1391.000000	77.681507
1390.000000	77.686843
1389.000000	77.659040
1388.000000	77.604508
1387.000000	77.512339
1386.000000	77.412271
1385.000000	77.353470
1384.000000	77.339452
1383.000000	77.350481
1382.000000	77.378321
1381.000000	77.404902
1380.000000	77.391533
1379.000000	77.316360
1378.000000	77.202266
1377.000000	77.076564
1376.000000	76.923587
1375.000000	76.703069
1374.000000	76.414138
1373.000000	76.112231
1372.000000	75.840426
1371.000000	75.588169
1370.000000	75.336812
1369.000000	75.087779
1368.000000	74.841421
1367.000000	74.595849
1366.000000	74.355422
1365.000000	74.114024
1364.000000	73.836696
1363.000000	73.478093
1362.000000	73.039568
1361.000000	72.573761
1360.000000	72.119247
1359.000000	71.689117
1358.000000	71.312878
1357.000000	71.034277
1356.000000	70.879311
1355.000000	70.851427
1354.000000	70.943786
1353.000000	71.127697
1352.000000	71.342879
1351.000000	71.516902
1350.000000	71.590146
1349.000000	71.519883
1348.000000	71.270282
1347.000000	70.822487
1346.000000	70.183633
1345.000000	69.374411
1344.000000	68.416433
1343.000000	67.327621
1342.000000	66.116140
1341.000000	64.765606
1340.000000	63.247171
1339.000000	61.570688
1338.000000	59.789702
1337.000000	57.939450
1336.000000	56.010374
1335.000000	53.989746
1334.000000	51.891442
1333.000000	49.740634
1332.000000	47.570852
1331.000000	45.442812
1330.000000	43.432193
1329.000000	41.587832
1328.000000	39.920488
1327.000000	38.419792
1326.000000	37.055599
1325.000000	35.778479
1324.000000	34.547058
1323.000000	33.358589
1322.000000	32.233291
1321.000000	31.185064
1320.000000	30.237009
1319.000000	29.444286
1318.000000	28.878074
1317.000000	28.587653
1316.000000	28.592655
1315.000000	28.900189
1314.000000	29.492614
1313.000000	30.319611
1312.000000	31.322136
1311.000000	32.453531
1310.000000	33.679618
1309.000000	34.965311
1308.000000	36.279163
1307.000000	37.601857
1306.000000	38.917721
1305.000000	40.207927
1304.000000	41.455481
1303.000000	42.651058
1302.000000	43.788229
1301.000000	44.857283
1300.000000	45.845268
1299.000000	46.741323
1298.000000	47.537016
1297.000000	48.225684
1296.000000	48.814697
1295.000000	49.337920
1294.000000	49.851491
1293.000000	50.412967
1292.000000	51.062739
1291.000000	51.819261
1290.000000	52.680925
1289.000000	53.627531
1288.000000	54.625015
1287.000000	55.636174
1286.000000	56.628846
1285.000000	57.574153
1284.000000	58.442279
1283.000000	59.207269
1282.000000	59.853720
1281.000000	60.376247
1280.000000	60.772385
1279.000000	61.046450
1278.000000	61.219048
1277.000000	61.320673
1276.000000	61.383396
1275.000000	61.442816
1274.000000	61.540856
1273.000000	61.716546
1272.000000	61.994582
1271.000000	62.386171
1270.000000	62.895509
1269.000000	63.516584
1268.000000	64.225547
1267.000000	64.989018
1266.000000	65.777656
1265.000000	66.567466
1264.000000	67.333460
1263.000000	68.053711
1262.000000	68.720228
1261.000000	69.334953
1260.000000	69.896683
1259.000000	70.403272
1258.000000	70.864217
1257.000000	71.291837
1256.000000	71.684137
1255.000000	72.029092
1254.000000	72.319783
1253.000000	72.555185
1252.000000	72.726289
1251.000000	72.820305
1250.000000	72.836948
1249.000000	72.784358
1248.000000	72.666435
1247.000000	72.483771
1246.000000	72.245020
1245.000000	71.963052
1244.000000	71.639275
1243.000000	71.268445
1242.000000	70.850751
1241.000000	70.388158
1240.000000	69.876054
1239.000000	69.309132
1238.000000	68.695217
1237.000000	68.050774
1236.000000	67.389387
1235.000000	66.725699
1234.000000	66.082668
1233.000000	65.483453
1232.000000	64.940551
1231.000000	64.460361
1230.000000	64.050211
1229.000000	63.715769
1228.000000	63.453731
1227.000000	63.256589
1226.000000	63.121694
1225.000000	63.046666
1224.000000	63.026121
1223.000000	63.055676
1222.000000	63.136965
1221.000000	63.274243
1220.000000	63.464949
1219.000000	63.702899
1218.000000	63.983945
1217.000000	64.302680
1216.000000	64.648228
1215.000000	65.007517
1214.000000	65.373627
1213.000000	65.744017
1212.000000	66.113897
1211.000000	66.479746
1210.000000	66.845766
1209.000000	67.219453
1208.000000	67.601989
1207.000000	67.989897
1206.000000	68.382802
1205.000000	68.780647
1204.000000	69.175511
1203.000000	69.555782
1202.000000	69.917557
1201.000000	70.263521
1200.000000	70.594097
1199.000000	70.909696
1198.000000	71.219762
1197.000000	71.538943
1196.000000	71.874309
1195.000000	72.224954
1194.000000	72.590126
1193.000000	72.966112
1192.000000	73.337379
1191.000000	73.682182
1190.000000	73.988244
1189.000000	74.253668
1188.000000	74.476435
1187.000000	74.658104
1186.000000	74.815429
1185.000000	74.975433
1184.000000	75.156869
1183.000000	75.364359
1182.000000	75.597566
1181.000000	75.853396
1180.000000	76.120933
1179.000000	76.385706
1178.000000	76.637470
1177.000000	76.864574
1176.000000	77.045164
1175.000000	77.159621
1174.000000	77.210928
1173.000000	77.220657
1172.000000	77.210609
1171.000000	77.199031
1170.000000	77.208368
1169.000000	77.258670
1168.000000	77.352082
1167.000000	77.475653
1166.000000	77.616511
1165.000000	77.762822
1164.000000	77.894830
1163.000000	77.991454
1162.000000	78.046451
1161.000000	78.066609
1160.000000	78.057786
1159.000000	78.026551
1158.000000	77.990326
1157.000000	77.970465
1156.000000	77.975338
1155.000000	78.001522
1154.000000	78.047350
1153.000000	78.111680
1152.000000	78.183298
1151.000000	78.247477
1150.000000	78.303154
1149.000000	78.360710
1148.000000	78.426366
1147.000000	78.501299
1146.000000	78.592347
1145.000000	78.707748
1144.000000	78.842250
1143.000000	78.979514
1142.000000	79.107434
1141.000000	79.219031
1140.000000	79.302560
1139.000000	79.347675
1138.000000	79.360807
1137.000000	79.362056
1136.000000	79.369202
1135.000000	79.396974
1134.000000	79.465916
1133.000000	79.595036
1132.000000	79.783953
1131.000000	80.012928
1130.000000	80.258209
1129.000000	80.494939
1128.000000	80.689907
1127.000000	80.809968
1126.000000	80.841963
1125.000000	80.792623
1124.000000	80.675795
1123.000000	80.512601
1122.000000	80.338894
1121.000000	80.194814
1120.000000	80.103114
1119.000000	80.067529
1118.000000	80.084296
1117.000000	80.139003
1116.000000	80.196304
1115.000000	80.209150
1114.000000	80.142197
1113.000000	79.977112
1112.000000	79.700952
1111.000000	79.311300
1110.000000	78.826020
1109.000000	78.275034
1108.000000	77.680777
1107.000000	77.053042
1106.000000	76.400705
1105.000000	75.726012
1104.000000	75.013802
1103.000000	74.239263
1102.000000	73.380038
1101.000000	72.418641
1100.000000	71.334626
1099.000000	70.110555
1098.000000	68.745198
1097.000000	67.242764
1096.000000	65.604460
1095.000000	63.829306
1094.000000	61.919424
1093.000000	59.881210
1092.000000	57.720344
1091.000000	55.452774
1090.000000	53.108190
1089.000000	50.723252
1088.000000	48.340108
1087.000000	46.007744
1086.000000	43.772867
1085.000000	41.668910
1084.000000	39.719648
1083.000000	37.938946
1082.000000	36.328190
1081.000000	34.873535
1080.000000	33.559225
1079.000000	32.378276
1078.000000	31.315611
1077.000000	30.349769
1076.000000	29.467267
1075.000000	28.666380
1074.000000	27.946110
1073.000000	27.296948
1072.000000	26.716682
1071.000000	26.212197
1070.000000	25.781924
1069.000000	25.415482
1068.000000	25.107187
1067.000000	24.860721
1066.000000	24.673193
1065.000000	24.531066
1064.000000	24.429848
1063.000000	24.375583
1062.000000	24.369699
1061.000000	24.406405
1060.000000	24.486583
1059.000000	24.621470
1058.000000	24.814740
1057.000000	25.060999
1056.000000	25.362037
1055.000000	25.726117
1054.000000	26.153268
1053.000000	26.631684
1052.000000	27.153554
1051.000000	27.718869
1050.000000	28.319656
1049.000000	28.941296
1048.000000	29.577713
1047.000000	30.233526
1046.000000	30.911320
1045.000000	31.609061
1044.000000	32.333090
1043.000000	33.096947
1042.000000	33.907623
1041.000000	34.763937
1040.000000	35.664480
1039.000000	36.608847
1038.000000	37.588564
1037.000000	38.587790
1036.000000	39.594006
1035.000000	40.598095
1034.000000	41.587701
1033.000000	42.549737
1032.000000	43.481001
1031.000000	44.389317
1030.000000	45.284503
1029.000000	46.172686
1028.000000	47.058557
1027.000000	47.946726
1026.000000	48.837676
1025.000000	49.727147
1024.000000	50.608750
1023.000000	51.475641
1022.000000	52.320955
1021.000000	53.138434
1020.000000	53.925814
1019.000000	54.685879
1018.000000	55.423997
1017.000000	56.144984
1016.000000	56.850105
1015.000000	57.538577
1014.000000	58.209077
1013.000000	58.858600
1012.000000	59.482685
1011.000000	60.078004
1010.000000	60.646628
1009.000000	61.195049
1008.000000	61.730100
1007.000000	62.259433
1006.000000	62.792634
1005.000000	63.337475
1004.000000	63.894041
1003.000000	64.454842
1002.000000	65.009797
1001.000000	65.545903
1000.000000	66.045916
999.000000	66.494984
998.000000	66.889711
997.000000	67.238956
996.000000	67.556945
995.000000	67.862308
994.000000	68.179960
993.000000	68.533602
992.000000	68.934543
991.000000	69.380201
990.000000	69.859656
989.000000	70.353739
988.000000	70.832258
987.000000	71.262856
986.000000	71.625552
985.000000	71.915950
984.000000	72.139480
983.000000	72.311437
982.000000	72.462408
981.000000	72.630603
980.000000	72.845738
979.000000	73.123679
978.000000	73.470583
977.000000	73.879826
976.000000	74.324861
975.000000	74.765402
974.000000	75.164730
973.000000	75.496876
972.000000	75.744590
971.000000	75.904775
970.000000	75.997250
969.000000	76.058660
968.000000	76.124100
967.000000	76.221168
966.000000	76.374109
965.000000	76.598666
964.000000	76.890062
963.000000	77.224834
962.000000	77.574452
961.000000	77.911246
960.000000	78.206008
959.000000	78.435384
958.000000	78.595117
957.000000	78.698793
956.000000	78.764524
955.000000	78.810656
954.000000	78.861652
953.000000	78.941321
952.000000	79.058213
951.000000	79.205704
950.000000	79.374664
949.000000	79.556525
948.000000	79.737664
947.000000	79.904285
946.000000	80.054296
945.000000	80.195055
944.000000	80.330741
943.000000	80.461760
942.000000	80.593066
941.000000	80.730156
940.000000	80.866093
939.000000	80.984680
938.000000	81.074868
937.000000	81.132437
936.000000	81.152625
935.000000	81.134865
934.000000	81.095409
933.000000	81.062949
932.000000	81.061774
931.000000	81.107566
930.000000	81.213703
929.000000	81.384512
928.000000	81.601116
927.000000	81.825701
926.000000	82.021067
925.000000	82.157009
924.000000	82.205025
923.000000	82.145865
922.000000	81.985124
921.000000	81.753369
920.000000	81.490038
919.000000	81.237500
918.000000	81.042236
917.000000	80.942344
916.000000	80.948886
915.000000	81.045515
914.000000	81.201741
913.000000	81.376763
912.000000	81.516586
911.000000	81.566590
910.000000	81.493718
909.000000	81.291218
908.000000	80.969338
907.000000	80.553187
906.000000	80.088782
905.000000	79.630536
904.000000	79.218837
903.000000	78.875647
902.000000	78.612119
901.000000	78.425275
900.000000	78.288266
899.000000	78.157084
898.000000	77.990400
897.000000	77.756280
896.000000	77.428163
895.000000	76.990896
894.000000	76.450657
893.000000	75.830467
892.000000	75.152536
891.000000	74.435453
890.000000	73.700264
889.000000	72.964119
888.000000	72.231272
887.000000	71.496076
886.000000	70.753717
885.000000	69.999692
884.000000	69.222300
883.000000	68.407251
882.000000	67.546620
881.000000	66.636795
880.000000	65.671198
879.000000	64.641025
878.000000	63.543526
877.000000	62.379755
876.000000	61.149411
875.000000	59.855762
874.000000	58.510160
873.000000	57.129730
872.000000	55.731130
871.000000	54.330737
870.000000	52.946006
869.000000	51.590889
868.000000	50.271293
867.000000	48.984393
866.000000	47.719789
865.000000	46.461877
864.000000	45.195527
863.000000	43.910899
862.000000	42.604134
861.000000	41.278267
860.000000	39.945775
859.000000	38.630183
858.000000	37.362331
857.000000	36.178715
856.000000	35.124798
855.000000	34.244422
854.000000	33.566528
853.000000	33.095887
852.000000	32.813885
851.000000	32.683224
850.000000	32.647339
849.000000	32.646849
848.000000	32.637383
847.000000	32.594555
846.000000	32.510143
845.000000	32.389567
844.000000	32.254396
843.000000	32.135159
842.000000	32.058535
841.000000	32.045488
840.000000	32.114563
839.000000	32.279473
838.000000	32.542733
837.000000	32.896676
836.000000	33.331992
835.000000	33.835239
834.000000	34.385197
833.000000	34.958633
832.000000	35.539379
831.000000	36.121161
830.000000	36.703952
829.000000	37.294845
828.000000	37.908015
827.000000	38.556780
826.000000	39.247126
825.000000	39.979488
824.000000	40.752440
823.000000	41.560277
822.000000	42.390413
821.000000	43.227370
820.000000	44.055627
819.000000	44.858536
818.000000	45.619628
817.000000	46.328739
816.000000	46.983852
815.000000	47.588588
814.000000	48.151289
813.000000	48.685185
812.000000	49.206237
811.000000	49.727882
810.000000	50.259607
809.000000	50.807619
808.000000	51.373400
807.000000	51.953082
806.000000	52.540387
805.000000	53.129039
804.000000	53.711047
803.000000	54.276920
802.000000	54.821740
801.000000	55.347623
800.000000	55.857788
799.000000	56.352732
798.000000	56.834347
797.000000	57.308910
796.000000	57.782006
795.000000	58.255739
794.000000	58.733550
793.000000	59.221744
792.000000	59.722671
791.000000	60.231533
790.000000	60.742819
789.000000	61.254069
788.000000	61.760468
787.000000	62.252225
786.000000	62.720744
785.000000	63.161530
784.000000	63.569690
783.000000	63.939669
782.000000	64.273597
781.000000	64.583398
780.000000	64.882553
779.000000	65.182228
778.000000	65.495541
777.000000	65.836610
776.000000	66.210733
775.000000	66.611080
774.000000	67.026124
773.000000	67.442913
772.000000	67.842186
771.000000	68.201339
770.000000	68.506916
769.000000	68.759043
768.000000	68.962958
767.000000	69.126693
766.000000	69.268629
765.000000	69.416560
764.000000	69.594841
763.000000	69.817719
762.000000	70.094298
761.000000	70.427635
760.000000	70.804807
759.000000	71.196372
758.000000	71.570249
757.000000	71.899772
756.000000	72.160865
755.000000	72.335626
754.000000	72.425890
753.000000	72.454632
752.000000	72.451363
751.000000	72.443787
750.000000	72.461421
749.000000	72.533114
748.000000	72.673577
747.000000	72.879224
746.000000	73.137120
745.000000	73.427774
744.000000	73.718000
743.000000	73.966174
742.000000	74.141879
741.000000	74.234977
740.000000	74.246612
739.000000	74.185454
738.000000	74.075354
737.000000	73.953017
736.000000	73.851889
735.000000	73.794521
734.000000	73.799835
733.000000	73.882299
732.000000	74.039164
731.000000	74.248935
730.000000	74.487837
729.000000	74.738124
728.000000	74.979953
727.000000	75.190712
726.000000	75.359485
725.000000	75.491627
724.000000	75.594880
723.000000	75.673499
722.000000	75.739261
721.000000	75.814346
720.000000	75.915206
719.000000	76.043591
718.000000	76.197944
717.000000	76.382537
716.000000	76.599870
715.000000	76.845153
714.000000	77.113340
713.000000	77.400848
712.000000	77.696248
711.000000	77.980692
710.000000	78.241692
709.000000	78.474473
708.000000	78.668687
707.000000	78.808456
706.000000	78.889975
705.000000	78.926528
704.000000	78.934901
703.000000	78.930744
702.000000	78.939771
701.000000	78.996889
700.000000	79.126147
699.000000	79.331602
698.000000	79.608100
697.000000	79.944083
696.000000	80.308051
695.000000	80.650880
694.000000	80.930520
693.000000	81.124473
692.000000	81.219530
691.000000	81.209997
690.000000	81.112884
689.000000	80.970318
688.000000	80.829582
687.000000	80.730438
686.000000	80.712665
685.000000	80.812729
684.000000	81.038927
683.000000	81.362398
682.000000	81.739210
681.000000	82.123658
680.000000	82.460221
679.000000	82.692612
678.000000	82.795045
677.000000	82.778111
676.000000	82.665744
675.000000	82.490389
674.000000	82.303138
673.000000	82.163669
672.000000	82.112890
671.000000	82.168687
670.000000	82.350278
669.000000	82.683935
668.000000	83.138862
667.000000	83.542398
666.000000	83.744831
665.000000	83.806927
664.000000	83.823692
663.000000	83.812198
662.000000	83.765825
661.000000	83.698629
660.000000	83.636224
659.000000	83.596170
658.000000	83.593088
657.000000	83.639306
656.000000	83.730341
655.000000	83.846676
654.000000	83.970244
653.000000	84.091070
652.000000	84.201972
651.000000	84.297192
650.000000	84.378846
649.000000	84.456092
648.000000	84.535801
647.000000	84.620893
646.000000	84.715534
645.000000	84.820078
644.000000	84.920252
643.000000	84.992613
642.000000	85.023122
641.000000	85.012584
640.000000	84.966151
639.000000	84.894551
638.000000	84.825368
637.000000	84.795654
636.000000	84.828737
635.000000	84.927392
634.000000	85.085855
633.000000	85.292743
632.000000	85.520416
631.000000	85.726389
630.000000	85.874107
629.000000	85.944482
628.000000	85.927986
627.000000	85.823783
626.000000	85.655440
625.000000	85.471108
624.000000	85.321483
623.000000	85.245652
622.000000	85.271214
621.000000	85.406852
620.000000	85.630280
619.000000	85.896254
618.000000	86.159336
617.000000	86.380441
616.000000	86.516740
615.000000	86.532729
614.000000	86.430096
613.000000	86.251090
612.000000	86.048722
611.000000	85.870296
610.000000	85.763016
609.000000	85.765962
608.000000	85.885875
607.000000	86.093294
606.000000	86.345388
605.000000	86.599239
604.000000	86.805848
603.000000	86.917817
602.000000	86.916720
601.000000	86.819112
600.000000	86.654540
599.000000	86.456313
598.000000	86.271638
597.000000	86.152323
596.000000	86.127322
595.000000	86.196711
594.000000	86.348431
593.000000	86.560650
592.000000	86.785945
591.000000	86.960939
590.000000	87.047175
589.000000	87.048005
588.000000	86.983448
587.000000	86.875812
586.000000	86.762840
585.000000	86.693741
584.000000	86.698881
583.000000	86.778048
582.000000	86.919399
581.000000	87.104660
580.000000	87.294495
579.000000	87.438107
578.000000	87.510109
577.000000	87.518743
576.000000	87.476528
575.000000	87.391007
574.000000	87.287577
573.000000	87.209365
572.000000	87.185977
571.000000	87.221359
570.000000	87.308094
569.000000	87.429458
568.000000	87.544251
567.000000	87.599118
566.000000	87.569380
565.000000	87.469571
564.000000	87.321541
563.000000	87.143270
562.000000	86.972064
561.000000	86.862354
560.000000	86.847329
559.000000	86.923893
558.000000	87.074456
557.000000	87.275566
556.000000	87.481175
555.000000	87.627850
554.000000	87.676175
553.000000	87.627383
552.000000	87.496077
551.000000	87.299779
550.000000	87.084844
549.000000	86.923619
548.000000	86.869070
547.000000	86.932626
546.000000	87.106924
545.000000	87.378330
544.000000	87.707320
543.000000	88.022879
542.000000	88.254946
541.000000	88.361982
540.000000	88.324791
539.000000	88.145150
538.000000	87.865747
537.000000	87.565344
536.000000	87.317573
535.000000	87.170681
534.000000	87.159338
533.000000	87.298102
532.000000	87.558873
531.000000	87.876577
530.000000	88.185317
529.000000	88.437602
528.000000	88.591655
527.000000	88.611663
526.000000	88.501522
525.000000	88.317267
524.000000	88.120775
523.000000	87.945734
522.000000	87.822764
521.000000	87.790124
520.000000	87.853948
519.000000	87.967238
518.000000	88.066211
517.000000	88.109924
516.000000	88.076184
515.000000	87.953511
514.000000	87.754989
513.000000	87.511225
512.000000	87.243023
511.000000	86.960502
510.000000	86.687626
509.000000	86.451464
508.000000	86.241460
507.000000	86.008622
506.000000	85.716084
505.000000	85.362140
504.000000	84.948561
503.000000	84.473587
502.000000	83.971723
501.000000	83.520944
500.000000	83.185202
499.000000	82.978832
498.000000	82.905999
497.000000	82.984024
496.000000	83.214473
495.000000	83.564155
494.000000	83.979131
493.000000	84.399289
492.000000	84.755347
491.000000	84.989482
490.000000	85.095950
489.000000	85.122503
488.000000	85.133278
487.000000	85.186728
486.000000	85.337499
485.000000	85.619924
484.000000	86.013599
483.000000	86.451614
482.000000	86.873620
481.000000	87.246829
480.000000	87.531043
479.000000	87.665669
478.000000	87.618579
477.000000	87.427081
476.000000	87.168934
475.000000	86.912067
474.000000	86.712907
473.000000	86.619063
472.000000	86.649717
471.000000	86.802665
470.000000	87.074816
469.000000	87.450814
468.000000	87.872588
467.000000	88.239506
466.000000	88.481544
465.000000	88.599928
464.000000	88.623245
463.000000	88.574185
462.000000	88.491140
461.000000	88.430955
460.000000	88.422464
459.000000	88.462548
458.000000	88.547676
457.000000	88.675284
456.000000	88.820662
455.000000	88.928209
454.000000	88.971443
453.000000	88.986221
452.000000	89.001838
451.000000	89.001631
450.000000	88.990553
449.000000	89.032414
448.000000	89.172471
447.000000	89.370591
446.000000	89.565922
445.000000	89.752634
444.000000	89.936706
443.000000	90.064269
442.000000	90.063958
441.000000	89.936744
440.000000	89.733221
439.000000	89.498090
438.000000	89.298073
437.000000	89.241082
436.000000	89.396628
435.000000	89.728583
434.000000	90.150365
433.000000	90.598328
432.000000	91.002174
431.000000	91.253684
430.000000	91.279027
429.000000	91.106617
428.000000	90.805166
427.000000	90.420383
426.000000	90.022694
425.000000	89.742097
424.000000	89.682758
423.000000	89.821371
422.000000	90.057815
421.000000	90.350458
420.000000	90.722020
419.000000	91.069757
418.000000	91.226344
417.000000	91.273729
416.000000	91.264412
415.000000	91.094124
414.000000	90.761783
413.000000	90.438651
412.000000	90.268728
411.000000	90.241632
410.000000	90.305442
409.000000	90.482168
408.000000	90.771293
407.000000	91.058243
406.000000	91.228646
405.000000	91.302063
404.000000	91.330661
403.000000	91.274381
402.000000	91.098516
401.000000	90.880891
400.000000	90.722410
