PE IR       SUBTECH     SPECTRUM    ASCII       PEDS        4.00        
   -1
23ms021_nitro.asc
24/09/10
16:08:49.00
24/09/10
16:08:49.00
Administrator
Sample 1156 By Administrator Date Tuesday, September 10 2024
400.000000
#HDR
-1
-1
#GR
cm-1
%T
1.0
0.0
4000.000000
-1.000000
3601
8
84.243143
5.272530
#DATA
4000.000000	46.729993
3999.000000	46.769502
3998.000000	46.808093
3997.000000	46.845596
3996.000000	46.881911
3995.000000	46.917068
3994.000000	46.951489
3993.000000	46.986016
3992.000000	47.021507
3991.000000	47.058414
3990.000000	47.096731
3989.000000	47.136201
3988.000000	47.176385
3987.000000	47.216589
3986.000000	47.256038
3985.000000	47.294142
3984.000000	47.330487
3983.000000	47.364738
3982.000000	47.396914
3981.000000	47.427776
3980.000000	47.458715
3979.000000	47.490974
3978.000000	47.524861
3977.000000	47.559689
3976.000000	47.594418
3975.000000	47.628320
3974.000000	47.661115
3973.000000	47.692895
3972.000000	47.724190
3971.000000	47.755777
3970.000000	47.788117
3969.000000	47.821113
3968.000000	47.854365
3967.000000	47.887599
3966.000000	47.920730
3965.000000	47.953780
3964.000000	47.986671
3963.000000	48.019109
3962.000000	48.050666
3961.000000	48.081162
3960.000000	48.111090
3959.000000	48.141329
3958.000000	48.172217
3957.000000	48.203456
3956.000000	48.234751
3955.000000	48.266088
3954.000000	48.297230
3953.000000	48.327476
3952.000000	48.356176
3951.000000	48.383501
3950.000000	48.410598
3949.000000	48.438570
3948.000000	48.467306
3947.000000	48.495744
3946.000000	48.523851
3945.000000	48.553431
3944.000000	48.586470
3943.000000	48.623448
3942.000000	48.663826
3941.000000	48.707348
3940.000000	48.753626
3939.000000	48.800479
3938.000000	48.843901
3937.000000	48.880633
3936.000000	48.910085
3935.000000	48.933930
3934.000000	48.954439
3933.000000	48.974041
3932.000000	48.996005
3931.000000	49.023430
3930.000000	49.056942
3929.000000	49.094077
3928.000000	49.131644
3927.000000	49.168423
3926.000000	49.204451
3925.000000	49.238839
3924.000000	49.270628
3923.000000	49.300941
3922.000000	49.331393
3921.000000	49.361503
3920.000000	49.390443
3919.000000	49.420178
3918.000000	49.454171
3917.000000	49.493623
3916.000000	49.536857
3915.000000	49.582552
3914.000000	49.630626
3913.000000	49.679807
3912.000000	49.726528
3911.000000	49.767149
3910.000000	49.799345
3909.000000	49.822820
3908.000000	49.839613
3907.000000	49.853249
3906.000000	49.865624
3905.000000	49.875467
3904.000000	49.881097
3903.000000	49.885819
3902.000000	49.897897
3901.000000	49.923806
3900.000000	49.963253
3899.000000	50.010612
3898.000000	50.060090
3897.000000	50.108198
3896.000000	50.152746
3895.000000	50.194613
3894.000000	50.238017
3893.000000	50.285308
3892.000000	50.332368
3891.000000	50.372321
3890.000000	50.402985
3889.000000	50.430618
3888.000000	50.462072
3887.000000	50.495056
3886.000000	50.519416
3885.000000	50.529126
3884.000000	50.530872
3883.000000	50.538343
3882.000000	50.560540
3881.000000	50.597823
3880.000000	50.644214
3879.000000	50.692223
3878.000000	50.737385
3877.000000	50.777736
3876.000000	50.811804
3875.000000	50.839056
3874.000000	50.860648
3873.000000	50.881596
3872.000000	50.908521
3871.000000	50.940805
3870.000000	50.969433
3869.000000	50.989839
3868.000000	51.010315
3867.000000	51.041009
3866.000000	51.079495
3865.000000	51.116770
3864.000000	51.152064
3863.000000	51.192753
3862.000000	51.239955
3861.000000	51.284943
3860.000000	51.321894
3859.000000	51.358227
3858.000000	51.409384
3857.000000	51.485876
3856.000000	51.577406
3855.000000	51.648747
3854.000000	51.668079
3853.000000	51.649449
3852.000000	51.633506
3851.000000	51.638200
3850.000000	51.656349
3849.000000	51.680718
3848.000000	51.714254
3847.000000	51.759036
3846.000000	51.809399
3845.000000	51.855018
3844.000000	51.888380
3843.000000	51.909723
3842.000000	51.926660
3841.000000	51.950565
3840.000000	51.985808
3839.000000	52.024664
3838.000000	52.057543
3837.000000	52.084986
3836.000000	52.114138
3835.000000	52.149843
3834.000000	52.192489
3833.000000	52.240477
3832.000000	52.289732
3831.000000	52.335609
3830.000000	52.376958
3829.000000	52.415809
3828.000000	52.454033
3827.000000	52.490770
3826.000000	52.522691
3825.000000	52.550478
3824.000000	52.580213
3823.000000	52.613896
3822.000000	52.645100
3821.000000	52.668664
3820.000000	52.689313
3819.000000	52.721027
3818.000000	52.772467
3817.000000	52.833973
3816.000000	52.888552
3815.000000	52.931002
3814.000000	52.971121
3813.000000	53.015438
3812.000000	53.058547
3811.000000	53.098361
3810.000000	53.142512
3809.000000	53.193862
3808.000000	53.240956
3807.000000	53.268013
3806.000000	53.273367
3805.000000	53.274115
3804.000000	53.290182
3803.000000	53.324545
3802.000000	53.361518
3801.000000	53.385254
3800.000000	53.400109
3799.000000	53.423884
3798.000000	53.463989
3797.000000	53.515320
3796.000000	53.571787
3795.000000	53.630397
3794.000000	53.690102
3793.000000	53.747769
3792.000000	53.799482
3791.000000	53.845228
3790.000000	53.887126
3789.000000	53.924849
3788.000000	53.957479
3787.000000	53.987044
3786.000000	54.017060
3785.000000	54.047988
3784.000000	54.077204
3783.000000	54.104214
3782.000000	54.133069
3781.000000	54.168209
3780.000000	54.210546
3779.000000	54.257693
3778.000000	54.306484
3777.000000	54.355189
3776.000000	54.401845
3775.000000	54.443251
3774.000000	54.478221
3773.000000	54.510199
3772.000000	54.543391
3771.000000	54.576785
3770.000000	54.605041
3769.000000	54.627184
3768.000000	54.650074
3767.000000	54.681569
3766.000000	54.722344
3765.000000	54.765887
3764.000000	54.806084
3763.000000	54.842836
3762.000000	54.878018
3761.000000	54.910769
3760.000000	54.940040
3759.000000	54.968333
3758.000000	54.997939
3757.000000	55.027366
3756.000000	55.056845
3755.000000	55.091762
3754.000000	55.134255
3753.000000	55.177489
3752.000000	55.212674
3751.000000	55.239334
3750.000000	55.261303
3749.000000	55.277728
3748.000000	55.292743
3747.000000	55.325379
3746.000000	55.388081
3745.000000	55.462321
3744.000000	55.520006
3743.000000	55.556442
3742.000000	55.581979
3741.000000	55.600050
3740.000000	55.613482
3739.000000	55.631418
3738.000000	55.656921
3737.000000	55.683800
3736.000000	55.710664
3735.000000	55.750293
3734.000000	55.817814
3733.000000	55.910798
3732.000000	56.005623
3731.000000	56.079264
3730.000000	56.129565
3729.000000	56.168832
3728.000000	56.207701
3727.000000	56.248600
3726.000000	56.290297
3725.000000	56.334306
3724.000000	56.383457
3723.000000	56.436847
3722.000000	56.492163
3721.000000	56.549258
3720.000000	56.608067
3719.000000	56.666262
3718.000000	56.719227
3717.000000	56.762544
3716.000000	56.797495
3715.000000	56.830495
3714.000000	56.863721
3713.000000	56.893317
3712.000000	56.918981
3711.000000	56.950799
3710.000000	56.999184
3709.000000	57.062610
3708.000000	57.129520
3707.000000	57.189044
3706.000000	57.238996
3705.000000	57.284829
3704.000000	57.333654
3703.000000	57.389843
3702.000000	57.453023
3701.000000	57.517623
3700.000000	57.577016
3699.000000	57.628727
3698.000000	57.674401
3697.000000	57.713813
3696.000000	57.744354
3695.000000	57.766218
3694.000000	57.782791
3693.000000	57.799064
3692.000000	57.823199
3691.000000	57.865424
3690.000000	57.928998
3689.000000	58.004282
3688.000000	58.075021
3687.000000	58.131180
3686.000000	58.173385
3685.000000	58.207869
3684.000000	58.239614
3683.000000	58.270363
3682.000000	58.301122
3681.000000	58.331048
3680.000000	58.356919
3679.000000	58.378069
3678.000000	58.401215
3677.000000	58.433010
3676.000000	58.472449
3675.000000	58.513632
3674.000000	58.551712
3673.000000	58.586808
3672.000000	58.622049
3671.000000	58.664338
3670.000000	58.722171
3669.000000	58.798780
3668.000000	58.889129
3667.000000	58.978956
3666.000000	59.055085
3665.000000	59.117903
3664.000000	59.175035
3663.000000	59.230393
3662.000000	59.281770
3661.000000	59.324082
3660.000000	59.355593
3659.000000	59.381364
3658.000000	59.409181
3657.000000	59.441516
3656.000000	59.471365
3655.000000	59.488277
3654.000000	59.489486
3653.000000	59.481841
3652.000000	59.473820
3651.000000	59.467751
3650.000000	59.464441
3649.000000	59.475609
3648.000000	59.518706
3647.000000	59.593394
3646.000000	59.679308
3645.000000	59.758441
3644.000000	59.827556
3643.000000	59.891586
3642.000000	59.953852
3641.000000	60.013502
3640.000000	60.068081
3639.000000	60.114594
3638.000000	60.149456
3637.000000	60.172052
3636.000000	60.186737
3635.000000	60.198069
3634.000000	60.205601
3633.000000	60.207302
3632.000000	60.207071
3631.000000	60.213636
3630.000000	60.235071
3629.000000	60.276484
3628.000000	60.335703
3627.000000	60.400764
3626.000000	60.454411
3625.000000	60.484105
3624.000000	60.492859
3623.000000	60.493308
3622.000000	60.495070
3621.000000	60.501407
3620.000000	60.512734
3619.000000	60.530415
3618.000000	60.553072
3617.000000	60.574009
3616.000000	60.588672
3615.000000	60.600944
3614.000000	60.618123
3613.000000	60.642463
3612.000000	60.670537
3611.000000	60.698584
3610.000000	60.726841
3609.000000	60.760140
3608.000000	60.804057
3607.000000	60.859069
3606.000000	60.918456
3605.000000	60.971795
3604.000000	61.011921
3603.000000	61.039402
3602.000000	61.059735
3601.000000	61.076736
3600.000000	61.090130
3599.000000	61.098953
3598.000000	61.104223
3597.000000	61.109360
3596.000000	61.121637
3595.000000	61.148359
3594.000000	61.188393
3593.000000	61.230205
3592.000000	61.259142
3591.000000	61.267366
3590.000000	61.259384
3589.000000	61.250377
3588.000000	61.259648
3587.000000	61.299205
3586.000000	61.364264
3585.000000	61.437140
3584.000000	61.500570
3583.000000	61.548547
3582.000000	61.585986
3581.000000	61.619299
3580.000000	61.651027
3579.000000	61.681179
3578.000000	61.709641
3577.000000	61.736329
3576.000000	61.761636
3575.000000	61.786605
3574.000000	61.810547
3573.000000	61.828984
3572.000000	61.835108
3571.000000	61.824257
3570.000000	61.798228
3569.000000	61.767500
3568.000000	61.749721
3567.000000	61.762329
3566.000000	61.810066
3565.000000	61.881683
3564.000000	61.959472
3563.000000	62.031020
3562.000000	62.093479
3561.000000	62.149241
3560.000000	62.200717
3559.000000	62.248636
3558.000000	62.291780
3557.000000	62.327112
3556.000000	62.352475
3555.000000	62.370421
3554.000000	62.387655
3553.000000	62.409721
3552.000000	62.436467
3551.000000	62.462723
3550.000000	62.483039
3549.000000	62.496775
3548.000000	62.510088
3547.000000	62.533088
3546.000000	62.572373
3545.000000	62.625594
3544.000000	62.684088
3543.000000	62.739387
3542.000000	62.786431
3541.000000	62.823516
3540.000000	62.852347
3539.000000	62.878056
3538.000000	62.906572
3537.000000	62.940479
3536.000000	62.977665
3535.000000	63.013716
3534.000000	63.044667
3533.000000	63.068161
3532.000000	63.083898
3531.000000	63.093858
3530.000000	63.101314
3529.000000	63.109356
3528.000000	63.120612
3527.000000	63.137649
3526.000000	63.162772
3525.000000	63.196705
3524.000000	63.237612
3523.000000	63.281348
3522.000000	63.322963
3521.000000	63.359218
3520.000000	63.390151
3519.000000	63.417811
3518.000000	63.443632
3517.000000	63.467794
3516.000000	63.490515
3515.000000	63.511788
3514.000000	63.529613
3513.000000	63.541116
3512.000000	63.546681
3511.000000	63.551340
3510.000000	63.560527
3509.000000	63.574707
3508.000000	63.589103
3507.000000	63.598340
3506.000000	63.600641
3505.000000	63.598857
3504.000000	63.598850
3503.000000	63.605581
3502.000000	63.619400
3501.000000	63.636385
3500.000000	63.652501
3499.000000	63.666222
3498.000000	63.677034
3497.000000	63.683521
3496.000000	63.684411
3495.000000	63.680068
3494.000000	63.671231
3493.000000	63.657504
3492.000000	63.638856
3491.000000	63.617691
3490.000000	63.598066
3489.000000	63.583096
3488.000000	63.573031
3487.000000	63.564698
3486.000000	63.552493
3485.000000	63.531587
3484.000000	63.502042
3483.000000	63.469282
3482.000000	63.439164
3481.000000	63.412808
3480.000000	63.386428
3479.000000	63.355276
3478.000000	63.317291
3477.000000	63.274319
3476.000000	63.230848
3475.000000	63.190707
3474.000000	63.154362
3473.000000	63.119772
3472.000000	63.085352
3471.000000	63.050248
3470.000000	63.011663
3469.000000	62.964581
3468.000000	62.905416
3467.000000	62.834920
3466.000000	62.757180
3465.000000	62.677249
3464.000000	62.600151
3463.000000	62.529607
3462.000000	62.465371
3461.000000	62.402426
3460.000000	62.334070
3459.000000	62.256037
3458.000000	62.167939
3457.000000	62.072416
3456.000000	61.973731
3455.000000	61.875688
3454.000000	61.779837
3453.000000	61.685429
3452.000000	61.590784
3451.000000	61.494177
3450.000000	61.393657
3449.000000	61.287788
3448.000000	61.177214
3447.000000	61.064057
3446.000000	60.949347
3445.000000	60.832179
3444.000000	60.711784
3443.000000	60.589273
3442.000000	60.466851
3441.000000	60.346486
3440.000000	60.229488
3439.000000	60.115601
3438.000000	60.001469
3437.000000	59.880976
3436.000000	59.748197
3435.000000	59.600042
3434.000000	59.437169
3433.000000	59.263903
3432.000000	59.086577
3431.000000	58.910109
3430.000000	58.734954
3429.000000	58.558077
3428.000000	58.377103
3427.000000	58.191754
3426.000000	58.001897
3425.000000	57.806339
3424.000000	57.604067
3423.000000	57.395277
3422.000000	57.180448
3421.000000	56.960099
3420.000000	56.735728
3419.000000	56.509248
3418.000000	56.281360
3417.000000	56.051437
3416.000000	55.818988
3415.000000	55.583402
3414.000000	55.342049
3413.000000	55.090927
3412.000000	54.827543
3411.000000	54.552100
3410.000000	54.265714
3409.000000	53.968883
3408.000000	53.662655
3407.000000	53.349607
3406.000000	53.033161
3405.000000	52.716625
3404.000000	52.402126
3403.000000	52.088779
3402.000000	51.771058
3401.000000	51.440453
3400.000000	51.090190
3399.000000	50.718801
3398.000000	50.330589
3397.000000	49.933365
3396.000000	49.534429
3395.000000	49.137084
3394.000000	48.739810
3393.000000	48.338890
3392.000000	47.930983
3391.000000	47.513137
3390.000000	47.083063
3389.000000	46.640450
3388.000000	46.187275
3387.000000	45.725503
3386.000000	45.255371
3385.000000	44.777432
3384.000000	44.294127
3383.000000	43.808083
3382.000000	43.319857
3381.000000	42.828454
3380.000000	42.333167
3379.000000	41.833264
3378.000000	41.327287
3377.000000	40.814096
3376.000000	40.293589
3375.000000	39.766015
3374.000000	39.231792
3373.000000	38.692794
3372.000000	38.152141
3371.000000	37.611130
3370.000000	37.068090
3369.000000	36.520832
3368.000000	35.968793
3367.000000	35.412421
3366.000000	34.852334
3365.000000	34.290110
3364.000000	33.727734
3363.000000	33.165403
3362.000000	32.601720
3361.000000	32.036553
3360.000000	31.471803
3359.000000	30.908933
3358.000000	30.348118
3357.000000	29.790495
3356.000000	29.238605
3355.000000	28.693580
3354.000000	28.154137
3353.000000	27.618945
3352.000000	27.087596
3351.000000	26.558963
3350.000000	26.031187
3349.000000	25.504334
3348.000000	24.981025
3347.000000	24.463661
3346.000000	23.953481
3345.000000	23.452080
3344.000000	22.960978
3343.000000	22.479379
3342.000000	22.004659
3341.000000	21.535896
3340.000000	21.074209
3339.000000	20.619520
3338.000000	20.170207
3337.000000	19.726029
3336.000000	19.289086
3335.000000	18.861327
3334.000000	18.443558
3333.000000	18.037254
3332.000000	17.643769
3331.000000	17.261832
3330.000000	16.888264
3329.000000	16.521278
3328.000000	16.161408
3327.000000	15.809016
3326.000000	15.463999
3325.000000	15.127595
3324.000000	14.801304
3323.000000	14.484850
3322.000000	14.177113
3321.000000	13.878838
3320.000000	13.591759
3319.000000	13.315239
3318.000000	13.047341
3317.000000	12.787822
3316.000000	12.537387
3315.000000	12.295078
3314.000000	12.059061
3313.000000	11.829882
3312.000000	11.609405
3311.000000	11.397400
3310.000000	11.192768
3309.000000	10.996786
3308.000000	10.812569
3307.000000	10.641488
3306.000000	10.482813
3305.000000	10.336179
3304.000000	10.200466
3303.000000	10.072219
3302.000000	9.948230
3301.000000	9.828839
3300.000000	9.716264
3299.000000	9.610500
3298.000000	9.510581
3297.000000	9.418157
3296.000000	9.335640
3295.000000	9.262290
3294.000000	9.195238
3293.000000	9.133845
3292.000000	9.079529
3291.000000	9.031762
3290.000000	8.988420
3289.000000	8.948826
3288.000000	8.913557
3287.000000	8.882095
3286.000000	8.853488
3285.000000	8.828800
3284.000000	8.809345
3283.000000	8.793822
3282.000000	8.780120
3281.000000	8.768528
3280.000000	8.760245
3279.000000	8.753891
3278.000000	8.747111
3277.000000	8.740360
3276.000000	8.735545
3275.000000	8.732206
3274.000000	8.728588
3273.000000	8.725685
3272.000000	8.726641
3271.000000	8.732579
3270.000000	8.742024
3269.000000	8.753462
3268.000000	8.765524
3267.000000	8.775880
3266.000000	8.783141
3265.000000	8.789213
3264.000000	8.796960
3263.000000	8.806423
3262.000000	8.816058
3261.000000	8.826127
3260.000000	8.837874
3259.000000	8.850646
3258.000000	8.862945
3257.000000	8.875229
3256.000000	8.888620
3255.000000	8.902154
3254.000000	8.914315
3253.000000	8.926047
3252.000000	8.939221
3251.000000	8.953449
3250.000000	8.967454
3249.000000	8.982184
3248.000000	8.999247
3247.000000	9.017400
3246.000000	9.033877
3245.000000	9.048382
3244.000000	9.062809
3243.000000	9.077823
3242.000000	9.092662
3241.000000	9.107399
3240.000000	9.122530
3239.000000	9.137162
3238.000000	9.150201
3237.000000	9.162529
3236.000000	9.175767
3235.000000	9.189959
3234.000000	9.204610
3233.000000	9.220430
3232.000000	9.237605
3231.000000	9.253906
3230.000000	9.267150
3229.000000	9.278093
3228.000000	9.288589
3227.000000	9.298638
3226.000000	9.307770
3225.000000	9.317473
3224.000000	9.329230
3223.000000	9.341654
3222.000000	9.352277
3221.000000	9.360821
3220.000000	9.368217
3219.000000	9.374051
3218.000000	9.377693
3217.000000	9.380258
3216.000000	9.382808
3215.000000	9.384300
3214.000000	9.383908
3213.000000	9.383537
3212.000000	9.385159
3211.000000	9.387387
3210.000000	9.387607
3209.000000	9.385758
3208.000000	9.383185
3207.000000	9.379427
3206.000000	9.373171
3205.000000	9.365045
3204.000000	9.356553
3203.000000	9.347600
3202.000000	9.337624
3201.000000	9.327553
3200.000000	9.318065
3199.000000	9.307469
3198.000000	9.294066
3197.000000	9.279032
3196.000000	9.264306
3195.000000	9.249336
3194.000000	9.232536
3193.000000	9.214293
3192.000000	9.195864
3191.000000	9.176949
3190.000000	9.157094
3189.000000	9.137741
3188.000000	9.120151
3187.000000	9.102900
3186.000000	9.084058
3185.000000	9.064301
3184.000000	9.045279
3183.000000	9.026642
3182.000000	9.007265
3181.000000	8.987593
3180.000000	8.968191
3179.000000	8.947878
3178.000000	8.926033
3177.000000	8.904954
3176.000000	8.887125
3175.000000	8.871788
3174.000000	8.856844
3173.000000	8.842252
3172.000000	8.828801
3171.000000	8.815423
3170.000000	8.800646
3169.000000	8.785307
3168.000000	8.771185
3167.000000	8.758365
3166.000000	8.746420
3165.000000	8.736430
3164.000000	8.729297
3163.000000	8.723731
3162.000000	8.718259
3161.000000	8.713635
3160.000000	8.710899
3159.000000	8.708922
3158.000000	8.706247
3157.000000	8.703477
3156.000000	8.701691
3155.000000	8.700537
3154.000000	8.700206
3153.000000	8.703106
3152.000000	8.710809
3151.000000	8.721363
3150.000000	8.732039
3149.000000	8.742777
3148.000000	8.754562
3147.000000	8.766561
3146.000000	8.777662
3145.000000	8.788861
3144.000000	8.801480
3143.000000	8.814958
3142.000000	8.828806
3141.000000	8.844822
3140.000000	8.864774
3139.000000	8.887658
3138.000000	8.911748
3137.000000	8.937231
3136.000000	8.964384
3135.000000	8.991241
3134.000000	9.015844
3133.000000	9.039393
3132.000000	9.064626
3131.000000	9.092643
3130.000000	9.123345
3129.000000	9.156987
3128.000000	9.193137
3127.000000	9.229856
3126.000000	9.265979
3125.000000	9.302426
3124.000000	9.339579
3123.000000	9.375918
3122.000000	9.411156
3121.000000	9.448019
3120.000000	9.488592
3119.000000	9.531362
3118.000000	9.574412
3117.000000	9.618972
3116.000000	9.667073
3115.000000	9.718035
3114.000000	9.769888
3113.000000	9.822271
3112.000000	9.875310
3111.000000	9.927831
3110.000000	9.979343
3109.000000	10.031857
3108.000000	10.087301
3107.000000	10.144976
3106.000000	10.203629
3105.000000	10.263876
3104.000000	10.326149
3103.000000	10.388630
3102.000000	10.449818
3101.000000	10.511127
3100.000000	10.574532
3099.000000	10.639414
3098.000000	10.704136
3097.000000	10.768847
3096.000000	10.834377
3095.000000	10.900422
3094.000000	10.967052
3093.000000	11.036143
3092.000000	11.109043
3091.000000	11.184399
3090.000000	11.260213
3089.000000	11.336047
3088.000000	11.411523
3087.000000	11.485159
3086.000000	11.556852
3085.000000	11.629337
3084.000000	11.704758
3083.000000	11.781895
3082.000000	11.858993
3081.000000	11.937037
3080.000000	12.017922
3079.000000	12.101359
3078.000000	12.185973
3077.000000	12.271485
3076.000000	12.357452
3075.000000	12.441897
3074.000000	12.523645
3073.000000	12.604340
3072.000000	12.686077
3071.000000	12.768799
3070.000000	12.852074
3069.000000	12.937282
3068.000000	13.025577
3067.000000	13.115453
3066.000000	13.204675
3065.000000	13.293106
3064.000000	13.381540
3063.000000	13.469447
3062.000000	13.556094
3061.000000	13.642341
3060.000000	13.729274
3059.000000	13.816524
3058.000000	13.903746
3057.000000	13.992213
3056.000000	14.083039
3055.000000	14.175308
3054.000000	14.267701
3053.000000	14.360361
3052.000000	14.453422
3051.000000	14.545371
3050.000000	14.634754
3049.000000	14.722176
3048.000000	14.809110
3047.000000	14.896253
3046.000000	14.984435
3045.000000	15.075345
3044.000000	15.169653
3043.000000	15.265880
3042.000000	15.362416
3041.000000	15.458953
3040.000000	15.554721
3039.000000	15.647467
3038.000000	15.736045
3037.000000	15.822388
3036.000000	15.909403
3035.000000	15.998366
3034.000000	16.089466
3033.000000	16.183007
3032.000000	16.278586
3031.000000	16.374806
3030.000000	16.471024
3029.000000	16.567613
3028.000000	16.663656
3027.000000	16.756704
3026.000000	16.846141
3025.000000	16.934461
3024.000000	17.023830
3023.000000	17.113739
3022.000000	17.203587
3021.000000	17.294988
3020.000000	17.389366
3019.000000	17.485284
3018.000000	17.580229
3017.000000	17.673360
3016.000000	17.764812
3015.000000	17.854128
3014.000000	17.941341
3013.000000	18.028169
3012.000000	18.116458
3011.000000	18.206764
3010.000000	18.299481
3009.000000	18.395502
3008.000000	18.494346
3007.000000	18.593442
3006.000000	18.690699
3005.000000	18.786216
3004.000000	18.880348
3003.000000	18.972005
3002.000000	19.060299
3001.000000	19.146223
3000.000000	19.231490
2999.000000	19.317309
2998.000000	19.405169
2997.000000	19.496726
2996.000000	19.591625
2995.000000	19.687347
2994.000000	19.782403
2993.000000	19.877606
2992.000000	19.973113
2991.000000	20.066594
2990.000000	20.156017
2989.000000	20.242234
2988.000000	20.327323
2987.000000	20.412392
2986.000000	20.498503
2985.000000	20.587572
2984.000000	20.680394
2983.000000	20.775368
2982.000000	20.870698
2981.000000	20.966129
2980.000000	21.061105
2979.000000	21.153321
2978.000000	21.241104
2977.000000	21.325781
2976.000000	21.410083
2975.000000	21.495671
2974.000000	21.583561
2973.000000	21.675094
2972.000000	21.770572
2971.000000	21.868176
2970.000000	21.965708
2969.000000	22.062144
2968.000000	22.156356
2967.000000	22.246219
2966.000000	22.330692
2965.000000	22.411443
2964.000000	22.491085
2963.000000	22.571186
2962.000000	22.653118
2961.000000	22.738730
2960.000000	22.828460
2959.000000	22.920267
2958.000000	23.011764
2957.000000	23.101927
2956.000000	23.189798
2955.000000	23.273812
2954.000000	23.353964
2953.000000	23.432663
2952.000000	23.511911
2951.000000	23.591446
2950.000000	23.671158
2949.000000	23.753170
2948.000000	23.839658
2947.000000	23.930242
2946.000000	24.023116
2945.000000	24.117106
2944.000000	24.210903
2943.000000	24.301978
2942.000000	24.388301
2941.000000	24.470321
2940.000000	24.549887
2939.000000	24.628450
2938.000000	24.707460
2937.000000	24.788928
2936.000000	24.873801
2935.000000	24.960701
2934.000000	25.047558
2933.000000	25.133461
2932.000000	25.218022
2931.000000	25.300349
2930.000000	25.379766
2929.000000	25.456335
2928.000000	25.529865
2927.000000	25.600149
2926.000000	25.669064
2925.000000	25.740466
2924.000000	25.816620
2923.000000	25.896310
2922.000000	25.977394
2921.000000	26.059154
2920.000000	26.140993
2919.000000	26.220945
2918.000000	26.297212
2917.000000	26.369820
2916.000000	26.439728
2915.000000	26.507897
2914.000000	26.576147
2913.000000	26.647100
2912.000000	26.721920
2911.000000	26.799366
2910.000000	26.877799
2909.000000	26.956530
2908.000000	27.034484
2907.000000	27.109608
2906.000000	27.180908
2905.000000	27.249595
2904.000000	27.317146
2903.000000	27.383874
2902.000000	27.450420
2901.000000	27.518788
2900.000000	27.590581
2899.000000	27.665330
2898.000000	27.741688
2897.000000	27.818690
2896.000000	27.894775
2895.000000	27.967443
2894.000000	28.035461
2893.000000	28.100324
2892.000000	28.164389
2891.000000	28.228805
2890.000000	28.294187
2889.000000	28.361699
2888.000000	28.431957
2887.000000	28.503930
2886.000000	28.576162
2885.000000	28.648113
2884.000000	28.719373
2883.000000	28.788806
2882.000000	28.855627
2881.000000	28.920341
2880.000000	28.983804
2879.000000	29.046638
2878.000000	29.110534
2877.000000	29.178613
2876.000000	29.252702
2875.000000	29.330732
2874.000000	29.407858
2873.000000	29.479780
2872.000000	29.544802
2871.000000	29.604125
2870.000000	29.661107
2869.000000	29.719272
2868.000000	29.779923
2867.000000	29.842132
2866.000000	29.905281
2865.000000	29.970300
2864.000000	30.037982
2863.000000	30.107484
2862.000000	30.177211
2861.000000	30.245821
2860.000000	30.311746
2859.000000	30.373419
2858.000000	30.431082
2857.000000	30.487197
2856.000000	30.544199
2855.000000	30.603014
2854.000000	30.664266
2853.000000	30.729154
2852.000000	30.797961
2851.000000	30.868975
2850.000000	30.939765
2849.000000	31.008397
2848.000000	31.073028
2847.000000	31.132217
2846.000000	31.186749
2845.000000	31.239848
2844.000000	31.294740
2843.000000	31.353145
2842.000000	31.416345
2841.000000	31.485380
2840.000000	31.558760
2839.000000	31.631870
2838.000000	31.700533
2837.000000	31.764249
2836.000000	31.824801
2835.000000	31.883182
2834.000000	31.939451
2833.000000	31.994463
2832.000000	32.049952
2831.000000	32.107338
2830.000000	32.167665
2829.000000	32.231969
2828.000000	32.300420
2827.000000	32.371560
2826.000000	32.443383
2825.000000	32.514631
2824.000000	32.584327
2823.000000	32.651035
2822.000000	32.713878
2821.000000	32.773751
2820.000000	32.832562
2819.000000	32.891791
2818.000000	32.952494
2817.000000	33.015800
2816.000000	33.082166
2815.000000	33.150591
2814.000000	33.219450
2813.000000	33.287601
2812.000000	33.353937
2811.000000	33.416630
2810.000000	33.474068
2809.000000	33.526395
2808.000000	33.575470
2807.000000	33.623680
2806.000000	33.673260
2805.000000	33.725897
2804.000000	33.781971
2803.000000	33.840388
2802.000000	33.899661
2801.000000	33.958669
2800.000000	34.016038
2799.000000	34.069804
2798.000000	34.118708
2797.000000	34.163485
2796.000000	34.206296
2795.000000	34.249434
2794.000000	34.294981
2793.000000	34.344718
2792.000000	34.399166
2791.000000	34.456988
2790.000000	34.515977
2789.000000	34.574300
2788.000000	34.630530
2787.000000	34.683481
2786.000000	34.732965
2785.000000	34.780209
2784.000000	34.826822
2783.000000	34.873725
2782.000000	34.921488
2781.000000	34.970894
2780.000000	35.022297
2779.000000	35.074901
2778.000000	35.127342
2777.000000	35.178427
2776.000000	35.226748
2775.000000	35.270255
2774.000000	35.307251
2773.000000	35.337655
2772.000000	35.362635
2771.000000	35.383502
2770.000000	35.401424
2769.000000	35.417522
2768.000000	35.432437
2767.000000	35.445813
2766.000000	35.456778
2765.000000	35.464605
2764.000000	35.468551
2763.000000	35.467874
2762.000000	35.462574
2761.000000	35.453778
2760.000000	35.442952
2759.000000	35.431164
2758.000000	35.419571
2757.000000	35.409676
2756.000000	35.402280
2755.000000	35.396664
2754.000000	35.391304
2753.000000	35.384896
2752.000000	35.376160
2751.000000	35.363484
2750.000000	35.345576
2749.000000	35.321955
2748.000000	35.292395
2747.000000	35.256378
2746.000000	35.213762
2745.000000	35.165383
2744.000000	35.112212
2743.000000	35.054813
2742.000000	34.994232
2741.000000	34.932643
2740.000000	34.872533
2739.000000	34.815901
2738.000000	34.764925
2737.000000	34.722835
2736.000000	34.693075
2735.000000	34.678063
2734.000000	34.679664
2733.000000	34.699444
2732.000000	34.737814
2731.000000	34.793506
2730.000000	34.864277
2729.000000	34.948211
2728.000000	35.043228
2727.000000	35.146276
2726.000000	35.254319
2725.000000	35.365356
2724.000000	35.478385
2723.000000	35.592561
2722.000000	35.706762
2721.000000	35.819682
2720.000000	35.929710
2719.000000	36.035153
2718.000000	36.134975
2717.000000	36.228791
2716.000000	36.315888
2715.000000	36.395219
2714.000000	36.466543
2713.000000	36.530895
2712.000000	36.589445
2711.000000	36.642247
2710.000000	36.689003
2709.000000	36.729976
2708.000000	36.765510
2707.000000	36.795480
2706.000000	36.819724
2705.000000	36.838907
2704.000000	36.854034
2703.000000	36.865563
2702.000000	36.873892
2701.000000	36.879994
2700.000000	36.885011
2699.000000	36.889444
2698.000000	36.893320
2697.000000	36.896782
2696.000000	36.899707
2695.000000	36.901317
2694.000000	36.900906
2693.000000	36.898624
2692.000000	36.894998
2691.000000	36.890080
2690.000000	36.883828
2689.000000	36.876904
2688.000000	36.870243
2687.000000	36.864152
2686.000000	36.858474
2685.000000	36.853331
2684.000000	36.849018
2683.000000	36.845349
2682.000000	36.841771
2681.000000	36.837944
2680.000000	36.833788
2679.000000	36.829335
2678.000000	36.825155
2677.000000	36.822515
2676.000000	36.822639
2675.000000	36.825989
2674.000000	36.832630
2673.000000	36.842911
2672.000000	36.857153
2671.000000	36.875176
2670.000000	36.896609
2669.000000	36.921228
2668.000000	36.948679
2667.000000	36.978059
2666.000000	37.008201
2665.000000	37.038009
2664.000000	37.066201
2663.000000	37.091433
2662.000000	37.113151
2661.000000	37.131815
2660.000000	37.147931
2659.000000	37.161468
2658.000000	37.172517
2657.000000	37.181925
2656.000000	37.190650
2655.000000	37.199027
2654.000000	37.207352
2653.000000	37.216629
2652.000000	37.228123
2651.000000	37.242688
2650.000000	37.261084
2649.000000	37.284353
2648.000000	37.313520
2647.000000	37.349215
2646.000000	37.392048
2645.000000	37.442967
2644.000000	37.502268
2643.000000	37.569107
2642.000000	37.642219
2641.000000	37.720468
2640.000000	37.802446
2639.000000	37.885858
2638.000000	37.968363
2637.000000	38.048646
2636.000000	38.126082
2635.000000	38.199884
2634.000000	38.269202
2633.000000	38.333675
2632.000000	38.393241
2631.000000	38.447702
2630.000000	38.496781
2629.000000	38.540697
2628.000000	38.579911
2627.000000	38.614496
2626.000000	38.644479
2625.000000	38.670321
2624.000000	38.692907
2623.000000	38.713002
2622.000000	38.731020
2621.000000	38.747256
2620.000000	38.761569
2619.000000	38.773220
2618.000000	38.781299
2617.000000	38.785090
2616.000000	38.783991
2615.000000	38.777227
2614.000000	38.764327
2613.000000	38.745624
2612.000000	38.721789
2611.000000	38.693512
2610.000000	38.661792
2609.000000	38.628335
2608.000000	38.595240
2607.000000	38.564529
2606.000000	38.538359
2605.000000	38.519142
2604.000000	38.508742
2603.000000	38.507798
2602.000000	38.516548
2601.000000	38.535329
2600.000000	38.564183
2599.000000	38.602378
2598.000000	38.648684
2597.000000	38.702332
2596.000000	38.762511
2595.000000	38.827799
2594.000000	38.896670
2593.000000	38.967961
2592.000000	39.040834
2591.000000	39.114273
2590.000000	39.187364
2589.000000	39.259868
2588.000000	39.331909
2587.000000	39.403575
2586.000000	39.475159
2585.000000	39.547487
2584.000000	39.621499
2583.000000	39.697607
2582.000000	39.775914
2581.000000	39.856592
2580.000000	39.939528
2579.000000	40.023921
2578.000000	40.108750
2577.000000	40.193522
2576.000000	40.278013
2575.000000	40.361520
2574.000000	40.442979
2573.000000	40.521820
2572.000000	40.598140
2571.000000	40.672149
2570.000000	40.743884
2569.000000	40.813217
2568.000000	40.879778
2567.000000	40.942603
2566.000000	41.000402
2565.000000	41.052298
2564.000000	41.097543
2563.000000	41.135043
2562.000000	41.163280
2561.000000	41.180939
2560.000000	41.187403
2559.000000	41.182132
2558.000000	41.164974
2557.000000	41.136856
2556.000000	41.100120
2555.000000	41.058620
2554.000000	41.017617
2553.000000	40.983714
2552.000000	40.963679
2551.000000	40.962624
2550.000000	40.982781
2549.000000	41.024025
2548.000000	41.084186
2547.000000	41.159449
2546.000000	41.245588
2545.000000	41.338630
2544.000000	41.435380
2543.000000	41.532915
2542.000000	41.628491
2541.000000	41.720319
2540.000000	41.807652
2539.000000	41.890363
2538.000000	41.968683
2537.000000	42.043344
2536.000000	42.115157
2535.000000	42.184331
2534.000000	42.250387
2533.000000	42.313075
2532.000000	42.372896
2531.000000	42.430343
2530.000000	42.485454
2529.000000	42.538201
2528.000000	42.588918
2527.000000	42.637971
2526.000000	42.685268
2525.000000	42.730754
2524.000000	42.774858
2523.000000	42.818133
2522.000000	42.860759
2521.000000	42.902641
2520.000000	42.943783
2519.000000	42.984140
2518.000000	43.023411
2517.000000	43.061380
2516.000000	43.098111
2515.000000	43.133679
2514.000000	43.168039
2513.000000	43.201440
2512.000000	43.234601
2511.000000	43.268044
2510.000000	43.301672
2509.000000	43.335212
2508.000000	43.368583
2507.000000	43.401543
2506.000000	43.433404
2505.000000	43.463606
2504.000000	43.492226
2503.000000	43.519530
2502.000000	43.545587
2501.000000	43.570691
2500.000000	43.595739
2499.000000	43.621575
2498.000000	43.648205
2497.000000	43.675085
2496.000000	43.701790
2495.000000	43.727940
2494.000000	43.752918
2493.000000	43.776197
2492.000000	43.797793
2491.000000	43.817981
2490.000000	43.836951
2489.000000	43.855145
2488.000000	43.873444
2487.000000	43.892583
2486.000000	43.912659
2485.000000	43.933546
2484.000000	43.955252
2483.000000	43.977319
2482.000000	43.998452
2481.000000	44.017415
2480.000000	44.034032
2479.000000	44.048852
2478.000000	44.062265
2477.000000	44.074664
2476.000000	44.086990
2475.000000	44.100304
2474.000000	44.114985
2473.000000	44.130855
2472.000000	44.147811
2471.000000	44.165682
2470.000000	44.183670
2469.000000	44.200594
2468.000000	44.215659
2467.000000	44.228672
2466.000000	44.239830
2465.000000	44.249812
2464.000000	44.259816
2463.000000	44.270917
2462.000000	44.283525
2461.000000	44.297735
2460.000000	44.313813
2459.000000	44.331715
2458.000000	44.350457
2457.000000	44.368471
2456.000000	44.384499
2455.000000	44.397864
2454.000000	44.408372
2453.000000	44.416596
2452.000000	44.424049
2451.000000	44.432521
2450.000000	44.443311
2449.000000	44.457177
2448.000000	44.474440
2447.000000	44.494487
2446.000000	44.515497
2445.000000	44.535297
2444.000000	44.552434
2443.000000	44.566400
2442.000000	44.577404
2441.000000	44.586444
2440.000000	44.595138
2439.000000	44.604908
2438.000000	44.616564
2437.000000	44.630823
2436.000000	44.648479
2435.000000	44.669463
2434.000000	44.692167
2433.000000	44.714286
2432.000000	44.734013
2431.000000	44.750206
2430.000000	44.762320
2429.000000	44.771054
2428.000000	44.778572
2427.000000	44.787297
2426.000000	44.798709
2425.000000	44.813587
2424.000000	44.832551
2423.000000	44.855387
2422.000000	44.880279
2421.000000	44.904532
2420.000000	44.926007
2419.000000	44.943566
2418.000000	44.956924
2417.000000	44.966929
2416.000000	44.975625
2415.000000	44.985318
2414.000000	44.997708
2413.000000	45.014081
2412.000000	45.035405
2411.000000	45.061323
2410.000000	45.089621
2409.000000	45.117486
2408.000000	45.142934
2407.000000	45.164673
2406.000000	45.181660
2405.000000	45.194036
2404.000000	45.204040
2403.000000	45.214951
2402.000000	45.229314
2401.000000	45.248633
2400.000000	45.273743
2399.000000	45.304231
2398.000000	45.337781
2397.000000	45.371194
2396.000000	45.401890
2395.000000	45.428141
2394.000000	45.448802
2393.000000	45.464253
2392.000000	45.477236
2391.000000	45.491626
2390.000000	45.510397
2389.000000	45.535054
2388.000000	45.566270
2387.000000	45.603381
2386.000000	45.643661
2385.000000	45.683446
2384.000000	45.719624
2383.000000	45.750587
2382.000000	45.775799
2381.000000	45.796418
2380.000000	45.816138
2379.000000	45.839577
2378.000000	45.870780
2377.000000	45.912254
2376.000000	45.965001
2375.000000	46.027151
2374.000000	46.093880
2373.000000	46.159678
2372.000000	46.220487
2371.000000	46.273696
2370.000000	46.317088
2369.000000	46.350662
2368.000000	46.378040
2367.000000	46.404849
2366.000000	46.436052
2365.000000	46.474599
2364.000000	46.523567
2363.000000	46.583094
2362.000000	46.647217
2361.000000	46.711438
2360.000000	46.772945
2359.000000	46.827925
2358.000000	46.874927
2357.000000	46.913090
2356.000000	46.948661
2355.000000	46.987660
2354.000000	47.034655
2353.000000	47.093017
2352.000000	47.158580
2351.000000	47.224758
2350.000000	47.281395
2349.000000	47.323363
2348.000000	47.357901
2347.000000	47.398234
2346.000000	47.458601
2345.000000	47.530569
2344.000000	47.595493
2343.000000	47.641965
2342.000000	47.675572
2341.000000	47.712969
2340.000000	47.760678
2339.000000	47.820691
2338.000000	47.888073
2337.000000	47.957645
2336.000000	48.021763
2335.000000	48.076992
2334.000000	48.120927
2333.000000	48.158726
2332.000000	48.193426
2331.000000	48.232820
2330.000000	48.277709
2329.000000	48.328626
2328.000000	48.386455
2327.000000	48.448832
2326.000000	48.517093
2325.000000	48.586982
2324.000000	48.657397
2323.000000	48.724493
2322.000000	48.782437
2321.000000	48.829416
2320.000000	48.865069
2319.000000	48.897241
2318.000000	48.930016
2317.000000	48.969772
2316.000000	49.018987
2315.000000	49.081535
2314.000000	49.154682
2313.000000	49.232659
2312.000000	49.306869
2311.000000	49.371511
2310.000000	49.423233
2309.000000	49.462253
2308.000000	49.492551
2307.000000	49.520510
2306.000000	49.551824
2305.000000	49.590421
2304.000000	49.638685
2303.000000	49.697919
2302.000000	49.765233
2301.000000	49.835140
2300.000000	49.901010
2299.000000	49.958382
2298.000000	50.004256
2297.000000	50.038161
2296.000000	50.063406
2295.000000	50.085565
2294.000000	50.110582
2293.000000	50.142296
2292.000000	50.184069
2291.000000	50.236625
2290.000000	50.297235
2289.000000	50.359617
2288.000000	50.418006
2287.000000	50.468390
2286.000000	50.508468
2285.000000	50.537721
2284.000000	50.559108
2283.000000	50.578222
2282.000000	50.600471
2281.000000	50.629911
2280.000000	50.669384
2279.000000	50.719820
2278.000000	50.778003
2277.000000	50.837892
2276.000000	50.893697
2275.000000	50.941862
2274.000000	50.980255
2273.000000	51.008603
2272.000000	51.029967
2271.000000	51.049704
2270.000000	51.072582
2269.000000	51.101663
2268.000000	51.139175
2267.000000	51.185737
2266.000000	51.238315
2265.000000	51.291043
2264.000000	51.338681
2263.000000	51.377980
2262.000000	51.407113
2261.000000	51.425921
2260.000000	51.437632
2259.000000	51.447666
2258.000000	51.460278
2257.000000	51.477623
2256.000000	51.500738
2255.000000	51.529328
2254.000000	51.559682
2253.000000	51.585802
2252.000000	51.602555
2251.000000	51.607235
2250.000000	51.598507
2249.000000	51.576788
2248.000000	51.545599
2247.000000	51.510343
2246.000000	51.474708
2245.000000	51.439987
2244.000000	51.406684
2243.000000	51.374102
2242.000000	51.338621
2241.000000	51.294941
2240.000000	51.239597
2239.000000	51.172324
2238.000000	51.094919
2237.000000	51.011508
2236.000000	50.929676
2235.000000	50.858473
2234.000000	50.804435
2233.000000	50.770082
2232.000000	50.755250
2231.000000	50.757086
2230.000000	50.769118
2229.000000	50.783041
2228.000000	50.792579
2227.000000	50.794949
2226.000000	50.789380
2225.000000	50.777057
2224.000000	50.762319
2223.000000	50.751302
2222.000000	50.748391
2221.000000	50.754844
2220.000000	50.770110
2219.000000	50.792038
2218.000000	50.815773
2217.000000	50.834919
2216.000000	50.844847
2215.000000	50.844140
2214.000000	50.833666
2213.000000	50.816568
2212.000000	50.798815
2211.000000	50.787229
2210.000000	50.786005
2209.000000	50.796017
2208.000000	50.816305
2207.000000	50.844016
2206.000000	50.873276
2205.000000	50.896983
2204.000000	50.910487
2203.000000	50.912555
2202.000000	50.903843
2201.000000	50.887128
2200.000000	50.868632
2199.000000	50.856035
2198.000000	50.854190
2197.000000	50.863772
2196.000000	50.883130
2195.000000	50.908749
2194.000000	50.934184
2193.000000	50.951606
2192.000000	50.955760
2191.000000	50.945402
2190.000000	50.921879
2189.000000	50.888830
2188.000000	50.853117
2187.000000	50.822978
2186.000000	50.804184
2185.000000	50.798748
2184.000000	50.806321
2183.000000	50.824339
2182.000000	50.847039
2181.000000	50.867246
2180.000000	50.880111
2179.000000	50.884314
2178.000000	50.880692
2177.000000	50.872357
2176.000000	50.865759
2175.000000	50.868612
2174.000000	50.885891
2173.000000	50.918777
2172.000000	50.966236
2171.000000	51.024850
2170.000000	51.087523
2169.000000	51.145671
2168.000000	51.193730
2167.000000	51.230331
2166.000000	51.256081
2165.000000	51.273396
2164.000000	51.288283
2163.000000	51.308828
2162.000000	51.340678
2161.000000	51.385319
2160.000000	51.441764
2159.000000	51.506953
2158.000000	51.574508
2157.000000	51.636517
2156.000000	51.687785
2155.000000	51.727097
2154.000000	51.755173
2153.000000	51.774401
2152.000000	51.790409
2151.000000	51.810456
2150.000000	51.839230
2149.000000	51.877753
2148.000000	51.925630
2147.000000	51.981112
2146.000000	52.039194
2145.000000	52.092956
2144.000000	52.137936
2143.000000	52.173361
2142.000000	52.199981
2141.000000	52.219864
2140.000000	52.238382
2139.000000	52.262928
2138.000000	52.298528
2137.000000	52.346256
2136.000000	52.405026
2135.000000	52.471805
2134.000000	52.540279
2133.000000	52.602880
2132.000000	52.655218
2131.000000	52.696816
2130.000000	52.728210
2129.000000	52.750904
2128.000000	52.769844
2127.000000	52.792195
2126.000000	52.822667
2125.000000	52.862143
2124.000000	52.910068
2123.000000	52.964659
2122.000000	53.020903
2121.000000	53.072100
2120.000000	53.114363
2119.000000	53.147476
2118.000000	53.172233
2117.000000	53.190675
2116.000000	53.208721
2115.000000	53.234221
2114.000000	53.271259
2113.000000	53.318671
2112.000000	53.373672
2111.000000	53.433213
2110.000000	53.491877
2109.000000	53.542843
2108.000000	53.582407
2107.000000	53.611065
2106.000000	53.630285
2105.000000	53.641759
2104.000000	53.649782
2103.000000	53.660332
2102.000000	53.676520
2101.000000	53.697535
2100.000000	53.721644
2099.000000	53.746693
2098.000000	53.767751
2097.000000	53.778390
2096.000000	53.775372
2095.000000	53.759405
2094.000000	53.731999
2093.000000	53.695765
2092.000000	53.657639
2091.000000	53.627231
2090.000000	53.610598
2089.000000	53.608034
2088.000000	53.617537
2087.000000	53.636810
2086.000000	53.661487
2085.000000	53.685746
2084.000000	53.706384
2083.000000	53.723890
2082.000000	53.739622
2081.000000	53.755412
2080.000000	53.775742
2079.000000	53.806377
2078.000000	53.849551
2077.000000	53.903432
2076.000000	53.966046
2075.000000	54.035904
2074.000000	54.108989
2073.000000	54.179130
2072.000000	54.242754
2071.000000	54.300065
2070.000000	54.351095
2069.000000	54.395153
2068.000000	54.435697
2067.000000	54.481882
2066.000000	54.542972
2065.000000	54.622409
2064.000000	54.717033
2063.000000	54.819509
2062.000000	54.921292
2061.000000	55.016238
2060.000000	55.103064
2059.000000	55.183095
2058.000000	55.256400
2057.000000	55.323121
2056.000000	55.387301
2055.000000	55.455190
2054.000000	55.529707
2053.000000	55.609856
2052.000000	55.694723
2051.000000	55.783561
2050.000000	55.872118
2049.000000	55.953940
2048.000000	56.026380
2047.000000	56.091097
2046.000000	56.148601
2045.000000	56.197913
2044.000000	56.242638
2043.000000	56.291963
2042.000000	56.353750
2041.000000	56.429720
2040.000000	56.517345
2039.000000	56.612200
2038.000000	56.707957
2037.000000	56.798766
2036.000000	56.883532
2035.000000	56.964575
2034.000000	57.042360
2033.000000	57.115951
2032.000000	57.187688
2031.000000	57.262348
2030.000000	57.341618
2029.000000	57.424161
2028.000000	57.510530
2027.000000	57.602471
2026.000000	57.697439
2025.000000	57.789493
2024.000000	57.876072
2023.000000	57.957976
2022.000000	58.032364
2021.000000	58.093377
2020.000000	58.142297
2019.000000	58.191225
2018.000000	58.254290
2017.000000	58.337867
2016.000000	58.438609
2015.000000	58.547198
2014.000000	58.653412
2013.000000	58.751395
2012.000000	58.842611
2011.000000	58.931771
2010.000000	59.020145
2009.000000	59.106622
2008.000000	59.193436
2007.000000	59.284582
2006.000000	59.379664
2005.000000	59.475232
2004.000000	59.571325
2003.000000	59.670422
2002.000000	59.770953
2001.000000	59.868661
2000.000000	59.963740
1999.000000	60.060734
1998.000000	60.159225
1997.000000	60.249293
1996.000000	60.320356
1995.000000	60.372666
1994.000000	60.418904
1993.000000	60.477362
1992.000000	60.560121
1991.000000	60.661137
1990.000000	60.762719
1989.000000	60.856809
1988.000000	60.950006
1987.000000	61.047458
1986.000000	61.141718
1985.000000	61.222900
1984.000000	61.292568
1983.000000	61.358973
1982.000000	61.424318
1981.000000	61.485751
1980.000000	61.544565
1979.000000	61.605706
1978.000000	61.669282
1977.000000	61.730925
1976.000000	61.790283
1975.000000	61.850901
1974.000000	61.912159
1973.000000	61.968431
1972.000000	62.015185
1971.000000	62.049406
1970.000000	62.067753
1969.000000	62.075001
1968.000000	62.092691
1967.000000	62.144272
1966.000000	62.227100
1965.000000	62.314825
1964.000000	62.388891
1963.000000	62.450696
1962.000000	62.506534
1961.000000	62.557360
1960.000000	62.603379
1959.000000	62.646199
1958.000000	62.684259
1957.000000	62.716125
1956.000000	62.749081
1955.000000	62.793727
1954.000000	62.849230
1953.000000	62.904779
1952.000000	62.955327
1951.000000	63.002568
1950.000000	63.042680
1949.000000	63.067797
1948.000000	63.077733
1947.000000	63.078167
1946.000000	63.070259
1945.000000	63.055919
1944.000000	63.053508
1943.000000	63.092129
1942.000000	63.176911
1941.000000	63.274326
1940.000000	63.352519
1939.000000	63.410629
1938.000000	63.457210
1937.000000	63.492342
1936.000000	63.516777
1935.000000	63.538729
1934.000000	63.564179
1933.000000	63.592077
1932.000000	63.623194
1931.000000	63.660864
1930.000000	63.702601
1929.000000	63.741484
1928.000000	63.772835
1927.000000	63.789341
1926.000000	63.777772
1925.000000	63.738740
1924.000000	63.702729
1923.000000	63.706330
1922.000000	63.749358
1921.000000	63.803333
1920.000000	63.858929
1919.000000	63.926492
1918.000000	64.003067
1917.000000	64.063978
1916.000000	64.093857
1915.000000	64.108817
1914.000000	64.122720
1913.000000	64.123496
1912.000000	64.101502
1911.000000	64.074019
1910.000000	64.069402
1909.000000	64.099871
1908.000000	64.157410
1907.000000	64.226319
1906.000000	64.290481
1905.000000	64.341020
1904.000000	64.382058
1903.000000	64.421037
1902.000000	64.456487
1901.000000	64.481000
1900.000000	64.491751
1899.000000	64.489467
1898.000000	64.471789
1897.000000	64.443716
1896.000000	64.429876
1895.000000	64.451872
1894.000000	64.493111
1893.000000	64.514272
1892.000000	64.502834
1891.000000	64.483609
1890.000000	64.488783
1889.000000	64.522996
1888.000000	64.558282
1887.000000	64.574173
1886.000000	64.577256
1885.000000	64.581538
1884.000000	64.596453
1883.000000	64.622733
1882.000000	64.651091
1881.000000	64.671408
1880.000000	64.684226
1879.000000	64.697182
1878.000000	64.709611
1877.000000	64.714772
1876.000000	64.715452
1875.000000	64.716096
1874.000000	64.705054
1873.000000	64.666931
1872.000000	64.604964
1871.000000	64.530432
1870.000000	64.450725
1869.000000	64.395531
1868.000000	64.407148
1867.000000	64.481305
1866.000000	64.575376
1865.000000	64.652527
1864.000000	64.696874
1863.000000	64.713224
1862.000000	64.714288
1861.000000	64.709765
1860.000000	64.708550
1859.000000	64.718704
1858.000000	64.736353
1857.000000	64.747366
1856.000000	64.744450
1855.000000	64.731366
1854.000000	64.711346
1853.000000	64.680286
1852.000000	64.635955
1851.000000	64.585048
1850.000000	64.527585
1849.000000	64.457005
1848.000000	64.391193
1847.000000	64.374744
1846.000000	64.430033
1845.000000	64.524450
1844.000000	64.596616
1843.000000	64.594818
1842.000000	64.517182
1841.000000	64.418460
1840.000000	64.341136
1839.000000	64.287324
1838.000000	64.249691
1837.000000	64.235362
1836.000000	64.246786
1835.000000	64.258704
1834.000000	64.232738
1833.000000	64.147795
1832.000000	64.010798
1831.000000	63.857363
1830.000000	63.745413
1829.000000	63.693894
1828.000000	63.664800
1827.000000	63.649068
1826.000000	63.660965
1825.000000	63.694855
1824.000000	63.731197
1823.000000	63.753083
1822.000000	63.756179
1821.000000	63.734518
1820.000000	63.682068
1819.000000	63.605405
1818.000000	63.513143
1817.000000	63.410545
1816.000000	63.303703
1815.000000	63.195815
1814.000000	63.082832
1813.000000	62.966444
1812.000000	62.875468
1811.000000	62.845326
1810.000000	62.866165
1809.000000	62.889279
1808.000000	62.883757
1807.000000	62.847437
1806.000000	62.779305
1805.000000	62.677811
1804.000000	62.557283
1803.000000	62.443051
1802.000000	62.356436
1801.000000	62.312055
1800.000000	62.315694
1799.000000	62.342989
1798.000000	62.344434
1797.000000	62.292749
1796.000000	62.212608
1795.000000	62.147348
1794.000000	62.101466
1793.000000	62.052362
1792.000000	62.018780
1791.000000	62.023214
1790.000000	62.033540
1789.000000	62.030915
1788.000000	62.032988
1787.000000	62.049083
1786.000000	62.053348
1785.000000	62.002221
1784.000000	61.871185
1783.000000	61.678624
1782.000000	61.473548
1781.000000	61.301780
1780.000000	61.189052
1779.000000	61.119804
1778.000000	61.047321
1777.000000	60.940045
1776.000000	60.810117
1775.000000	60.696928
1774.000000	60.604227
1773.000000	60.502500
1772.000000	60.414182
1771.000000	60.371664
1770.000000	60.353621
1769.000000	60.343037
1768.000000	60.321239
1767.000000	60.259702
1766.000000	60.152387
1765.000000	60.038527
1764.000000	59.963811
1763.000000	59.933251
1762.000000	59.911682
1761.000000	59.842844
1760.000000	59.705700
1759.000000	59.553934
1758.000000	59.441952
1757.000000	59.360535
1756.000000	59.265620
1755.000000	59.146530
1754.000000	59.037466
1753.000000	58.943075
1752.000000	58.807789
1751.000000	58.591704
1750.000000	58.331237
1749.000000	58.102872
1748.000000	57.953736
1747.000000	57.864163
1746.000000	57.773296
1745.000000	57.643936
1744.000000	57.503329
1743.000000	57.406607
1742.000000	57.366421
1741.000000	57.342763
1740.000000	57.287332
1739.000000	57.175098
1738.000000	57.021364
1737.000000	56.887303
1736.000000	56.795873
1735.000000	56.659109
1734.000000	56.407707
1733.000000	56.064239
1732.000000	55.698490
1731.000000	55.445327
1730.000000	55.342321
1729.000000	55.304815
1728.000000	55.233985
1727.000000	55.101063
1726.000000	54.909708
1725.000000	54.655593
1724.000000	54.357660
1723.000000	54.053241
1722.000000	53.759290
1721.000000	53.471901
1720.000000	53.171798
1719.000000	52.824618
1718.000000	52.454443
1717.000000	52.152044
1716.000000	51.941123
1715.000000	51.787634
1714.000000	51.636780
1713.000000	51.426812
1712.000000	51.151669
1711.000000	50.848639
1710.000000	50.533051
1709.000000	50.190317
1708.000000	49.825427
1707.000000	49.469398
1706.000000	49.145559
1705.000000	48.868061
1704.000000	48.665662
1703.000000	48.592905
1702.000000	48.600389
1701.000000	48.426099
1700.000000	47.906170
1699.000000	47.245223
1698.000000	46.715504
1697.000000	46.435017
1696.000000	46.332850
1695.000000	46.210749
1694.000000	45.944010
1693.000000	45.612581
1692.000000	45.297895
1691.000000	44.982969
1690.000000	44.630119
1689.000000	44.254746
1688.000000	43.912699
1687.000000	43.640350
1686.000000	43.368937
1685.000000	42.982829
1684.000000	42.587643
1683.000000	42.313535
1682.000000	42.070773
1681.000000	41.850303
1680.000000	41.662804
1679.000000	41.503466
1678.000000	41.363440
1677.000000	41.203685
1676.000000	40.947360
1675.000000	40.569400
1674.000000	40.136601
1673.000000	39.731786
1672.000000	39.402656
1671.000000	39.140351
1670.000000	38.924317
1669.000000	38.741261
1668.000000	38.552842
1667.000000	38.343940
1666.000000	38.131860
1665.000000	37.902736
1664.000000	37.619355
1663.000000	37.292576
1662.000000	36.983708
1661.000000	36.713439
1660.000000	36.467910
1659.000000	36.237851
1658.000000	36.018253
1657.000000	35.819184
1656.000000	35.669044
1655.000000	35.522309
1654.000000	35.255067
1653.000000	34.905226
1652.000000	34.509484
1651.000000	34.060037
1650.000000	33.708102
1649.000000	33.438108
1648.000000	33.189616
1647.000000	32.999541
1646.000000	32.907852
1645.000000	32.804237
1644.000000	32.636052
1643.000000	32.448880
1642.000000	32.258960
1641.000000	32.034018
1640.000000	31.763617
1639.000000	31.489863
1638.000000	31.244164
1637.000000	31.007350
1636.000000	30.791877
1635.000000	30.636515
1634.000000	30.492968
1633.000000	30.336359
1632.000000	30.192911
1631.000000	30.059148
1630.000000	29.899683
1629.000000	29.689918
1628.000000	29.456856
1627.000000	29.251942
1626.000000	29.091013
1625.000000	28.943583
1624.000000	28.784516
1623.000000	28.637787
1622.000000	28.531023
1621.000000	28.455231
1620.000000	28.403279
1619.000000	28.366102
1618.000000	28.303804
1617.000000	28.186552
1616.000000	28.044410
1615.000000	27.923820
1614.000000	27.848691
1613.000000	27.809851
1612.000000	27.775778
1611.000000	27.732169
1610.000000	27.693545
1609.000000	27.674255
1608.000000	27.671377
1607.000000	27.676512
1606.000000	27.680531
1605.000000	27.666983
1604.000000	27.628661
1603.000000	27.585228
1602.000000	27.562367
1601.000000	27.563096
1600.000000	27.576104
1599.000000	27.597558
1598.000000	27.626965
1597.000000	27.655320
1596.000000	27.676381
1595.000000	27.697988
1594.000000	27.725762
1593.000000	27.748281
1592.000000	27.753575
1591.000000	27.748514
1590.000000	27.748672
1589.000000	27.759274
1588.000000	27.778363
1587.000000	27.808872
1586.000000	27.853339
1585.000000	27.901406
1584.000000	27.937349
1583.000000	27.958034
1582.000000	27.961964
1581.000000	27.937877
1580.000000	27.886650
1579.000000	27.832471
1578.000000	27.786942
1577.000000	27.738110
1576.000000	27.692849
1575.000000	27.665402
1574.000000	27.659658
1573.000000	27.685648
1572.000000	27.724208
1571.000000	27.726968
1570.000000	27.684268
1569.000000	27.640151
1568.000000	27.605776
1567.000000	27.577632
1566.000000	27.565788
1565.000000	27.566278
1564.000000	27.579872
1563.000000	27.644743
1562.000000	27.791126
1561.000000	27.954185
1560.000000	27.931452
1559.000000	27.847364
1558.000000	27.985597
1557.000000	28.139565
1556.000000	28.253571
1555.000000	28.397066
1554.000000	28.562115
1553.000000	28.701786
1552.000000	28.818080
1551.000000	28.960832
1550.000000	29.162220
1549.000000	29.404465
1548.000000	29.640287
1547.000000	29.844809
1546.000000	30.003629
1545.000000	30.107732
1544.000000	30.186954
1543.000000	30.282123
1542.000000	30.393318
1541.000000	30.542844
1540.000000	30.861111
1539.000000	31.318395
1538.000000	31.684952
1537.000000	31.940665
1536.000000	32.185602
1535.000000	32.456140
1534.000000	32.750501
1533.000000	33.073550
1532.000000	33.393851
1531.000000	33.678507
1530.000000	33.946252
1529.000000	34.219539
1528.000000	34.515509
1527.000000	34.856160
1526.000000	35.235233
1525.000000	35.605411
1524.000000	35.951921
1523.000000	36.324137
1522.000000	36.789872
1521.000000	37.327215
1520.000000	37.785096
1519.000000	38.116876
1518.000000	38.445929
1517.000000	38.885631
1516.000000	39.436664
1515.000000	40.006948
1514.000000	40.545582
1513.000000	41.039487
1512.000000	41.449972
1511.000000	41.757672
1510.000000	41.990801
1509.000000	42.194549
1508.000000	42.456957
1507.000000	43.085348
1506.000000	44.078233
1505.000000	44.839181
1504.000000	45.229084
1503.000000	45.532688
1502.000000	45.905250
1501.000000	46.335631
1500.000000	46.761730
1499.000000	47.179758
1498.000000	47.635638
1497.000000	48.148611
1496.000000	48.654114
1495.000000	49.058125
1494.000000	49.350996
1493.000000	49.584833
1492.000000	49.787598
1491.000000	49.977149
1490.000000	50.231473
1489.000000	50.615530
1488.000000	51.086894
1487.000000	51.570754
1486.000000	52.006381
1485.000000	52.342960
1484.000000	52.571987
1483.000000	52.742830
1482.000000	52.904884
1481.000000	53.063835
1480.000000	53.205559
1479.000000	53.331292
1478.000000	53.431026
1477.000000	53.473828
1476.000000	53.464388
1475.000000	53.448554
1474.000000	53.444754
1473.000000	53.447949
1472.000000	53.452460
1471.000000	53.392978
1470.000000	53.212917
1469.000000	52.936543
1468.000000	52.609137
1467.000000	52.250558
1466.000000	51.835967
1465.000000	51.333047
1464.000000	50.758671
1463.000000	50.148715
1462.000000	49.511479
1461.000000	48.832966
1460.000000	48.110293
1459.000000	47.338371
1458.000000	46.474658
1457.000000	45.501856
1456.000000	44.450766
1455.000000	43.397356
1454.000000	42.392402
1453.000000	41.354021
1452.000000	40.210043
1451.000000	38.969433
1450.000000	37.615699
1449.000000	36.070448
1448.000000	34.342619
1447.000000	32.571811
1446.000000	30.841372
1445.000000	29.110348
1444.000000	27.349946
1443.000000	25.578325
1442.000000	23.794356
1441.000000	22.018640
1440.000000	20.340675
1439.000000	18.779019
1438.000000	17.141266
1437.000000	15.251780
1436.000000	13.351649
1435.000000	11.850765
1434.000000	10.777400
1433.000000	9.915908
1432.000000	9.169784
1431.000000	8.567535
1430.000000	8.108337
1429.000000	7.760234
1428.000000	7.563916
1427.000000	7.566093
1426.000000	7.715540
1425.000000	7.944711
1424.000000	8.283829
1423.000000	8.779944
1422.000000	9.388802
1421.000000	10.059583
1420.000000	10.833419
1419.000000	11.755512
1418.000000	12.743218
1417.000000	13.703201
1416.000000	14.678911
1415.000000	15.730533
1414.000000	16.823403
1413.000000	17.911423
1412.000000	19.023121
1411.000000	20.196228
1410.000000	21.397963
1409.000000	22.586391
1408.000000	23.782121
1407.000000	25.024033
1406.000000	26.318875
1405.000000	27.659799
1404.000000	29.026566
1403.000000	30.357569
1402.000000	31.604647
1401.000000	32.799559
1400.000000	34.009120
1399.000000	35.236605
1398.000000	36.422459
1397.000000	37.571146
1396.000000	38.785339
1395.000000	40.129802
1394.000000	41.525945
1393.000000	42.839656
1392.000000	44.034182
1391.000000	45.153718
1390.000000	46.233429
1389.000000	47.288937
1388.000000	48.325376
1387.000000	49.313838
1386.000000	50.196429
1385.000000	50.955032
1384.000000	51.624227
1383.000000	52.218327
1382.000000	52.711133
1381.000000	53.075515
1380.000000	53.283848
1379.000000	53.279418
1378.000000	52.993955
1377.000000	52.382177
1376.000000	51.405842
1375.000000	50.042480
1374.000000	48.349281
1373.000000	46.457457
1372.000000	44.503393
1371.000000	42.614495
1370.000000	40.948997
1369.000000	39.712323
1368.000000	39.088891
1367.000000	39.134466
1366.000000	39.771382
1365.000000	40.877311
1364.000000	42.345185
1363.000000	44.074253
1362.000000	45.918290
1361.000000	47.693125
1360.000000	49.264206
1359.000000	50.581678
1358.000000	51.634959
1357.000000	52.410600
1356.000000	52.875661
1355.000000	52.988390
1354.000000	52.720594
1353.000000	52.061858
1352.000000	51.018132
1351.000000	49.612038
1350.000000	47.890878
1349.000000	45.919045
1348.000000	43.747427
1347.000000	41.406186
1346.000000	38.918921
1345.000000	36.316664
1344.000000	33.647068
1343.000000	30.964472
1342.000000	28.311231
1341.000000	25.732600
1340.000000	23.325181
1339.000000	21.237282
1338.000000	19.587665
1337.000000	18.394919
1336.000000	17.596202
1335.000000	17.091887
1334.000000	16.750872
1333.000000	16.420354
1332.000000	15.962871
1331.000000	15.292184
1330.000000	14.384572
1329.000000	13.270965
1328.000000	12.028148
1327.000000	10.759540
1326.000000	9.559622
1325.000000	8.491568
1324.000000	7.596017
1323.000000	6.899821
1322.000000	6.400845
1321.000000	6.064581
1320.000000	5.851295
1319.000000	5.729253
1318.000000	5.663686
1317.000000	5.616528
1316.000000	5.565652
1315.000000	5.510907
1314.000000	5.453901
1313.000000	5.391741
1312.000000	5.331755
1311.000000	5.290104
1310.000000	5.272530
1309.000000	5.273143
1308.000000	5.295566
1307.000000	5.355701
1306.000000	5.460547
1305.000000	5.604590
1304.000000	5.787561
1303.000000	6.016708
1302.000000	6.289704
1301.000000	6.593029
1300.000000	6.921288
1299.000000	7.278906
1298.000000	7.662715
1297.000000	8.061064
1296.000000	8.469241
1295.000000	8.890219
1294.000000	9.318993
1293.000000	9.742816
1292.000000	10.157072
1291.000000	10.565287
1290.000000	10.962598
1289.000000	11.333800
1288.000000	11.665635
1287.000000	11.945649
1286.000000	12.153257
1285.000000	12.268989
1284.000000	12.299391
1283.000000	12.284608
1282.000000	12.279584
1281.000000	12.334984
1280.000000	12.489872
1279.000000	12.761872
1278.000000	13.137768
1277.000000	13.586247
1276.000000	14.080513
1275.000000	14.603535
1274.000000	15.138903
1273.000000	15.670818
1272.000000	16.193364
1271.000000	16.706255
1270.000000	17.202969
1269.000000	17.673849
1268.000000	18.118582
1267.000000	18.545449
1266.000000	18.960836
1265.000000	19.368122
1264.000000	19.773953
1263.000000	20.186300
1262.000000	20.605809
1261.000000	21.027399
1260.000000	21.447780
1259.000000	21.863503
1258.000000	22.265961
1257.000000	22.646704
1256.000000	23.006647
1255.000000	23.353964
1254.000000	23.695757
1253.000000	24.037547
1252.000000	24.386963
1251.000000	24.750590
1250.000000	25.127834
1249.000000	25.512084
1248.000000	25.895884
1247.000000	26.271304
1246.000000	26.629162
1245.000000	26.963590
1244.000000	27.276526
1243.000000	27.575255
1242.000000	27.867332
1241.000000	28.160400
1240.000000	28.463239
1239.000000	28.781736
1238.000000	29.114662
1237.000000	29.455224
1236.000000	29.794836
1235.000000	30.124106
1234.000000	30.433796
1233.000000	30.719149
1232.000000	30.982609
1231.000000	31.231751
1230.000000	31.476495
1229.000000	31.727701
1228.000000	31.995103
1227.000000	32.283698
1226.000000	32.592124
1225.000000	32.914253
1224.000000	33.240350
1223.000000	33.557757
1222.000000	33.854773
1221.000000	34.126279
1220.000000	34.375421
1219.000000	34.610886
1218.000000	34.844440
1217.000000	35.088934
1216.000000	35.354135
1215.000000	35.642822
1214.000000	35.951059
1213.000000	36.270711
1212.000000	36.590004
1211.000000	36.894449
1210.000000	37.172342
1209.000000	37.420234
1208.000000	37.642953
1207.000000	37.851046
1206.000000	38.059094
1205.000000	38.282722
1204.000000	38.532522
1203.000000	38.809930
1202.000000	39.108600
1201.000000	39.416667
1200.000000	39.717558
1199.000000	39.993038
1198.000000	40.229986
1197.000000	40.424339
1196.000000	40.577313
1195.000000	40.693484
1194.000000	40.781289
1193.000000	40.848663
1192.000000	40.895655
1191.000000	40.911808
1190.000000	40.885895
1189.000000	40.816419
1188.000000	40.714465
1187.000000	40.603152
1186.000000	40.514301
1185.000000	40.478835
1184.000000	40.515664
1183.000000	40.629778
1182.000000	40.817442
1181.000000	41.072760
1180.000000	41.386603
1179.000000	41.743960
1178.000000	42.127155
1177.000000	42.516578
1176.000000	42.890097
1175.000000	43.226918
1174.000000	43.516150
1173.000000	43.759708
1172.000000	43.967200
1171.000000	44.153105
1170.000000	44.338193
1169.000000	44.544991
1168.000000	44.786283
1167.000000	45.061124
1166.000000	45.360469
1165.000000	45.670476
1164.000000	45.970924
1163.000000	46.239927
1162.000000	46.466221
1161.000000	46.653073
1160.000000	46.810924
1159.000000	46.953924
1158.000000	47.102370
1157.000000	47.278134
1156.000000	47.492377
1155.000000	47.741319
1154.000000	48.013454
1153.000000	48.293158
1152.000000	48.558537
1151.000000	48.787120
1150.000000	48.969341
1149.000000	49.111772
1148.000000	49.226879
1147.000000	49.328933
1146.000000	49.438685
1145.000000	49.578638
1144.000000	49.758742
1143.000000	49.972103
1142.000000	50.204959
1141.000000	50.442348
1140.000000	50.664465
1139.000000	50.850747
1138.000000	50.993234
1137.000000	51.099941
1136.000000	51.184796
1135.000000	51.262778
1134.000000	51.354036
1133.000000	51.479407
1132.000000	51.646672
1131.000000	51.847342
1130.000000	52.066929
1129.000000	52.290188
1128.000000	52.497468
1127.000000	52.669254
1126.000000	52.799780
1125.000000	52.899011
1124.000000	52.981362
1123.000000	53.061368
1122.000000	53.158276
1121.000000	53.290707
1120.000000	53.462291
1119.000000	53.660709
1118.000000	53.870902
1117.000000	54.079733
1116.000000	54.269537
1115.000000	54.422102
1114.000000	54.534061
1113.000000	54.618864
1112.000000	54.692668
1111.000000	54.768916
1110.000000	54.864686
1109.000000	54.996598
1108.000000	55.165746
1107.000000	55.356655
1106.000000	55.552099
1105.000000	55.738638
1104.000000	55.899561
1103.000000	56.018732
1102.000000	56.095648
1101.000000	56.147137
1100.000000	56.191138
1099.000000	56.241799
1098.000000	56.317292
1097.000000	56.434394
1096.000000	56.593314
1095.000000	56.776964
1094.000000	56.967555
1093.000000	57.152686
1092.000000	57.317492
1091.000000	57.447503
1090.000000	57.543739
1089.000000	57.622997
1088.000000	57.701603
1087.000000	57.790590
1086.000000	57.904260
1085.000000	58.056252
1084.000000	58.243148
1083.000000	58.444376
1082.000000	58.640004
1081.000000	58.817710
1080.000000	58.964384
1079.000000	59.068473
1078.000000	59.134913
1077.000000	59.183313
1076.000000	59.230307
1075.000000	59.285378
1074.000000	59.360111
1073.000000	59.464187
1072.000000	59.587985
1071.000000	59.703887
1070.000000	59.786344
1069.000000	59.817638
1068.000000	59.779238
1067.000000	59.655083
1066.000000	59.450260
1065.000000	59.194000
1064.000000	58.923093
1063.000000	58.675752
1062.000000	58.496172
1061.000000	58.423586
1060.000000	58.469084
1059.000000	58.614431
1058.000000	58.830212
1057.000000	59.087541
1056.000000	59.355340
1055.000000	59.604711
1054.000000	59.826672
1053.000000	60.031533
1052.000000	60.230718
1051.000000	60.430516
1050.000000	60.641169
1049.000000	60.873378
1048.000000	61.121683
1047.000000	61.366069
1046.000000	61.591688
1045.000000	61.794132
1044.000000	61.966841
1043.000000	62.102657
1042.000000	62.209376
1041.000000	62.307664
1040.000000	62.412256
1039.000000	62.528220
1038.000000	62.663623
1037.000000	62.827592
1036.000000	63.013643
1035.000000	63.201250
1034.000000	63.375857
1033.000000	63.534103
1032.000000	63.670669
1031.000000	63.778342
1030.000000	63.863652
1029.000000	63.945323
1028.000000	64.035154
1027.000000	64.134772
1026.000000	64.249663
1025.000000	64.388050
1024.000000	64.544205
1023.000000	64.699642
1022.000000	64.843503
1021.000000	64.976460
1020.000000	65.095159
1019.000000	65.191306
1018.000000	65.268518
1017.000000	65.342797
1016.000000	65.423686
1015.000000	65.510770
1014.000000	65.607922
1013.000000	65.723121
1012.000000	65.852581
1011.000000	65.981769
1010.000000	66.103643
1009.000000	66.220939
1008.000000	66.330690
1007.000000	66.424124
1006.000000	66.503156
1005.000000	66.580431
1004.000000	66.661737
1003.000000	66.743778
1002.000000	66.829227
1001.000000	66.926668
1000.000000	67.034785
999.000000	67.142467
998.000000	67.245855
997.000000	67.349616
996.000000	67.451208
995.000000	67.540682
994.000000	67.617604
993.000000	67.691897
992.000000	67.767019
991.000000	67.838239
990.000000	67.907868
989.000000	67.985696
988.000000	68.072768
987.000000	68.160712
986.000000	68.247524
985.000000	68.338288
984.000000	68.429549
983.000000	68.509703
982.000000	68.576478
981.000000	68.638097
980.000000	68.696708
979.000000	68.747281
978.000000	68.793104
977.000000	68.845613
976.000000	68.907664
975.000000	68.972401
974.000000	69.039100
973.000000	69.113184
972.000000	69.190314
971.000000	69.257153
970.000000	69.309399
969.000000	69.353299
968.000000	69.389687
967.000000	69.414116
966.000000	69.432937
965.000000	69.461672
964.000000	69.506094
963.000000	69.560345
962.000000	69.622675
961.000000	69.695690
960.000000	69.770637
959.000000	69.829993
958.000000	69.867200
957.000000	69.888469
956.000000	69.896096
955.000000	69.888290
954.000000	69.875545
953.000000	69.877936
952.000000	69.904174
951.000000	69.948739
950.000000	70.008264
949.000000	70.081878
948.000000	70.155259
947.000000	70.204416
946.000000	70.219156
945.000000	70.206552
944.000000	70.173029
943.000000	70.122108
942.000000	70.069490
941.000000	70.039741
940.000000	70.043993
939.000000	70.075953
938.000000	70.128059
937.000000	70.193304
936.000000	70.251399
935.000000	70.273916
934.000000	70.248259
933.000000	70.182390
932.000000	70.087390
931.000000	69.974454
930.000000	69.866882
929.000000	69.793247
928.000000	69.763879
927.000000	69.767915
926.000000	69.791899
925.000000	69.822070
924.000000	69.830745
923.000000	69.783663
922.000000	69.666878
921.000000	69.492672
920.000000	69.280229
919.000000	69.049402
918.000000	68.830290
917.000000	68.654081
916.000000	68.529292
915.000000	68.439105
914.000000	68.360829
913.000000	68.272030
912.000000	68.139651
911.000000	67.928855
910.000000	67.628917
909.000000	67.257519
908.000000	66.840904
907.000000	66.404767
906.000000	65.981619
905.000000	65.601109
904.000000	65.266321
903.000000	64.953594
902.000000	64.632679
901.000000	64.274943
900.000000	63.845909
899.000000	63.314473
898.000000	62.677145
897.000000	61.957580
896.000000	61.186123
895.000000	60.390840
894.000000	59.601349
893.000000	58.840712
892.000000	58.105101
891.000000	57.364949
890.000000	56.585864
889.000000	55.738232
888.000000	54.795742
887.000000	53.741660
886.000000	52.583567
885.000000	51.350544
884.000000	50.072988
883.000000	48.775171
882.000000	47.476800
881.000000	46.187962
880.000000	44.901555
879.000000	43.598424
878.000000	42.261909
877.000000	40.882277
876.000000	39.455462
875.000000	37.988328
874.000000	36.504584
873.000000	35.037514
872.000000	33.617563
871.000000	32.267635
870.000000	31.002300
869.000000	29.828398
868.000000	28.743359
867.000000	27.738389
866.000000	26.803737
865.000000	25.929473
864.000000	25.109548
863.000000	24.341498
862.000000	23.625530
861.000000	22.964781
860.000000	22.362590
859.000000	21.822127
858.000000	21.342453
857.000000	20.918282
856.000000	20.544578
855.000000	20.215929
854.000000	19.926208
853.000000	19.669146
852.000000	19.442065
851.000000	19.248690
850.000000	19.094501
849.000000	18.985730
848.000000	18.930245
847.000000	18.936281
846.000000	19.010560
845.000000	19.155135
844.000000	19.370788
843.000000	19.658495
842.000000	20.016031
841.000000	20.438650
840.000000	20.920566
839.000000	21.460249
838.000000	22.059552
837.000000	22.719544
836.000000	23.439760
835.000000	24.219614
834.000000	25.052859
833.000000	25.910942
832.000000	26.719010
831.000000	27.307392
830.000000	27.369827
829.000000	26.500234
828.000000	24.418182
827.000000	21.311346
826.000000	17.955493
825.000000	15.378205
824.000000	14.272745
823.000000	14.663902
822.000000	16.078109
821.000000	17.968858
820.000000	19.965557
819.000000	21.873219
818.000000	23.606934
817.000000	25.152494
816.000000	26.539725
815.000000	27.798215
814.000000	28.945217
813.000000	30.002685
812.000000	30.996778
811.000000	31.939199
810.000000	32.830251
809.000000	33.678205
808.000000	34.493495
807.000000	35.274299
806.000000	36.012998
805.000000	36.713841
804.000000	37.385666
803.000000	38.023994
802.000000	38.621867
801.000000	39.189875
800.000000	39.749601
799.000000	40.314325
798.000000	40.890367
797.000000	41.487419
796.000000	42.108662
795.000000	42.738786
794.000000	43.357021
793.000000	43.953511
792.000000	44.521813
791.000000	45.049762
790.000000	45.534789
789.000000	45.997135
788.000000	46.462870
787.000000	46.944018
786.000000	47.445196
785.000000	47.973893
784.000000	48.528360
783.000000	49.086538
782.000000	49.621918
781.000000	50.121119
780.000000	50.576992
779.000000	50.981547
778.000000	51.340481
777.000000	51.681702
776.000000	52.034730
775.000000	52.411171
774.000000	52.813481
773.000000	53.245225
772.000000	53.698862
771.000000	54.147482
770.000000	54.563040
769.000000	54.933194
768.000000	55.252618
767.000000	55.516692
766.000000	55.737140
765.000000	55.947519
764.000000	56.179269
763.000000	56.442899
762.000000	56.739238
761.000000	57.069648
760.000000	57.422107
759.000000	57.764716
758.000000	58.068353
757.000000	58.324689
756.000000	58.535176
755.000000	58.702255
754.000000	58.844017
753.000000	58.998047
752.000000	59.194918
751.000000	59.439657
750.000000	59.725452
749.000000	60.045511
748.000000	60.380162
747.000000	60.693165
746.000000	60.956946
745.000000	61.168526
744.000000	61.333998
743.000000	61.459126
742.000000	61.565736
741.000000	61.693793
740.000000	61.869987
739.000000	62.088931
738.000000	62.333373
737.000000	62.590713
736.000000	62.838610
735.000000	63.039055
734.000000	63.165956
733.000000	63.223185
732.000000	63.226330
731.000000	63.189194
730.000000	63.139109
729.000000	63.118731
728.000000	63.154090
727.000000	63.237400
726.000000	63.350118
725.000000	63.481637
724.000000	63.615300
723.000000	63.722784
722.000000	63.791411
721.000000	63.839451
720.000000	63.892272
719.000000	63.964905
718.000000	64.079019
717.000000	64.268791
716.000000	64.548770
715.000000	64.894533
714.000000	65.269116
713.000000	65.646776
712.000000	65.999320
711.000000	66.289308
710.000000	66.500342
709.000000	66.654432
708.000000	66.785556
707.000000	66.918590
706.000000	67.082553
705.000000	67.312415
704.000000	67.616283
703.000000	67.959908
702.000000	68.300071
701.000000	68.611302
700.000000	68.868942
699.000000	69.043108
698.000000	69.131551
697.000000	69.174056
696.000000	69.217154
695.000000	69.285966
694.000000	69.403112
693.000000	69.597911
692.000000	69.868905
691.000000	70.169609
690.000000	70.452835
689.000000	70.701971
688.000000	70.903479
687.000000	71.027637
686.000000	71.069886
685.000000	71.077497
684.000000	71.105555
683.000000	71.177368
682.000000	71.308106
681.000000	71.522718
680.000000	71.816057
679.000000	72.131687
678.000000	72.414848
677.000000	72.646968
676.000000	72.812513
675.000000	72.896193
674.000000	72.917636
673.000000	72.926202
672.000000	72.954835
671.000000	73.018721
670.000000	73.168376
669.000000	73.512411
668.000000	74.057378
667.000000	74.520024
666.000000	74.700539
665.000000	74.707662
664.000000	74.677658
663.000000	74.652654
662.000000	74.634599
661.000000	74.636810
660.000000	74.687715
659.000000	74.807132
658.000000	75.001070
657.000000	75.259280
656.000000	75.544964
655.000000	75.809838
654.000000	76.018084
653.000000	76.153271
652.000000	76.216937
651.000000	76.228650
650.000000	76.227168
649.000000	76.255289
648.000000	76.338419
647.000000	76.481868
646.000000	76.680771
645.000000	76.921461
644.000000	77.170670
643.000000	77.379655
642.000000	77.515860
641.000000	77.582188
640.000000	77.600802
639.000000	77.598164
638.000000	77.608670
637.000000	77.669427
636.000000	77.799895
635.000000	77.993508
634.000000	78.230753
633.000000	78.485165
632.000000	78.714798
631.000000	78.873971
630.000000	78.948026
629.000000	78.961121
628.000000	78.947630
627.000000	78.938826
626.000000	78.974971
625.000000	79.095367
624.000000	79.300302
623.000000	79.544132
622.000000	79.777534
621.000000	79.973582
620.000000	80.108304
619.000000	80.155601
618.000000	80.122728
617.000000	80.062798
616.000000	80.031915
615.000000	80.055023
614.000000	80.138578
613.000000	80.281374
612.000000	80.453091
611.000000	80.590877
610.000000	80.633094
609.000000	80.535882
608.000000	80.256153
607.000000	79.744834
606.000000	78.974455
605.000000	77.922178
604.000000	76.495670
603.000000	74.495953
602.000000	71.636944
601.000000	67.645640
600.000000	62.450968
599.000000	56.419116
598.000000	50.407707
597.000000	45.476245
596.000000	42.454139
595.000000	41.650574
594.000000	42.807088
593.000000	45.296019
592.000000	48.462926
591.000000	51.810182
590.000000	55.020207
589.000000	57.958870
588.000000	60.610905
587.000000	62.986403
586.000000	65.075281
585.000000	66.865406
584.000000	68.357349
583.000000	69.577263
582.000000	70.595453
581.000000	71.515740
580.000000	72.415106
579.000000	73.296984
578.000000	74.140231
577.000000	74.946855
576.000000	75.709297
575.000000	76.372084
574.000000	76.870398
573.000000	77.195184
572.000000	77.381060
571.000000	77.472927
570.000000	77.541026
569.000000	77.679973
568.000000	77.950479
567.000000	78.339083
566.000000	78.791737
565.000000	79.259068
564.000000	79.684542
563.000000	79.994434
562.000000	80.145363
561.000000	80.159927
560.000000	80.093245
559.000000	79.998934
558.000000	79.945550
557.000000	80.011881
556.000000	80.231622
555.000000	80.567807
554.000000	80.955061
553.000000	81.334521
552.000000	81.636675
551.000000	81.784197
550.000000	81.754797
549.000000	81.607327
548.000000	81.424156
547.000000	81.272997
546.000000	81.228995
545.000000	81.362205
544.000000	81.669653
543.000000	82.065528
542.000000	82.457353
541.000000	82.791934
540.000000	83.016724
539.000000	83.066933
538.000000	82.936317
537.000000	82.712075
536.000000	82.503909
535.000000	82.381591
534.000000	82.392530
533.000000	82.574597
532.000000	82.908621
531.000000	83.298161
530.000000	83.635535
529.000000	83.858093
528.000000	83.922851
527.000000	83.794435
526.000000	83.509612
525.000000	83.184021
524.000000	82.905087
523.000000	82.679385
522.000000	82.493099
521.000000	82.338248
520.000000	82.162369
519.000000	81.861049
518.000000	81.370901
517.000000	80.734086
516.000000	80.039714
515.000000	79.367551
514.000000	78.809361
513.000000	78.470215
512.000000	78.392568
511.000000	78.510850
510.000000	78.704433
509.000000	78.860619
508.000000	78.852032
507.000000	78.517233
506.000000	77.725765
505.000000	76.434305
504.000000	74.673466
503.000000	72.585843
502.000000	70.526280
501.000000	68.962143
500.000000	68.190650
499.000000	68.232406
498.000000	68.952204
497.000000	70.135927
496.000000	71.491869
495.000000	72.708155
494.000000	73.575509
493.000000	74.069922
492.000000	74.301315
491.000000	74.425135
490.000000	74.604867
489.000000	74.976829
488.000000	75.581606
487.000000	76.358572
486.000000	77.233434
485.000000	78.174529
484.000000	79.138905
483.000000	80.019575
482.000000	80.712390
481.000000	81.195404
480.000000	81.493626
479.000000	81.638139
478.000000	81.702944
477.000000	81.801503
476.000000	81.986077
475.000000	82.210934
474.000000	82.443664
473.000000	82.746927
472.000000	83.161485
471.000000	83.554614
470.000000	83.754715
469.000000	83.750468
468.000000	83.630407
467.000000	83.463888
466.000000	83.302079
465.000000	83.220510
464.000000	83.267092
463.000000	83.404416
462.000000	83.566863
461.000000	83.725844
460.000000	83.845802
459.000000	83.843573
458.000000	83.704356
457.000000	83.538649
456.000000	83.389902
455.000000	83.189620
454.000000	82.930455
453.000000	82.709282
452.000000	82.602674
451.000000	82.553592
450.000000	82.446069
449.000000	82.225096
448.000000	81.863387
447.000000	81.296734
446.000000	80.466661
445.000000	79.351947
444.000000	77.899051
443.000000	76.026753
442.000000	73.750466
441.000000	71.206157
440.000000	68.520199
439.000000	65.778254
438.000000	63.126907
437.000000	60.855555
436.000000	59.302903
435.000000	58.659013
434.000000	58.880004
433.000000	59.812286
432.000000	61.324319
431.000000	63.239280
430.000000	65.334564
429.000000	67.466730
428.000000	69.560469
427.000000	71.505730
426.000000	73.228355
425.000000	74.803208
424.000000	76.294474
423.000000	77.580070
422.000000	78.521677
421.000000	79.200812
420.000000	79.767026
419.000000	80.332330
418.000000	80.966535
417.000000	81.579831
416.000000	82.113662
415.000000	82.540929
414.000000	82.821215
413.000000	83.059732
412.000000	83.374696
411.000000	83.672557
410.000000	83.833266
409.000000	83.954939
408.000000	84.137150
407.000000	84.243143
406.000000	84.166516
405.000000	84.083908
404.000000	84.135855
403.000000	84.166724
402.000000	84.032234
401.000000	83.971524
400.000000	84.165965
