PE IR       SUBTECH     SPECTRUM    ASCII       PEDS        4.00        
   -1
23ms115_nitro.asc
24/09/12
16:10:43.00
24/09/12
16:10:43.00
Administrator
Sample 1175 By Administrator Date Thursday, September 12 2024
400.000000
#HDR
-1
-1
#GR
cm-1
%T
1.0
0.0
4000.000000
-1.000000
3601
8
85.491441
6.848720
#DATA
4000.000000	58.493834
3999.000000	58.532764
3998.000000	58.571893
3997.000000	58.611557
3996.000000	58.651387
3995.000000	58.691183
3994.000000	58.731563
3993.000000	58.773171
3992.000000	58.815461
3991.000000	58.856789
3990.000000	58.895967
3989.000000	58.933365
3988.000000	58.970166
3987.000000	59.007064
3986.000000	59.044205
3985.000000	59.081629
3984.000000	59.119333
3983.000000	59.157016
3982.000000	59.194384
3981.000000	59.231639
3980.000000	59.269376
3979.000000	59.308082
3978.000000	59.347537
3977.000000	59.386707
3976.000000	59.424507
3975.000000	59.460110
3974.000000	59.493142
3973.000000	59.524334
3972.000000	59.555317
3971.000000	59.587783
3970.000000	59.622130
3969.000000	59.657769
3968.000000	59.693803
3967.000000	59.729452
3966.000000	59.764584
3965.000000	59.799759
3964.000000	59.835494
3963.000000	59.871032
3962.000000	59.904817
3961.000000	59.936433
3960.000000	59.967305
3959.000000	59.999450
3958.000000	60.033282
3957.000000	60.068617
3956.000000	60.105595
3955.000000	60.143902
3954.000000	60.182726
3953.000000	60.220599
3952.000000	60.256404
3951.000000	60.289576
3950.000000	60.320235
3949.000000	60.348915
3948.000000	60.376409
3947.000000	60.405794
3946.000000	60.441726
3945.000000	60.485182
3944.000000	60.530121
3943.000000	60.568247
3942.000000	60.599046
3941.000000	60.630193
3940.000000	60.666877
3939.000000	60.706848
3938.000000	60.743465
3937.000000	60.774345
3936.000000	60.804409
3935.000000	60.838723
3934.000000	60.877984
3933.000000	60.918677
3932.000000	60.958595
3931.000000	60.997113
3930.000000	61.031989
3929.000000	61.063835
3928.000000	61.097930
3927.000000	61.139858
3926.000000	61.185250
3925.000000	61.222051
3924.000000	61.247822
3923.000000	61.271572
3922.000000	61.298109
3921.000000	61.324330
3920.000000	61.349809
3919.000000	61.382051
3918.000000	61.424522
3917.000000	61.470212
3916.000000	61.511867
3915.000000	61.550134
3914.000000	61.588039
3913.000000	61.625561
3912.000000	61.660720
3911.000000	61.696048
3910.000000	61.733137
3909.000000	61.772697
3908.000000	61.816567
3907.000000	61.863398
3906.000000	61.905244
3905.000000	61.928044
3904.000000	61.931035
3903.000000	61.935477
3902.000000	61.961531
3901.000000	62.007360
3900.000000	62.053571
3899.000000	62.087328
3898.000000	62.114472
3897.000000	62.144577
3896.000000	62.177996
3895.000000	62.215989
3894.000000	62.262054
3893.000000	62.316204
3892.000000	62.362250
3891.000000	62.384389
3890.000000	62.391665
3889.000000	62.409658
3888.000000	62.452888
3887.000000	62.507570
3886.000000	62.545360
3885.000000	62.563622
3884.000000	62.587594
3883.000000	62.631542
3882.000000	62.680447
3881.000000	62.711091
3880.000000	62.720956
3879.000000	62.731515
3878.000000	62.763131
3877.000000	62.817464
3876.000000	62.878004
3875.000000	62.920690
3874.000000	62.938878
3873.000000	62.957212
3872.000000	63.000143
3871.000000	63.050819
3870.000000	63.072920
3869.000000	63.074078
3868.000000	63.093836
3867.000000	63.144322
3866.000000	63.197067
3865.000000	63.226847
3864.000000	63.246386
3863.000000	63.280411
3862.000000	63.325067
3861.000000	63.367987
3860.000000	63.406965
3859.000000	63.450217
3858.000000	63.508324
3857.000000	63.587866
3856.000000	63.680956
3855.000000	63.744416
3854.000000	63.740709
3853.000000	63.715134
3852.000000	63.729478
3851.000000	63.772230
3850.000000	63.803264
3849.000000	63.812601
3848.000000	63.817836
3847.000000	63.841729
3846.000000	63.887855
3845.000000	63.944306
3844.000000	63.995893
3843.000000	64.033973
3842.000000	64.065384
3841.000000	64.106675
3840.000000	64.153157
3839.000000	64.188492
3838.000000	64.212550
3837.000000	64.237178
3836.000000	64.268551
3835.000000	64.303075
3834.000000	64.338560
3833.000000	64.374169
3832.000000	64.405164
3831.000000	64.433578
3830.000000	64.469713
3829.000000	64.519833
3828.000000	64.575921
3827.000000	64.620166
3826.000000	64.643135
3825.000000	64.663615
3824.000000	64.706621
3823.000000	64.771006
3822.000000	64.823222
3821.000000	64.837512
3820.000000	64.839733
3819.000000	64.869256
3818.000000	64.928010
3817.000000	64.980181
3816.000000	65.000934
3815.000000	65.016968
3814.000000	65.065595
3813.000000	65.132926
3812.000000	65.179141
3811.000000	65.198506
3810.000000	65.222472
3809.000000	65.273830
3808.000000	65.333257
3807.000000	65.365962
3806.000000	65.375524
3805.000000	65.399381
3804.000000	65.453676
3803.000000	65.518482
3802.000000	65.552251
3801.000000	65.553249
3800.000000	65.568465
3799.000000	65.617036
3798.000000	65.673375
3797.000000	65.708633
3796.000000	65.726044
3795.000000	65.751939
3794.000000	65.800919
3793.000000	65.858645
3792.000000	65.906542
3791.000000	65.945064
3790.000000	65.983821
3789.000000	66.025531
3788.000000	66.068466
3787.000000	66.112930
3786.000000	66.158034
3785.000000	66.197027
3784.000000	66.225589
3783.000000	66.252656
3782.000000	66.288911
3781.000000	66.331997
3780.000000	66.369558
3779.000000	66.399702
3778.000000	66.434290
3777.000000	66.481308
3776.000000	66.530655
3775.000000	66.567978
3774.000000	66.595389
3773.000000	66.629487
3772.000000	66.677281
3771.000000	66.724760
3770.000000	66.757902
3769.000000	66.784986
3768.000000	66.821585
3767.000000	66.868085
3766.000000	66.910475
3765.000000	66.937536
3764.000000	66.959082
3763.000000	66.995501
3762.000000	67.048262
3761.000000	67.099848
3760.000000	67.139284
3759.000000	67.177750
3758.000000	67.220301
3757.000000	67.256842
3756.000000	67.286379
3755.000000	67.318166
3754.000000	67.355320
3753.000000	67.388503
3752.000000	67.416547
3751.000000	67.455478
3750.000000	67.504075
3749.000000	67.540437
3748.000000	67.567993
3747.000000	67.616314
3746.000000	67.685430
3745.000000	67.727598
3744.000000	67.736254
3743.000000	67.767617
3742.000000	67.832121
3741.000000	67.884812
3740.000000	67.900435
3739.000000	67.908364
3738.000000	67.948578
3737.000000	68.017731
3736.000000	68.087331
3735.000000	68.145662
3734.000000	68.204393
3733.000000	68.263710
3732.000000	68.308520
3731.000000	68.338402
3730.000000	68.368674
3729.000000	68.411033
3728.000000	68.461246
3727.000000	68.504865
3726.000000	68.543114
3725.000000	68.590896
3724.000000	68.650298
3723.000000	68.706358
3722.000000	68.750705
3721.000000	68.792668
3720.000000	68.840034
3719.000000	68.891890
3718.000000	68.937438
3717.000000	68.970908
3716.000000	69.003433
3715.000000	69.045021
3714.000000	69.092007
3713.000000	69.134214
3712.000000	69.171690
3711.000000	69.216317
3710.000000	69.273224
3709.000000	69.336044
3708.000000	69.392732
3707.000000	69.435761
3706.000000	69.470904
3705.000000	69.509649
3704.000000	69.557686
3703.000000	69.610084
3702.000000	69.659842
3701.000000	69.706971
3700.000000	69.755243
3699.000000	69.807160
3698.000000	69.858519
3697.000000	69.899942
3696.000000	69.931885
3695.000000	69.965047
3694.000000	70.003346
3693.000000	70.043205
3692.000000	70.082711
3691.000000	70.123244
3690.000000	70.162428
3689.000000	70.200172
3688.000000	70.242440
3687.000000	70.291328
3686.000000	70.342834
3685.000000	70.386746
3684.000000	70.414717
3683.000000	70.435956
3682.000000	70.470549
3681.000000	70.517665
3680.000000	70.557658
3679.000000	70.583768
3678.000000	70.616706
3677.000000	70.662117
3676.000000	70.691421
3675.000000	70.703793
3674.000000	70.730961
3673.000000	70.784052
3672.000000	70.843148
3671.000000	70.882333
3670.000000	70.902562
3669.000000	70.938414
3668.000000	71.005333
3667.000000	71.076628
3666.000000	71.125945
3665.000000	71.156512
3664.000000	71.187634
3663.000000	71.233080
3662.000000	71.287212
3661.000000	71.332977
3660.000000	71.367043
3659.000000	71.397056
3658.000000	71.427459
3657.000000	71.448486
3656.000000	71.455569
3655.000000	71.463514
3654.000000	71.483658
3653.000000	71.509253
3652.000000	71.524686
3651.000000	71.521413
3650.000000	71.513640
3649.000000	71.530876
3648.000000	71.580480
3647.000000	71.639500
3646.000000	71.685710
3645.000000	71.717678
3644.000000	71.743960
3643.000000	71.770594
3642.000000	71.796574
3641.000000	71.822498
3640.000000	71.851922
3639.000000	71.880873
3638.000000	71.902327
3637.000000	71.916969
3636.000000	71.933111
3635.000000	71.950054
3634.000000	71.958065
3633.000000	71.958243
3632.000000	71.962863
3631.000000	71.973118
3630.000000	71.967820
3629.000000	71.941516
3628.000000	71.933894
3627.000000	71.970132
3626.000000	72.020124
3625.000000	72.047459
3624.000000	72.050531
3623.000000	72.053609
3622.000000	72.074603
3621.000000	72.102443
3620.000000	72.111833
3619.000000	72.097679
3618.000000	72.077840
3617.000000	72.066294
3616.000000	72.063481
3615.000000	72.060416
3614.000000	72.048202
3613.000000	72.030472
3612.000000	72.022060
3611.000000	72.031353
3610.000000	72.052450
3609.000000	72.075717
3608.000000	72.097741
3607.000000	72.121612
3606.000000	72.146546
3605.000000	72.165564
3604.000000	72.175896
3603.000000	72.181086
3602.000000	72.186738
3601.000000	72.193807
3600.000000	72.201302
3599.000000	72.208230
3598.000000	72.212596
3597.000000	72.211995
3596.000000	72.209374
3595.000000	72.206255
3594.000000	72.202195
3593.000000	72.198422
3592.000000	72.195297
3591.000000	72.193430
3590.000000	72.193977
3589.000000	72.196625
3588.000000	72.200160
3587.000000	72.207782
3586.000000	72.223934
3585.000000	72.245896
3584.000000	72.265604
3583.000000	72.278324
3582.000000	72.286528
3581.000000	72.294379
3580.000000	72.303549
3579.000000	72.312138
3578.000000	72.317712
3577.000000	72.320279
3576.000000	72.321949
3575.000000	72.325500
3574.000000	72.330965
3573.000000	72.336979
3572.000000	72.340936
3571.000000	72.340670
3570.000000	72.335930
3569.000000	72.327500
3568.000000	72.317334
3567.000000	72.311529
3566.000000	72.316926
3565.000000	72.332218
3564.000000	72.349552
3563.000000	72.363559
3562.000000	72.374377
3561.000000	72.384814
3560.000000	72.396366
3559.000000	72.408588
3558.000000	72.419693
3557.000000	72.428246
3556.000000	72.434538
3555.000000	72.440364
3554.000000	72.445343
3553.000000	72.446207
3552.000000	72.441903
3551.000000	72.435796
3550.000000	72.431678
3549.000000	72.430644
3548.000000	72.432448
3547.000000	72.438389
3546.000000	72.448946
3545.000000	72.461758
3544.000000	72.473458
3543.000000	72.481975
3542.000000	72.486244
3541.000000	72.486985
3540.000000	72.487326
3539.000000	72.490169
3538.000000	72.494856
3537.000000	72.497519
3536.000000	72.497023
3535.000000	72.495442
3534.000000	72.495084
3533.000000	72.495546
3532.000000	72.495580
3531.000000	72.494921
3530.000000	72.492478
3529.000000	72.486489
3528.000000	72.477806
3527.000000	72.471221
3526.000000	72.470483
3525.000000	72.473520
3524.000000	72.474457
3523.000000	72.470053
3522.000000	72.462256
3521.000000	72.455407
3520.000000	72.451916
3519.000000	72.450100
3518.000000	72.447200
3517.000000	72.442938
3516.000000	72.439172
3515.000000	72.435158
3514.000000	72.427258
3513.000000	72.413479
3512.000000	72.395600
3511.000000	72.376256
3510.000000	72.356643
3509.000000	72.337920
3508.000000	72.322643
3507.000000	72.312522
3506.000000	72.305253
3505.000000	72.295983
3504.000000	72.281741
3503.000000	72.263125
3502.000000	72.241884
3501.000000	72.219299
3500.000000	72.196821
3499.000000	72.175319
3498.000000	72.153750
3497.000000	72.130461
3496.000000	72.105657
3495.000000	72.080335
3494.000000	72.053698
3493.000000	72.024030
3492.000000	71.991256
3491.000000	71.956685
3490.000000	71.921029
3489.000000	71.884150
3488.000000	71.846039
3487.000000	71.806773
3486.000000	71.765913
3485.000000	71.723030
3484.000000	71.678965
3483.000000	71.634737
3482.000000	71.590003
3481.000000	71.543892
3480.000000	71.496116
3479.000000	71.446360
3478.000000	71.393363
3477.000000	71.336348
3476.000000	71.276424
3475.000000	71.215429
3474.000000	71.154351
3473.000000	71.093857
3472.000000	71.035074
3471.000000	70.977895
3470.000000	70.919668
3469.000000	70.857336
3468.000000	70.789485
3467.000000	70.715919
3466.000000	70.636850
3465.000000	70.553422
3464.000000	70.468079
3463.000000	70.382771
3462.000000	70.297672
3461.000000	70.212261
3460.000000	70.126307
3459.000000	70.039129
3458.000000	69.949192
3457.000000	69.855698
3456.000000	69.760025
3455.000000	69.663553
3454.000000	69.565831
3453.000000	69.465227
3452.000000	69.361872
3451.000000	69.258152
3450.000000	69.154940
3449.000000	69.049487
3448.000000	68.938366
3447.000000	68.821902
3446.000000	68.703751
3445.000000	68.586236
3444.000000	68.467753
3443.000000	68.345426
3442.000000	68.219079
3441.000000	68.092085
3440.000000	67.968086
3439.000000	67.846984
3438.000000	67.724843
3437.000000	67.597032
3436.000000	67.461243
3435.000000	67.317052
3434.000000	67.164848
3433.000000	67.005991
3432.000000	66.843334
3431.000000	66.679646
3430.000000	66.514667
3429.000000	66.346071
3428.000000	66.172915
3427.000000	65.996288
3426.000000	65.816908
3425.000000	65.634452
3424.000000	65.448772
3423.000000	65.259331
3422.000000	65.063908
3421.000000	64.860725
3420.000000	64.651653
3419.000000	64.440376
3418.000000	64.228015
3417.000000	64.012780
3416.000000	63.793288
3415.000000	63.569335
3414.000000	63.339538
3413.000000	63.101914
3412.000000	62.856735
3411.000000	62.606248
3410.000000	62.351197
3409.000000	62.089911
3408.000000	61.821247
3407.000000	61.545734
3406.000000	61.264093
3405.000000	60.977145
3404.000000	60.686564
3403.000000	60.393031
3402.000000	60.093981
3401.000000	59.785312
3400.000000	59.465165
3399.000000	59.134255
3398.000000	58.794171
3397.000000	58.447371
3396.000000	58.096649
3395.000000	57.742224
3394.000000	57.380045
3393.000000	57.005727
3392.000000	56.619109
3391.000000	56.223087
3390.000000	55.820161
3389.000000	55.411598
3388.000000	54.998432
3387.000000	54.580342
3386.000000	54.154755
3385.000000	53.719862
3384.000000	53.276867
3383.000000	52.827600
3382.000000	52.371664
3381.000000	51.907663
3380.000000	51.435851
3379.000000	50.957142
3378.000000	50.471318
3377.000000	49.978321
3376.000000	49.479324
3375.000000	48.975488
3374.000000	48.466869
3373.000000	47.953785
3372.000000	47.437233
3371.000000	46.916301
3370.000000	46.387837
3369.000000	45.849682
3368.000000	45.302502
3367.000000	44.747969
3366.000000	44.187355
3365.000000	43.622956
3364.000000	43.057756
3363.000000	42.492456
3362.000000	41.925403
3361.000000	41.356072
3360.000000	40.786069
3359.000000	40.215648
3358.000000	39.642316
3357.000000	39.064477
3356.000000	38.483504
3355.000000	37.901234
3354.000000	37.318154
3353.000000	36.735236
3352.000000	36.154830
3351.000000	35.578382
3350.000000	35.005520
3349.000000	34.436129
3348.000000	33.870781
3347.000000	33.308477
3346.000000	32.747074
3345.000000	32.186473
3344.000000	31.628847
3343.000000	31.075400
3342.000000	30.525717
3341.000000	29.980761
3340.000000	29.443067
3339.000000	28.913537
3338.000000	28.391198
3337.000000	27.876079
3336.000000	27.369433
3335.000000	26.870886
3334.000000	26.378581
3333.000000	25.892599
3332.000000	25.414566
3331.000000	24.944312
3330.000000	24.480025
3329.000000	24.021572
3328.000000	23.571011
3327.000000	23.129539
3326.000000	22.697563
3325.000000	22.277082
3324.000000	21.869976
3323.000000	21.474797
3322.000000	21.088179
3321.000000	20.709375
3320.000000	20.340099
3319.000000	19.980274
3318.000000	19.628671
3317.000000	19.286307
3316.000000	18.955421
3315.000000	18.635790
3314.000000	18.325211
3313.000000	18.023648
3312.000000	17.732587
3311.000000	17.451251
3310.000000	17.178040
3309.000000	16.914361
3308.000000	16.663916
3307.000000	16.428400
3306.000000	16.207501
3305.000000	16.002389
3304.000000	15.813769
3303.000000	15.638316
3302.000000	15.470932
3301.000000	15.309887
3300.000000	15.156678
3299.000000	15.011475
3298.000000	14.873557
3297.000000	14.744840
3296.000000	14.627968
3295.000000	14.522206
3294.000000	14.424809
3293.000000	14.336116
3292.000000	14.258871
3291.000000	14.192629
3290.000000	14.133956
3289.000000	14.080800
3288.000000	14.033199
3287.000000	13.990451
3286.000000	13.951176
3285.000000	13.916221
3284.000000	13.887115
3283.000000	13.862700
3282.000000	13.840739
3281.000000	13.821567
3280.000000	13.806710
3279.000000	13.794803
3278.000000	13.783151
3277.000000	13.772220
3276.000000	13.764350
3275.000000	13.759092
3274.000000	13.753924
3273.000000	13.749202
3272.000000	13.748392
3271.000000	13.753472
3270.000000	13.763495
3269.000000	13.776856
3268.000000	13.791731
3267.000000	13.805312
3266.000000	13.815944
3265.000000	13.825521
3264.000000	13.836825
3263.000000	13.849507
3262.000000	13.861718
3261.000000	13.873882
3260.000000	13.887440
3259.000000	13.901506
3258.000000	13.914500
3257.000000	13.927735
3256.000000	13.943651
3255.000000	13.961797
3254.000000	13.979984
3253.000000	13.997990
3252.000000	14.016547
3251.000000	14.034153
3250.000000	14.048863
3249.000000	14.062291
3248.000000	14.078145
3247.000000	14.097600
3246.000000	14.119149
3245.000000	14.141744
3244.000000	14.164825
3243.000000	14.186547
3242.000000	14.205466
3241.000000	14.223017
3240.000000	14.241287
3239.000000	14.259540
3238.000000	14.275828
3237.000000	14.290450
3236.000000	14.305013
3235.000000	14.319870
3234.000000	14.335387
3233.000000	14.353674
3232.000000	14.375642
3231.000000	14.398087
3230.000000	14.417157
3229.000000	14.432998
3228.000000	14.447843
3227.000000	14.461641
3226.000000	14.473119
3225.000000	14.483313
3224.000000	14.494155
3223.000000	14.505000
3222.000000	14.513990
3221.000000	14.521500
3220.000000	14.528939
3219.000000	14.535617
3218.000000	14.540165
3217.000000	14.543417
3216.000000	14.546670
3215.000000	14.548806
3214.000000	14.548213
3213.000000	14.545851
3212.000000	14.543246
3211.000000	14.539386
3210.000000	14.532858
3209.000000	14.525004
3208.000000	14.517717
3207.000000	14.509881
3206.000000	14.499320
3205.000000	14.486561
3204.000000	14.473251
3203.000000	14.458729
3202.000000	14.441444
3201.000000	14.422026
3200.000000	14.401794
3199.000000	14.379917
3198.000000	14.355312
3197.000000	14.329529
3196.000000	14.304462
3195.000000	14.279101
3194.000000	14.251593
3193.000000	14.222663
3192.000000	14.193886
3191.000000	14.164404
3190.000000	14.132686
3189.000000	14.099646
3188.000000	14.066907
3187.000000	14.033825
3186.000000	13.999215
3185.000000	13.964184
3184.000000	13.930098
3183.000000	13.895829
3182.000000	13.860036
3181.000000	13.824052
3180.000000	13.789560
3179.000000	13.755509
3178.000000	13.720355
3177.000000	13.685229
3176.000000	13.651793
3175.000000	13.619106
3174.000000	13.585752
3173.000000	13.552907
3172.000000	13.522204
3171.000000	13.492664
3170.000000	13.462784
3169.000000	13.433555
3168.000000	13.406467
3167.000000	13.380652
3166.000000	13.355014
3165.000000	13.330891
3164.000000	13.309588
3163.000000	13.289602
3162.000000	13.269176
3161.000000	13.249389
3160.000000	13.231832
3159.000000	13.215602
3158.000000	13.199517
3157.000000	13.184702
3156.000000	13.172216
3155.000000	13.160704
3154.000000	13.149509
3153.000000	13.141539
3152.000000	13.139560
3151.000000	13.142019
3150.000000	13.145562
3149.000000	13.149425
3148.000000	13.154429
3147.000000	13.160071
3146.000000	13.165928
3145.000000	13.173585
3144.000000	13.183955
3143.000000	13.194961
3142.000000	13.204830
3141.000000	13.215639
3140.000000	13.230604
3139.000000	13.249878
3138.000000	13.271943
3137.000000	13.296636
3136.000000	13.323834
3135.000000	13.351510
3134.000000	13.378075
3133.000000	13.404889
3132.000000	13.433799
3131.000000	13.464558
3130.000000	13.497035
3129.000000	13.533012
3128.000000	13.573165
3127.000000	13.614814
3126.000000	13.655378
3125.000000	13.695472
3124.000000	13.736088
3123.000000	13.776004
3122.000000	13.814864
3121.000000	13.855856
3120.000000	13.902093
3119.000000	13.952642
3118.000000	14.005346
3117.000000	14.060928
3116.000000	14.121067
3115.000000	14.184830
3114.000000	14.249930
3113.000000	14.315514
3112.000000	14.381078
3111.000000	14.445167
3110.000000	14.508021
3109.000000	14.572999
3108.000000	14.642748
3107.000000	14.716052
3106.000000	14.790604
3105.000000	14.866366
3104.000000	14.943730
3103.000000	15.021292
3102.000000	15.098183
3101.000000	15.176220
3100.000000	15.257217
3099.000000	15.340164
3098.000000	15.423610
3097.000000	15.508350
3096.000000	15.595165
3095.000000	15.682466
3094.000000	15.768788
3093.000000	15.855531
3092.000000	15.944863
3091.000000	16.036912
3090.000000	16.131135
3089.000000	16.227869
3088.000000	16.326333
3087.000000	16.423718
3086.000000	16.518680
3085.000000	16.613596
3084.000000	16.710997
3083.000000	16.810153
3082.000000	16.909468
3081.000000	17.009788
3080.000000	17.112991
3079.000000	17.219378
3078.000000	17.328657
3077.000000	17.441142
3076.000000	17.555748
3075.000000	17.669207
3074.000000	17.779506
3073.000000	17.887997
3072.000000	17.996396
3071.000000	18.104158
3070.000000	18.210840
3069.000000	18.318510
3068.000000	18.429395
3067.000000	18.543260
3066.000000	18.658991
3065.000000	18.776569
3064.000000	18.895456
3063.000000	19.013405
3062.000000	19.128988
3061.000000	19.243285
3060.000000	19.357352
3059.000000	19.470360
3058.000000	19.581999
3057.000000	19.694237
3056.000000	19.808630
3055.000000	19.924072
3054.000000	20.039260
3053.000000	20.155171
3052.000000	20.273133
3051.000000	20.392515
3050.000000	20.511995
3049.000000	20.631122
3048.000000	20.749006
3047.000000	20.863801
3046.000000	20.975356
3045.000000	21.086284
3044.000000	21.198932
3043.000000	21.313462
3042.000000	21.430121
3041.000000	21.550476
3040.000000	21.674340
3039.000000	21.798104
3038.000000	21.918368
3037.000000	22.035192
3036.000000	22.150353
3035.000000	22.264712
3034.000000	22.378950
3033.000000	22.494372
3032.000000	22.610974
3031.000000	22.727077
3030.000000	22.842475
3029.000000	22.959352
3028.000000	23.078541
3027.000000	23.197751
3026.000000	23.315291
3025.000000	23.432626
3024.000000	23.551081
3023.000000	23.668794
3022.000000	23.783381
3021.000000	23.895311
3020.000000	24.006403
3019.000000	24.117087
3018.000000	24.227334
3017.000000	24.338292
3016.000000	24.450873
3015.000000	24.564428
3014.000000	24.678657
3013.000000	24.794991
3012.000000	24.914258
3011.000000	25.034789
3010.000000	25.154409
3009.000000	25.272500
3008.000000	25.388759
3007.000000	25.502212
3006.000000	25.613123
3005.000000	25.723813
3004.000000	25.835962
3003.000000	25.948776
3002.000000	26.061116
3001.000000	26.173359
3000.000000	26.285968
2999.000000	26.398343
2998.000000	26.510354
2997.000000	26.622740
2996.000000	26.734634
2995.000000	26.843340
2994.000000	26.948409
2993.000000	27.053553
2992.000000	27.162638
2991.000000	27.275794
2990.000000	27.391051
2989.000000	27.507394
2988.000000	27.624113
2987.000000	27.739351
2986.000000	27.851570
2985.000000	27.961024
2984.000000	28.068119
2983.000000	28.172252
2982.000000	28.274011
2981.000000	28.376498
2980.000000	28.482468
2979.000000	28.591592
2978.000000	28.702135
2977.000000	28.813623
2976.000000	28.926255
2975.000000	29.039415
2974.000000	29.152469
2973.000000	29.265455
2972.000000	29.377617
2971.000000	29.486970
2970.000000	29.592872
2969.000000	29.697397
2968.000000	29.802684
2967.000000	29.908707
2966.000000	30.014992
2965.000000	30.122551
2964.000000	30.232349
2963.000000	30.343546
2962.000000	30.454874
2961.000000	30.565957
2960.000000	30.675958
2959.000000	30.782965
2958.000000	30.886144
2957.000000	30.986616
2956.000000	31.085010
2955.000000	31.180697
2954.000000	31.274858
2953.000000	31.371489
2952.000000	31.473106
2951.000000	31.577524
2950.000000	31.680966
2949.000000	31.782320
2948.000000	31.882466
2947.000000	31.981557
2946.000000	32.079403
2945.000000	32.177082
2944.000000	32.275936
2943.000000	32.375870
2942.000000	32.476224
2941.000000	32.577235
2940.000000	32.679235
2939.000000	32.781660
2938.000000	32.884099
2937.000000	32.986926
2936.000000	33.089676
2935.000000	33.190184
2934.000000	33.286693
2933.000000	33.379605
2932.000000	33.470337
2931.000000	33.560147
2930.000000	33.650965
2929.000000	33.745240
2928.000000	33.843505
2927.000000	33.943835
2926.000000	34.044901
2925.000000	34.147513
2924.000000	34.251926
2923.000000	34.355735
2922.000000	34.455988
2921.000000	34.551517
2920.000000	34.641920
2919.000000	34.726354
2918.000000	34.804815
2917.000000	34.878913
2916.000000	34.950250
2915.000000	35.019762
2914.000000	35.089525
2913.000000	35.162960
2912.000000	35.241896
2911.000000	35.325004
2910.000000	35.410112
2909.000000	35.496248
2908.000000	35.582400
2907.000000	35.666447
2906.000000	35.746904
2905.000000	35.824565
2904.000000	35.900822
2903.000000	35.976669
2902.000000	36.053711
2901.000000	36.134215
2900.000000	36.219456
2899.000000	36.308064
2898.000000	36.397863
2897.000000	36.487393
2896.000000	36.575095
2895.000000	36.658826
2894.000000	36.737722
2893.000000	36.813290
2892.000000	36.887548
2891.000000	36.961438
2890.000000	37.035856
2889.000000	37.112471
2888.000000	37.192114
2887.000000	37.273629
2886.000000	37.355462
2885.000000	37.437246
2884.000000	37.518928
2883.000000	37.599738
2882.000000	37.679107
2881.000000	37.757347
2880.000000	37.834518
2879.000000	37.910023
2878.000000	37.984472
2877.000000	38.060531
2876.000000	38.140408
2875.000000	38.223217
2874.000000	38.305953
2873.000000	38.386359
2872.000000	38.464197
2871.000000	38.540764
2870.000000	38.617959
2869.000000	38.696797
2868.000000	38.775865
2867.000000	38.852027
2866.000000	38.923412
2865.000000	38.991200
2864.000000	39.058462
2863.000000	39.128273
2862.000000	39.202929
2861.000000	39.283144
2860.000000	39.367110
2859.000000	39.451629
2858.000000	39.534824
2857.000000	39.616722
2856.000000	39.697167
2855.000000	39.775036
2854.000000	39.850173
2853.000000	39.924449
2852.000000	39.999974
2851.000000	40.077344
2850.000000	40.155868
2849.000000	40.233925
2848.000000	40.308805
2847.000000	40.378230
2846.000000	40.442848
2845.000000	40.505864
2844.000000	40.569894
2843.000000	40.635636
2842.000000	40.703515
2841.000000	40.774055
2840.000000	40.845755
2839.000000	40.915129
2838.000000	40.980586
2837.000000	41.044675
2836.000000	41.111142
2835.000000	41.181242
2834.000000	41.254084
2833.000000	41.328951
2832.000000	41.405510
2831.000000	41.482750
2830.000000	41.559437
2829.000000	41.635067
2828.000000	41.709356
2827.000000	41.781565
2826.000000	41.851470
2825.000000	41.920356
2824.000000	41.990129
2823.000000	42.062041
2822.000000	42.136960
2821.000000	42.215839
2820.000000	42.298783
2819.000000	42.384107
2818.000000	42.468995
2817.000000	42.550622
2816.000000	42.626471
2815.000000	42.695000
2814.000000	42.757171
2813.000000	42.816548
2812.000000	42.876920
2811.000000	42.940246
2810.000000	43.007219
2809.000000	43.078486
2808.000000	43.153997
2807.000000	43.231783
2806.000000	43.308478
2805.000000	43.380867
2804.000000	43.446689
2803.000000	43.505030
2802.000000	43.557100
2801.000000	43.606178
2800.000000	43.655774
2799.000000	43.707915
2798.000000	43.763445
2797.000000	43.822998
2796.000000	43.886753
2795.000000	43.953721
2794.000000	44.022048
2793.000000	44.089825
2792.000000	44.155294
2791.000000	44.217001
2790.000000	44.274531
2789.000000	44.328892
2788.000000	44.381766
2787.000000	44.434713
2786.000000	44.489249
2785.000000	44.546806
2784.000000	44.607946
2783.000000	44.672032
2782.000000	44.737999
2781.000000	44.804882
2780.000000	44.871240
2779.000000	44.934921
2778.000000	44.993959
2777.000000	45.047217
2776.000000	45.093986
2775.000000	45.133761
2774.000000	45.167158
2773.000000	45.196522
2772.000000	45.224771
2771.000000	45.253946
2770.000000	45.284897
2769.000000	45.317350
2768.000000	45.349536
2767.000000	45.378183
2766.000000	45.399872
2765.000000	45.412441
2764.000000	45.415219
2763.000000	45.409030
2762.000000	45.396485
2761.000000	45.381664
2760.000000	45.368647
2759.000000	45.360203
2758.000000	45.357860
2757.000000	45.361995
2756.000000	45.371076
2755.000000	45.381505
2754.000000	45.389039
2753.000000	45.390371
2752.000000	45.383344
2751.000000	45.366809
2750.000000	45.341134
2749.000000	45.308225
2748.000000	45.270430
2747.000000	45.229496
2746.000000	45.186740
2745.000000	45.143308
2744.000000	45.099286
2743.000000	45.053364
2742.000000	45.004136
2741.000000	44.951394
2740.000000	44.896049
2739.000000	44.839788
2738.000000	44.785616
2737.000000	44.738279
2736.000000	44.703099
2735.000000	44.684456
2734.000000	44.685803
2733.000000	44.709531
2732.000000	44.756215
2731.000000	44.824356
2730.000000	44.910897
2729.000000	45.012134
2728.000000	45.123454
2727.000000	45.239527
2726.000000	45.356165
2725.000000	45.471375
2724.000000	45.584823
2723.000000	45.696805
2722.000000	45.807973
2721.000000	45.919322
2720.000000	46.031347
2719.000000	46.143429
2718.000000	46.254379
2717.000000	46.362996
2716.000000	46.467507
2715.000000	46.565193
2714.000000	46.653031
2713.000000	46.728793
2712.000000	46.791526
2711.000000	46.841409
2710.000000	46.880276
2709.000000	46.911673
2708.000000	46.939679
2707.000000	46.967577
2706.000000	46.997134
2705.000000	47.028736
2704.000000	47.061312
2703.000000	47.092339
2702.000000	47.118732
2701.000000	47.137760
2700.000000	47.147656
2699.000000	47.148113
2698.000000	47.140910
2697.000000	47.129929
2696.000000	47.119715
2695.000000	47.113870
2694.000000	47.114446
2693.000000	47.121777
2692.000000	47.134186
2691.000000	47.148207
2690.000000	47.159940
2689.000000	47.166442
2688.000000	47.166062
2687.000000	47.158408
2686.000000	47.144763
2685.000000	47.128264
2684.000000	47.112824
2683.000000	47.101538
2682.000000	47.096013
2681.000000	47.096528
2680.000000	47.102164
2679.000000	47.111050
2678.000000	47.121186
2677.000000	47.131153
2676.000000	47.140179
2675.000000	47.147926
2674.000000	47.154613
2673.000000	47.161250
2672.000000	47.169382
2671.000000	47.180775
2670.000000	47.197270
2669.000000	47.220300
2668.000000	47.250266
2667.000000	47.286332
2666.000000	47.326877
2665.000000	47.369710
2664.000000	47.411772
2663.000000	47.449474
2662.000000	47.479846
2661.000000	47.501229
2660.000000	47.513197
2659.000000	47.516725
2658.000000	47.514676
2657.000000	47.511476
2656.000000	47.511505
2655.000000	47.517639
2654.000000	47.531187
2653.000000	47.552173
2652.000000	47.579058
2651.000000	47.608880
2650.000000	47.638672
2649.000000	47.666863
2648.000000	47.693710
2647.000000	47.721066
2646.000000	47.752278
2645.000000	47.791916
2644.000000	47.844098
2643.000000	47.910957
2642.000000	47.992133
2641.000000	48.084942
2640.000000	48.184949
2639.000000	48.286589
2638.000000	48.384537
2637.000000	48.474965
2636.000000	48.555848
2635.000000	48.626776
2634.000000	48.688893
2633.000000	48.744657
2632.000000	48.796965
2631.000000	48.848141
2630.000000	48.899161
2629.000000	48.949769
2628.000000	48.998841
2627.000000	49.044772
2626.000000	49.086107
2625.000000	49.121756
2624.000000	49.151165
2623.000000	49.174382
2622.000000	49.192035
2621.000000	49.205176
2620.000000	49.214662
2619.000000	49.221066
2618.000000	49.225092
2617.000000	49.227595
2616.000000	49.229121
2615.000000	49.229268
2614.000000	49.226863
2613.000000	49.220537
2612.000000	49.208860
2611.000000	49.190621
2610.000000	49.165267
2609.000000	49.133411
2608.000000	49.096999
2607.000000	49.059199
2606.000000	49.024361
2605.000000	48.997566
2604.000000	48.983341
2603.000000	48.984378
2602.000000	49.001466
2601.000000	49.033566
2600.000000	49.078081
2599.000000	49.131405
2598.000000	49.189658
2597.000000	49.249900
2596.000000	49.310316
2595.000000	49.370341
2594.000000	49.430937
2593.000000	49.494163
2592.000000	49.562301
2591.000000	49.636704
2590.000000	49.717372
2589.000000	49.803142
2588.000000	49.891796
2587.000000	49.980497
2586.000000	50.066644
2585.000000	50.148738
2584.000000	50.226611
2583.000000	50.301043
2582.000000	50.373556
2581.000000	50.446486
2580.000000	50.522713
2579.000000	50.604693
2578.000000	50.693341
2577.000000	50.787691
2576.000000	50.885353
2575.000000	50.983239
2574.000000	51.078234
2573.000000	51.167834
2572.000000	51.250671
2571.000000	51.326692
2570.000000	51.396870
2569.000000	51.462558
2568.000000	51.525118
2567.000000	51.585449
2566.000000	51.643674
2565.000000	51.699261
2564.000000	51.750890
2563.000000	51.796567
2562.000000	51.833666
2561.000000	51.859392
2560.000000	51.871646
2559.000000	51.868920
2558.000000	51.850654
2557.000000	51.817784
2556.000000	51.773464
2555.000000	51.723453
2554.000000	51.675299
2553.000000	51.637306
2552.000000	51.617272
2551.000000	51.621105
2550.000000	51.651345
2549.000000	51.707033
2548.000000	51.783948
2547.000000	51.875584
2546.000000	51.974861
2545.000000	52.075265
2544.000000	52.172419
2543.000000	52.264480
2542.000000	52.351716
2541.000000	52.436025
2540.000000	52.520080
2539.000000	52.606187
2538.000000	52.695088
2537.000000	52.785532
2536.000000	52.874708
2535.000000	52.959123
2534.000000	53.035352
2533.000000	53.101178
2532.000000	53.156749
2531.000000	53.204447
2530.000000	53.247862
2529.000000	53.290683
2528.000000	53.336159
2527.000000	53.386544
2526.000000	53.442175
2525.000000	53.501328
2524.000000	53.560990
2523.000000	53.617886
2522.000000	53.669304
2521.000000	53.713848
2520.000000	53.752080
2519.000000	53.786205
2518.000000	53.818882
2517.000000	53.852310
2516.000000	53.887808
2515.000000	53.925638
2514.000000	53.965000
2513.000000	54.004676
2512.000000	54.043924
2511.000000	54.082541
2510.000000	54.120307
2509.000000	54.156916
2508.000000	54.192346
2507.000000	54.226717
2506.000000	54.259580
2505.000000	54.289981
2504.000000	54.317358
2503.000000	54.342042
2502.000000	54.365042
2501.000000	54.387829
2500.000000	54.412346
2499.000000	54.440428
2498.000000	54.472731
2497.000000	54.508236
2496.000000	54.544698
2495.000000	54.579232
2494.000000	54.608920
2493.000000	54.631774
2492.000000	54.647757
2491.000000	54.658735
2490.000000	54.667731
2489.000000	54.678399
2488.000000	54.694423
2487.000000	54.718048
2486.000000	54.748607
2485.000000	54.782714
2484.000000	54.816045
2483.000000	54.844807
2482.000000	54.866432
2481.000000	54.880246
2480.000000	54.887974
2479.000000	54.893067
2478.000000	54.899160
2477.000000	54.909206
2476.000000	54.925142
2475.000000	54.947102
2474.000000	54.972824
2473.000000	54.998738
2472.000000	55.022053
2471.000000	55.041642
2470.000000	55.057394
2469.000000	55.069805
2468.000000	55.080298
2467.000000	55.090843
2466.000000	55.102727
2465.000000	55.115997
2464.000000	55.130171
2463.000000	55.144818
2462.000000	55.159562
2461.000000	55.174324
2460.000000	55.189793
2459.000000	55.206972
2458.000000	55.226086
2457.000000	55.246267
2456.000000	55.266243
2455.000000	55.284737
2454.000000	55.300377
2453.000000	55.312159
2452.000000	55.320393
2451.000000	55.326846
2450.000000	55.333949
2449.000000	55.344138
2448.000000	55.359474
2447.000000	55.380752
2446.000000	55.406628
2445.000000	55.434100
2444.000000	55.459877
2443.000000	55.481239
2442.000000	55.496342
2441.000000	55.504971
2440.000000	55.509209
2439.000000	55.512646
2438.000000	55.518747
2437.000000	55.530061
2436.000000	55.548131
2435.000000	55.572834
2434.000000	55.601597
2433.000000	55.630259
2432.000000	55.655260
2431.000000	55.674900
2430.000000	55.689158
2429.000000	55.699301
2428.000000	55.707625
2427.000000	55.716551
2426.000000	55.727665
2425.000000	55.741766
2424.000000	55.759395
2423.000000	55.780479
2422.000000	55.803792
2421.000000	55.827614
2420.000000	55.850948
2419.000000	55.873443
2418.000000	55.894512
2417.000000	55.913411
2416.000000	55.930045
2415.000000	55.944889
2414.000000	55.958324
2413.000000	55.970864
2412.000000	55.983835
2411.000000	55.999022
2410.000000	56.017705
2409.000000	56.040456
2408.000000	56.067209
2407.000000	56.096734
2406.000000	56.126428
2405.000000	56.153663
2404.000000	56.177211
2403.000000	56.196855
2402.000000	56.212471
2401.000000	56.224722
2400.000000	56.236143
2399.000000	56.250260
2398.000000	56.269590
2397.000000	56.295059
2396.000000	56.326507
2395.000000	56.362478
2394.000000	56.399949
2393.000000	56.435590
2392.000000	56.467412
2391.000000	56.494818
2390.000000	56.518115
2389.000000	56.538811
2388.000000	56.560335
2387.000000	56.586389
2386.000000	56.619162
2385.000000	56.660000
2384.000000	56.709381
2383.000000	56.766761
2382.000000	56.829084
2381.000000	56.892173
2380.000000	56.953409
2379.000000	57.010459
2378.000000	57.061049
2377.000000	57.103865
2376.000000	57.139929
2375.000000	57.171760
2374.000000	57.202494
2373.000000	57.236280
2372.000000	57.277658
2371.000000	57.328425
2370.000000	57.385503
2369.000000	57.445586
2368.000000	57.506740
2367.000000	57.565930
2366.000000	57.619112
2365.000000	57.665354
2364.000000	57.709291
2363.000000	57.750441
2362.000000	57.787050
2361.000000	57.823371
2360.000000	57.863292
2359.000000	57.911500
2358.000000	57.965177
2357.000000	58.019261
2356.000000	58.072512
2355.000000	58.118936
2354.000000	58.160981
2353.000000	58.202073
2352.000000	58.253052
2351.000000	58.312551
2350.000000	58.363797
2349.000000	58.400398
2348.000000	58.432759
2347.000000	58.486300
2346.000000	58.562366
2345.000000	58.635869
2344.000000	58.690152
2343.000000	58.724290
2342.000000	58.758309
2341.000000	58.796066
2340.000000	58.834497
2339.000000	58.869833
2338.000000	58.903578
2337.000000	58.939663
2336.000000	58.979349
2335.000000	59.026720
2334.000000	59.082845
2333.000000	59.146685
2332.000000	59.210488
2331.000000	59.274949
2330.000000	59.334374
2329.000000	59.396286
2328.000000	59.452063
2327.000000	59.506657
2326.000000	59.554892
2325.000000	59.597400
2324.000000	59.633973
2323.000000	59.665837
2322.000000	59.698410
2321.000000	59.732773
2320.000000	59.773266
2319.000000	59.823943
2318.000000	59.884680
2317.000000	59.952557
2316.000000	60.018106
2315.000000	60.080097
2314.000000	60.132123
2313.000000	60.176118
2312.000000	60.209099
2311.000000	60.240522
2310.000000	60.272881
2309.000000	60.312710
2308.000000	60.357893
2307.000000	60.411812
2306.000000	60.470883
2305.000000	60.532672
2304.000000	60.590979
2303.000000	60.645501
2302.000000	60.693722
2301.000000	60.736056
2300.000000	60.771019
2299.000000	60.803472
2298.000000	60.834854
2297.000000	60.868280
2296.000000	60.903287
2295.000000	60.943118
2294.000000	60.987205
2293.000000	61.034825
2292.000000	61.083761
2291.000000	61.133818
2290.000000	61.182460
2289.000000	61.225514
2288.000000	61.260624
2287.000000	61.289195
2286.000000	61.313955
2285.000000	61.336175
2284.000000	61.358899
2283.000000	61.386908
2282.000000	61.424057
2281.000000	61.469601
2280.000000	61.521069
2279.000000	61.575932
2278.000000	61.630829
2277.000000	61.680543
2276.000000	61.721079
2275.000000	61.752081
2274.000000	61.774885
2273.000000	61.791688
2272.000000	61.806652
2271.000000	61.826163
2270.000000	61.854515
2269.000000	61.891654
2268.000000	61.935289
2267.000000	61.983116
2266.000000	62.031388
2265.000000	62.074932
2264.000000	62.110038
2263.000000	62.136611
2262.000000	62.155666
2261.000000	62.167777
2260.000000	62.175213
2259.000000	62.182255
2258.000000	62.192559
2257.000000	62.206738
2256.000000	62.224629
2255.000000	62.246105
2254.000000	62.269000
2253.000000	62.288649
2252.000000	62.300871
2251.000000	62.304174
2250.000000	62.297185
2249.000000	62.278537
2248.000000	62.248294
2247.000000	62.209705
2246.000000	62.166078
2245.000000	62.119134
2244.000000	62.070826
2243.000000	62.023952
2242.000000	61.979154
2241.000000	61.933773
2240.000000	61.884691
2239.000000	61.830505
2238.000000	61.770276
2237.000000	61.703293
2236.000000	61.631816
2235.000000	61.561626
2234.000000	61.498734
2233.000000	61.447074
2232.000000	61.409958
2231.000000	61.390253
2230.000000	61.387532
2229.000000	61.397115
2228.000000	61.413246
2227.000000	61.431479
2226.000000	61.447211
2225.000000	61.455511
2224.000000	61.454211
2223.000000	61.445357
2222.000000	61.432223
2221.000000	61.417125
2220.000000	61.402962
2219.000000	61.393846
2218.000000	61.392270
2217.000000	61.397569
2216.000000	61.408171
2215.000000	61.422962
2214.000000	61.439400
2213.000000	61.453046
2212.000000	61.460612
2211.000000	61.461566
2210.000000	61.456080
2209.000000	61.444277
2208.000000	61.428804
2207.000000	61.415338
2206.000000	61.408812
2205.000000	61.410865
2204.000000	61.421544
2203.000000	61.440331
2202.000000	61.464077
2201.000000	61.486632
2200.000000	61.502631
2199.000000	61.509839
2198.000000	61.507504
2197.000000	61.495496
2196.000000	61.476690
2195.000000	61.457204
2194.000000	61.442259
2193.000000	61.433530
2192.000000	61.431002
2191.000000	61.434401
2190.000000	61.441313
2189.000000	61.446751
2188.000000	61.446568
2187.000000	61.439673
2186.000000	61.426208
2185.000000	61.406562
2184.000000	61.383373
2183.000000	61.361737
2182.000000	61.345628
2181.000000	61.336285
2180.000000	61.334697
2179.000000	61.342747
2178.000000	61.360486
2177.000000	61.384976
2176.000000	61.413439
2175.000000	61.444954
2174.000000	61.477866
2173.000000	61.508539
2172.000000	61.534518
2171.000000	61.556474
2170.000000	61.575932
2169.000000	61.593798
2168.000000	61.612641
2167.000000	61.637382
2166.000000	61.671732
2165.000000	61.715743
2164.000000	61.767677
2163.000000	61.825145
2162.000000	61.883130
2161.000000	61.934299
2160.000000	61.973758
2159.000000	62.001772
2158.000000	62.021132
2157.000000	62.035139
2156.000000	62.049272
2155.000000	62.070889
2154.000000	62.104596
2153.000000	62.149657
2152.000000	62.202522
2151.000000	62.258942
2150.000000	62.312850
2149.000000	62.357138
2148.000000	62.388427
2147.000000	62.409069
2146.000000	62.423181
2145.000000	62.434199
2144.000000	62.447131
2143.000000	62.468343
2142.000000	62.500749
2141.000000	62.541984
2140.000000	62.588769
2139.000000	62.639588
2138.000000	62.691980
2137.000000	62.741460
2136.000000	62.785637
2135.000000	62.826040
2134.000000	62.864121
2133.000000	62.898894
2132.000000	62.930072
2131.000000	62.959901
2130.000000	62.989881
2129.000000	63.019215
2128.000000	63.048493
2127.000000	63.081317
2126.000000	63.120022
2125.000000	63.162851
2124.000000	63.207312
2123.000000	63.252252
2122.000000	63.294718
2121.000000	63.329065
2120.000000	63.352235
2119.000000	63.367156
2118.000000	63.379294
2117.000000	63.393185
2116.000000	63.413704
2115.000000	63.446180
2114.000000	63.492147
2113.000000	63.547416
2112.000000	63.606032
2111.000000	63.663002
2110.000000	63.712290
2109.000000	63.747268
2108.000000	63.766226
2107.000000	63.774167
2106.000000	63.777783
2105.000000	63.781657
2104.000000	63.790147
2103.000000	63.807970
2102.000000	63.834931
2101.000000	63.864719
2100.000000	63.890030
2099.000000	63.906876
2098.000000	63.913060
2097.000000	63.905699
2096.000000	63.884565
2095.000000	63.854685
2094.000000	63.822864
2093.000000	63.793802
2092.000000	63.770720
2091.000000	63.755982
2090.000000	63.749038
2089.000000	63.746692
2088.000000	63.747358
2087.000000	63.752744
2086.000000	63.763934
2085.000000	63.779525
2084.000000	63.798728
2083.000000	63.822854
2082.000000	63.851177
2081.000000	63.879955
2080.000000	63.906673
2079.000000	63.933074
2078.000000	63.962762
2077.000000	63.997318
2076.000000	64.039337
2075.000000	64.092193
2074.000000	64.155643
2073.000000	64.225124
2072.000000	64.294194
2071.000000	64.356385
2070.000000	64.405793
2069.000000	64.441980
2068.000000	64.474421
2067.000000	64.516042
2066.000000	64.571517
2065.000000	64.637301
2064.000000	64.711502
2063.000000	64.796463
2062.000000	64.890930
2061.000000	64.986835
2060.000000	65.077043
2059.000000	65.160277
2058.000000	65.236461
2057.000000	65.303321
2056.000000	65.362290
2055.000000	65.420136
2054.000000	65.481392
2053.000000	65.545638
2052.000000	65.612654
2051.000000	65.683578
2050.000000	65.756986
2049.000000	65.828582
2048.000000	65.894959
2047.000000	65.955405
2046.000000	66.010172
2045.000000	66.061348
2044.000000	66.115023
2043.000000	66.176859
2042.000000	66.245128
2041.000000	66.313172
2040.000000	66.378785
2039.000000	66.445932
2038.000000	66.517482
2037.000000	66.592413
2036.000000	66.670948
2035.000000	66.755975
2034.000000	66.846537
2033.000000	66.935202
2032.000000	67.016837
2031.000000	67.091655
2030.000000	67.161452
2029.000000	67.225702
2028.000000	67.286464
2027.000000	67.349920
2026.000000	67.419632
2025.000000	67.495581
2024.000000	67.574526
2023.000000	67.650368
2022.000000	67.716107
2021.000000	67.771868
2020.000000	67.829636
2019.000000	67.901881
2018.000000	67.986509
2017.000000	68.071346
2016.000000	68.150862
2015.000000	68.229214
2014.000000	68.309742
2013.000000	68.390154
2012.000000	68.469944
2011.000000	68.553123
2010.000000	68.642194
2009.000000	68.733290
2008.000000	68.823605
2007.000000	68.915696
2006.000000	69.008496
2005.000000	69.097904
2004.000000	69.179905
2003.000000	69.258208
2002.000000	69.336303
2001.000000	69.412408
2000.000000	69.490675
1999.000000	69.574709
1998.000000	69.654593
1997.000000	69.716078
1996.000000	69.765322
1995.000000	69.827248
1994.000000	69.912399
1993.000000	70.001053
1992.000000	70.075224
1991.000000	70.142156
1990.000000	70.214711
1989.000000	70.291784
1988.000000	70.367022
1987.000000	70.443410
1986.000000	70.525679
1985.000000	70.611116
1984.000000	70.692399
1983.000000	70.768915
1982.000000	70.838902
1981.000000	70.894154
1980.000000	70.935286
1979.000000	70.972824
1978.000000	71.013496
1977.000000	71.054860
1976.000000	71.099168
1975.000000	71.154075
1974.000000	71.214777
1973.000000	71.260410
1972.000000	71.277473
1971.000000	71.276605
1970.000000	71.283092
1969.000000	71.315472
1968.000000	71.374038
1967.000000	71.447098
1966.000000	71.520353
1965.000000	71.582970
1964.000000	71.635039
1963.000000	71.683294
1962.000000	71.726603
1961.000000	71.757871
1960.000000	71.778747
1959.000000	71.801115
1958.000000	71.835220
1957.000000	71.881155
1956.000000	71.937708
1955.000000	72.001396
1954.000000	72.062320
1953.000000	72.108288
1952.000000	72.128998
1951.000000	72.128393
1950.000000	72.119736
1949.000000	72.110564
1948.000000	72.101473
1947.000000	72.094706
1946.000000	72.102447
1945.000000	72.143911
1944.000000	72.220814
1943.000000	72.306368
1942.000000	72.373378
1941.000000	72.413843
1940.000000	72.436012
1939.000000	72.451933
1938.000000	72.465220
1937.000000	72.477222
1936.000000	72.499949
1935.000000	72.540828
1934.000000	72.592767
1933.000000	72.643447
1932.000000	72.679248
1931.000000	72.706603
1930.000000	72.728922
1929.000000	72.734456
1928.000000	72.707389
1927.000000	72.648886
1926.000000	72.603117
1925.000000	72.614349
1924.000000	72.674971
1923.000000	72.745501
1922.000000	72.803286
1921.000000	72.853692
1920.000000	72.905403
1919.000000	72.942026
1918.000000	72.953879
1917.000000	72.958456
1916.000000	72.971252
1915.000000	72.984770
1914.000000	72.979911
1913.000000	72.952734
1912.000000	72.923000
1911.000000	72.921331
1910.000000	72.947966
1909.000000	72.986300
1908.000000	73.029791
1907.000000	73.077597
1906.000000	73.136760
1905.000000	73.199399
1904.000000	73.248866
1903.000000	73.285254
1902.000000	73.308015
1901.000000	73.304529
1900.000000	73.267122
1899.000000	73.208138
1898.000000	73.167073
1897.000000	73.173609
1896.000000	73.216179
1895.000000	73.260195
1894.000000	73.281323
1893.000000	73.280921
1892.000000	73.286509
1891.000000	73.310652
1890.000000	73.327772
1889.000000	73.319302
1888.000000	73.298966
1887.000000	73.291673
1886.000000	73.307463
1885.000000	73.330955
1884.000000	73.343727
1883.000000	73.351174
1882.000000	73.360862
1881.000000	73.367079
1880.000000	73.370565
1879.000000	73.377538
1878.000000	73.390918
1877.000000	73.409590
1876.000000	73.425189
1875.000000	73.426396
1874.000000	73.398138
1873.000000	73.322232
1872.000000	73.206801
1871.000000	73.107832
1870.000000	73.071973
1869.000000	73.093535
1868.000000	73.153341
1867.000000	73.235445
1866.000000	73.316735
1865.000000	73.371556
1864.000000	73.388685
1863.000000	73.379412
1862.000000	73.359900
1861.000000	73.335879
1860.000000	73.310382
1859.000000	73.293409
1858.000000	73.288451
1857.000000	73.290649
1856.000000	73.292123
1855.000000	73.300743
1854.000000	73.311393
1853.000000	73.290214
1852.000000	73.234284
1851.000000	73.169173
1850.000000	73.115097
1849.000000	73.072125
1848.000000	73.053590
1847.000000	73.092594
1846.000000	73.170910
1845.000000	73.197548
1844.000000	73.141881
1843.000000	73.065842
1842.000000	73.003171
1841.000000	72.954687
1840.000000	72.918258
1839.000000	72.895324
1838.000000	72.893786
1837.000000	72.899384
1836.000000	72.882530
1835.000000	72.828758
1834.000000	72.726064
1833.000000	72.590758
1832.000000	72.505674
1831.000000	72.493456
1830.000000	72.492759
1829.000000	72.472735
1828.000000	72.450911
1827.000000	72.450514
1826.000000	72.446970
1825.000000	72.407448
1824.000000	72.351696
1823.000000	72.308132
1822.000000	72.264958
1821.000000	72.203968
1820.000000	72.133474
1819.000000	72.070277
1818.000000	72.022789
1817.000000	71.970849
1816.000000	71.894528
1815.000000	71.792761
1814.000000	71.679453
1813.000000	71.590886
1812.000000	71.536033
1811.000000	71.494819
1810.000000	71.461078
1809.000000	71.436175
1808.000000	71.415730
1807.000000	71.387888
1806.000000	71.344145
1805.000000	71.270259
1804.000000	71.173966
1803.000000	71.093646
1802.000000	71.042285
1801.000000	71.008034
1800.000000	70.969758
1799.000000	70.925218
1798.000000	70.888241
1797.000000	70.860769
1796.000000	70.841817
1795.000000	70.841680
1794.000000	70.856454
1793.000000	70.849087
1792.000000	70.800650
1791.000000	70.753722
1790.000000	70.739123
1789.000000	70.746726
1788.000000	70.750099
1787.000000	70.720653
1786.000000	70.639960
1785.000000	70.487105
1784.000000	70.288193
1783.000000	70.126245
1782.000000	70.027899
1781.000000	69.960075
1780.000000	69.888203
1779.000000	69.819322
1778.000000	69.742770
1777.000000	69.623088
1776.000000	69.484563
1775.000000	69.425133
1774.000000	69.478193
1773.000000	69.518713
1772.000000	69.458214
1771.000000	69.341755
1770.000000	69.235981
1769.000000	69.154400
1768.000000	69.077807
1767.000000	69.005407
1766.000000	68.939480
1765.000000	68.883426
1764.000000	68.847972
1763.000000	68.799916
1762.000000	68.691366
1761.000000	68.547329
1760.000000	68.414837
1759.000000	68.350406
1758.000000	68.321947
1757.000000	68.235238
1756.000000	68.084417
1755.000000	67.922293
1754.000000	67.763377
1753.000000	67.573718
1752.000000	67.336799
1751.000000	67.114154
1750.000000	66.983672
1749.000000	66.907802
1748.000000	66.831755
1747.000000	66.754460
1746.000000	66.680643
1745.000000	66.616691
1744.000000	66.564904
1743.000000	66.520876
1742.000000	66.482087
1741.000000	66.428766
1740.000000	66.319993
1739.000000	66.162424
1738.000000	65.985640
1737.000000	65.840051
1736.000000	65.750798
1735.000000	65.576836
1734.000000	65.270081
1733.000000	64.976122
1732.000000	64.747705
1731.000000	64.601108
1730.000000	64.503384
1729.000000	64.379249
1728.000000	64.218543
1727.000000	64.044785
1726.000000	63.859356
1725.000000	63.669435
1724.000000	63.474671
1723.000000	63.257011
1722.000000	62.964104
1721.000000	62.568468
1720.000000	62.178074
1719.000000	61.900530
1718.000000	61.699262
1717.000000	61.529902
1716.000000	61.353642
1715.000000	61.133740
1714.000000	60.892137
1713.000000	60.651896
1712.000000	60.411220
1711.000000	60.171261
1710.000000	59.914108
1709.000000	59.611624
1708.000000	59.304648
1707.000000	59.049009
1706.000000	58.829390
1705.000000	58.638848
1704.000000	58.535278
1703.000000	58.534342
1702.000000	58.421076
1701.000000	57.913399
1700.000000	57.154018
1699.000000	56.544497
1698.000000	56.319331
1697.000000	56.319889
1696.000000	56.175602
1695.000000	55.842137
1694.000000	55.432298
1693.000000	55.024407
1692.000000	54.660519
1691.000000	54.325560
1690.000000	53.969075
1689.000000	53.577857
1688.000000	53.230082
1687.000000	53.018991
1686.000000	53.001671
1685.000000	52.899127
1684.000000	52.488940
1683.000000	52.032397
1682.000000	51.698219
1681.000000	51.479637
1680.000000	51.327460
1679.000000	51.210155
1678.000000	51.110240
1677.000000	50.945804
1676.000000	50.623016
1675.000000	50.194647
1674.000000	49.780238
1673.000000	49.436175
1672.000000	49.184774
1671.000000	48.998954
1670.000000	48.773359
1669.000000	48.466182
1668.000000	48.147008
1667.000000	47.872998
1666.000000	47.643207
1665.000000	47.432312
1664.000000	47.199462
1663.000000	46.927275
1662.000000	46.633948
1661.000000	46.337787
1660.000000	46.063938
1659.000000	45.815434
1658.000000	45.551686
1657.000000	45.238694
1656.000000	44.984852
1655.000000	44.973360
1654.000000	44.878332
1653.000000	44.477386
1652.000000	44.070041
1651.000000	43.662664
1650.000000	43.275450
1649.000000	43.050209
1648.000000	42.961611
1647.000000	42.813270
1646.000000	42.579184
1645.000000	42.326432
1644.000000	42.062672
1643.000000	41.823149
1642.000000	41.608328
1641.000000	41.370367
1640.000000	41.094467
1639.000000	40.845475
1638.000000	40.738485
1637.000000	40.709664
1636.000000	40.541092
1635.000000	40.244271
1634.000000	39.957986
1633.000000	39.713216
1632.000000	39.502222
1631.000000	39.314540
1630.000000	39.141820
1629.000000	38.963856
1628.000000	38.763581
1627.000000	38.562135
1626.000000	38.382377
1625.000000	38.228220
1624.000000	38.073688
1623.000000	37.906061
1622.000000	37.733598
1621.000000	37.549746
1620.000000	37.384037
1619.000000	37.312454
1618.000000	37.334982
1617.000000	37.328353
1616.000000	37.236678
1615.000000	37.112861
1614.000000	37.007943
1613.000000	36.928808
1612.000000	36.856199
1611.000000	36.795672
1610.000000	36.766095
1609.000000	36.755530
1608.000000	36.736623
1607.000000	36.715041
1606.000000	36.699939
1605.000000	36.685776
1604.000000	36.678129
1603.000000	36.692229
1602.000000	36.725841
1601.000000	36.752076
1600.000000	36.755102
1599.000000	36.745938
1598.000000	36.738793
1597.000000	36.737799
1596.000000	36.745507
1595.000000	36.769662
1594.000000	36.808948
1593.000000	36.848724
1592.000000	36.882052
1591.000000	36.919704
1590.000000	36.964115
1589.000000	36.999335
1588.000000	37.014024
1587.000000	37.020581
1586.000000	37.034742
1585.000000	37.042197
1584.000000	37.039629
1583.000000	37.044010
1582.000000	37.043785
1581.000000	36.990530
1580.000000	36.880889
1579.000000	36.804293
1578.000000	36.859614
1577.000000	36.984815
1576.000000	37.042893
1575.000000	37.028121
1574.000000	36.980644
1573.000000	36.933228
1572.000000	36.914348
1571.000000	36.928956
1570.000000	36.933612
1569.000000	36.889237
1568.000000	36.825448
1567.000000	36.791095
1566.000000	36.805143
1565.000000	36.837733
1564.000000	36.872764
1563.000000	36.949414
1562.000000	37.022642
1561.000000	37.114692
1560.000000	37.338400
1559.000000	37.448268
1558.000000	37.484468
1557.000000	37.524957
1556.000000	37.586299
1555.000000	37.715302
1554.000000	37.855135
1553.000000	37.969111
1552.000000	38.088103
1551.000000	38.264510
1550.000000	38.492218
1549.000000	38.713410
1548.000000	38.879814
1547.000000	38.994165
1546.000000	39.106435
1545.000000	39.242729
1544.000000	39.374692
1543.000000	39.480863
1542.000000	39.714958
1541.000000	40.168025
1540.000000	40.643000
1539.000000	41.034950
1538.000000	41.316934
1537.000000	41.489145
1536.000000	41.647304
1535.000000	41.894395
1534.000000	42.217382
1533.000000	42.542966
1532.000000	42.843820
1531.000000	43.122808
1530.000000	43.403246
1529.000000	43.709652
1528.000000	44.055615
1527.000000	44.433417
1526.000000	44.799233
1525.000000	45.111160
1524.000000	45.426117
1523.000000	45.883432
1522.000000	46.467528
1521.000000	47.008040
1520.000000	47.398470
1519.000000	47.713475
1518.000000	48.130911
1517.000000	48.669425
1516.000000	49.214563
1515.000000	49.703900
1514.000000	50.128758
1513.000000	50.495780
1512.000000	50.771350
1511.000000	50.924398
1510.000000	50.996950
1509.000000	51.309843
1508.000000	52.130513
1507.000000	53.055943
1506.000000	53.814356
1505.000000	54.367162
1504.000000	54.712597
1503.000000	55.020992
1502.000000	55.393730
1501.000000	55.788062
1500.000000	56.146957
1499.000000	56.509771
1498.000000	56.948555
1497.000000	57.455004
1496.000000	57.945561
1495.000000	58.354519
1494.000000	58.656392
1493.000000	58.852828
1492.000000	59.000632
1491.000000	59.220969
1490.000000	59.568991
1489.000000	60.001020
1488.000000	60.429193
1487.000000	60.802178
1486.000000	61.128217
1485.000000	61.386863
1484.000000	61.588939
1483.000000	61.790944
1482.000000	62.024598
1481.000000	62.256761
1480.000000	62.441104
1479.000000	62.565020
1478.000000	62.630883
1477.000000	62.645051
1476.000000	62.621559
1475.000000	62.645270
1474.000000	62.771157
1473.000000	62.873775
1472.000000	62.834430
1471.000000	62.701060
1470.000000	62.532068
1469.000000	62.333130
1468.000000	62.085883
1467.000000	61.789047
1466.000000	61.408939
1465.000000	60.860909
1464.000000	60.190587
1463.000000	59.528823
1462.000000	58.906354
1461.000000	58.267479
1460.000000	57.633431
1459.000000	57.119518
1458.000000	56.580831
1457.000000	55.726051
1456.000000	54.714500
1455.000000	53.789715
1454.000000	52.908297
1453.000000	51.936630
1452.000000	50.808889
1451.000000	49.554290
1450.000000	48.164828
1449.000000	46.563647
1448.000000	44.739025
1447.000000	42.831687
1446.000000	40.924681
1445.000000	38.964035
1444.000000	36.912360
1443.000000	34.786639
1442.000000	32.602963
1441.000000	30.408263
1440.000000	28.311607
1439.000000	26.309910
1438.000000	24.167428
1437.000000	21.709906
1436.000000	19.283705
1435.000000	17.380879
1434.000000	15.983690
1433.000000	14.814225
1432.000000	13.775420
1431.000000	12.919014
1430.000000	12.238844
1429.000000	11.688585
1428.000000	11.322332
1427.000000	11.208205
1426.000000	11.301785
1425.000000	11.547485
1424.000000	11.985580
1423.000000	12.630994
1422.000000	13.389084
1421.000000	14.217976
1420.000000	15.249643
1419.000000	16.555543
1418.000000	17.934843
1417.000000	19.211254
1416.000000	20.464728
1415.000000	21.802667
1414.000000	23.196569
1413.000000	24.601976
1412.000000	26.059988
1411.000000	27.596495
1410.000000	29.137439
1409.000000	30.618027
1408.000000	32.064724
1407.000000	33.537498
1406.000000	35.053573
1405.000000	36.594236
1404.000000	38.127855
1403.000000	39.586785
1402.000000	40.920745
1401.000000	42.181972
1400.000000	43.473723
1399.000000	44.797158
1398.000000	46.067399
1397.000000	47.290489
1396.000000	48.563054
1395.000000	49.901719
1394.000000	51.200667
1393.000000	52.380759
1392.000000	53.457444
1391.000000	54.460236
1390.000000	55.395319
1389.000000	56.295481
1388.000000	57.201901
1387.000000	58.089183
1386.000000	58.893476
1385.000000	59.598814
1384.000000	60.230169
1383.000000	60.774522
1382.000000	61.191238
1381.000000	61.461026
1380.000000	61.570954
1379.000000	61.481418
1378.000000	61.152587
1377.000000	60.580405
1376.000000	59.764195
1375.000000	58.655415
1374.000000	57.200789
1373.000000	55.467407
1372.000000	53.607592
1371.000000	51.767065
1370.000000	50.097683
1369.000000	48.790375
1368.000000	48.032001
1367.000000	47.895817
1366.000000	48.324672
1365.000000	49.234142
1364.000000	50.566828
1363.000000	52.210891
1362.000000	53.952119
1361.000000	55.581463
1360.000000	56.992001
1359.000000	58.156747
1358.000000	59.071614
1357.000000	59.733667
1356.000000	60.132361
1355.000000	60.242459
1354.000000	60.035434
1353.000000	59.503785
1352.000000	58.652788
1351.000000	57.494154
1350.000000	56.040700
1349.000000	54.309156
1348.000000	52.319358
1347.000000	50.091498
1346.000000	47.646698
1345.000000	45.012598
1344.000000	42.240498
1343.000000	39.400131
1342.000000	36.562105
1341.000000	33.800550
1340.000000	31.223050
1339.000000	28.981793
1338.000000	27.210401
1337.000000	25.941138
1336.000000	25.107264
1335.000000	24.585948
1334.000000	24.209913
1333.000000	23.788331
1332.000000	23.154419
1331.000000	22.206021
1330.000000	20.917275
1329.000000	19.332441
1328.000000	17.554746
1327.000000	15.722428
1326.000000	13.963977
1325.000000	12.369790
1324.000000	11.004562
1323.000000	9.915991
1322.000000	9.112416
1321.000000	8.557716
1320.000000	8.204760
1319.000000	8.006783
1318.000000	7.902688
1317.000000	7.825963
1316.000000	7.738149
1315.000000	7.636039
1314.000000	7.519509
1313.000000	7.381806
1312.000000	7.231825
1311.000000	7.093966
1310.000000	6.981880
1309.000000	6.895988
1308.000000	6.848720
1307.000000	6.865379
1306.000000	6.956213
1305.000000	7.114654
1304.000000	7.341686
1303.000000	7.646236
1302.000000	8.021589
1301.000000	8.445085
1300.000000	8.905828
1299.000000	9.406467
1298.000000	9.940846
1297.000000	10.495075
1296.000000	11.067201
1295.000000	11.665213
1294.000000	12.285300
1293.000000	12.913295
1292.000000	13.544495
1291.000000	14.180802
1290.000000	14.810088
1289.000000	15.406889
1288.000000	15.947979
1287.000000	16.408488
1286.000000	16.752555
1285.000000	16.950365
1284.000000	17.011315
1283.000000	16.991265
1282.000000	16.968855
1281.000000	17.022671
1280.000000	17.217809
1279.000000	17.585226
1278.000000	18.106123
1277.000000	18.731538
1276.000000	19.416533
1275.000000	20.130646
1274.000000	20.849241
1273.000000	21.554937
1272.000000	22.246263
1271.000000	22.927683
1270.000000	23.594863
1269.000000	24.240606
1268.000000	24.868098
1267.000000	25.484353
1266.000000	26.086552
1265.000000	26.667028
1264.000000	27.226557
1263.000000	27.772688
1262.000000	28.308711
1261.000000	28.834678
1260.000000	29.353988
1259.000000	29.868596
1258.000000	30.373500
1257.000000	30.863779
1256.000000	31.342312
1255.000000	31.813544
1254.000000	32.275967
1253.000000	32.727799
1252.000000	33.173063
1251.000000	33.615966
1250.000000	34.054792
1249.000000	34.486125
1248.000000	34.910537
1247.000000	35.328589
1246.000000	35.736892
1245.000000	36.133428
1244.000000	36.520906
1243.000000	36.901597
1242.000000	37.274068
1241.000000	37.638726
1240.000000	38.000626
1239.000000	38.362605
1238.000000	38.721634
1237.000000	39.074178
1236.000000	39.419483
1235.000000	39.755750
1234.000000	40.078909
1233.000000	40.388679
1232.000000	40.690459
1231.000000	40.989132
1230.000000	41.286259
1229.000000	41.583966
1228.000000	41.885863
1227.000000	42.192185
1226.000000	42.499170
1225.000000	42.804383
1224.000000	43.107401
1223.000000	43.405760
1222.000000	43.696443
1221.000000	43.981346
1220.000000	44.265979
1219.000000	44.552314
1218.000000	44.838029
1217.000000	45.121937
1216.000000	45.404235
1215.000000	45.683072
1214.000000	45.956273
1213.000000	46.225941
1212.000000	46.495863
1211.000000	46.765281
1210.000000	47.031159
1209.000000	47.294070
1208.000000	47.556072
1207.000000	47.814926
1206.000000	48.066562
1205.000000	48.311538
1204.000000	48.552737
1203.000000	48.789605
1202.000000	49.021107
1201.000000	49.250614
1200.000000	49.482076
1199.000000	49.713151
1198.000000	49.937108
1197.000000	50.149042
1196.000000	50.342668
1195.000000	50.506521
1194.000000	50.628499
1193.000000	50.701009
1192.000000	50.718945
1191.000000	50.675915
1190.000000	50.572673
1189.000000	50.426379
1188.000000	50.267265
1187.000000	50.129731
1186.000000	50.047353
1185.000000	50.047636
1184.000000	50.141334
1183.000000	50.316663
1182.000000	50.546787
1181.000000	50.806439
1180.000000	51.078661
1179.000000	51.352954
1178.000000	51.626598
1177.000000	51.902856
1176.000000	52.183197
1175.000000	52.462337
1174.000000	52.734161
1173.000000	52.997710
1172.000000	53.253050
1171.000000	53.496656
1170.000000	53.726251
1169.000000	53.945183
1168.000000	54.156303
1167.000000	54.358150
1166.000000	54.551536
1165.000000	54.743846
1164.000000	54.941545
1163.000000	55.143568
1162.000000	55.347603
1161.000000	55.555466
1160.000000	55.766692
1159.000000	55.974291
1158.000000	56.172419
1157.000000	56.362370
1156.000000	56.545951
1155.000000	56.720526
1154.000000	56.886119
1153.000000	57.048678
1152.000000	57.211117
1151.000000	57.368659
1150.000000	57.518465
1149.000000	57.666144
1148.000000	57.816563
1147.000000	57.966928
1146.000000	58.114512
1145.000000	58.262155
1144.000000	58.410387
1143.000000	58.552083
1142.000000	58.681249
1141.000000	58.799307
1140.000000	58.907741
1139.000000	59.004434
1138.000000	59.092364
1137.000000	59.183011
1136.000000	59.285332
1135.000000	59.399023
1134.000000	59.522766
1133.000000	59.658484
1132.000000	59.801692
1131.000000	59.937613
1130.000000	60.053821
1129.000000	60.149514
1128.000000	60.228349
1127.000000	60.292790
1126.000000	60.351333
1125.000000	60.419970
1124.000000	60.509314
1123.000000	60.617750
1122.000000	60.740636
1121.000000	60.875520
1120.000000	61.013450
1119.000000	61.137581
1118.000000	61.238136
1117.000000	61.320049
1116.000000	61.391309
1115.000000	61.454976
1114.000000	61.517517
1113.000000	61.592104
1112.000000	61.684985
1111.000000	61.789680
1110.000000	61.898978
1109.000000	62.012403
1108.000000	62.127679
1107.000000	62.235958
1106.000000	62.333646
1105.000000	62.427262
1104.000000	62.520799
1103.000000	62.608696
1102.000000	62.687841
1101.000000	62.762938
1100.000000	62.836339
1099.000000	62.903886
1098.000000	62.966728
1097.000000	63.037469
1096.000000	63.126321
1095.000000	63.233113
1094.000000	63.356474
1093.000000	63.497690
1092.000000	63.649312
1091.000000	63.792784
1090.000000	63.914957
1089.000000	64.016784
1088.000000	64.102059
1087.000000	64.172087
1086.000000	64.237044
1085.000000	64.317954
1084.000000	64.428743
1083.000000	64.566094
1082.000000	64.720295
1081.000000	64.882678
1080.000000	65.037639
1079.000000	65.162937
1078.000000	65.247913
1077.000000	65.299921
1076.000000	65.329326
1075.000000	65.341293
1074.000000	65.345002
1073.000000	65.355465
1072.000000	65.375550
1071.000000	65.388827
1070.000000	65.374406
1069.000000	65.315441
1068.000000	65.193505
1067.000000	64.989173
1066.000000	64.700149
1065.000000	64.349788
1064.000000	63.974065
1063.000000	63.612880
1062.000000	63.313171
1061.000000	63.120949
1060.000000	63.058321
1059.000000	63.117830
1058.000000	63.277311
1057.000000	63.514364
1056.000000	63.804008
1055.000000	64.116222
1054.000000	64.430409
1053.000000	64.738762
1052.000000	65.032945
1051.000000	65.299247
1050.000000	65.532202
1049.000000	65.739971
1048.000000	65.930053
1047.000000	66.103996
1046.000000	66.270155
1045.000000	66.446026
1044.000000	66.640261
1043.000000	66.845681
1042.000000	67.053162
1041.000000	67.258173
1040.000000	67.450167
1039.000000	67.611703
1038.000000	67.736893
1037.000000	67.838259
1036.000000	67.930265
1035.000000	68.020711
1034.000000	68.121385
1033.000000	68.249803
1032.000000	68.411735
1031.000000	68.594324
1030.000000	68.782029
1029.000000	68.966043
1028.000000	69.134751
1027.000000	69.272251
1026.000000	69.374844
1025.000000	69.456072
1024.000000	69.529740
1023.000000	69.601379
1022.000000	69.679754
1021.000000	69.779203
1020.000000	69.903688
1019.000000	70.042054
1018.000000	70.184393
1017.000000	70.329206
1016.000000	70.470071
1015.000000	70.592242
1014.000000	70.689294
1013.000000	70.769342
1012.000000	70.839713
1011.000000	70.900379
1010.000000	70.957003
1009.000000	71.024376
1008.000000	71.110462
1007.000000	71.210508
1006.000000	71.320801
1005.000000	71.443364
1004.000000	71.572683
1003.000000	71.692930
1002.000000	71.794595
1001.000000	71.880883
1000.000000	71.954559
999.000000	72.013252
998.000000	72.062052
997.000000	72.115481
996.000000	72.181463
995.000000	72.256442
994.000000	72.339603
993.000000	72.436690
992.000000	72.545405
991.000000	72.652276
990.000000	72.749195
989.000000	72.839182
988.000000	72.921442
987.000000	72.986943
986.000000	73.033947
985.000000	73.073496
984.000000	73.114241
983.000000	73.155899
982.000000	73.201995
981.000000	73.263510
980.000000	73.344169
979.000000	73.435576
978.000000	73.530895
977.000000	73.628856
976.000000	73.720729
975.000000	73.789673
974.000000	73.829611
973.000000	73.850608
972.000000	73.862628
971.000000	73.869081
970.000000	73.879529
969.000000	73.911072
968.000000	73.970087
967.000000	74.046267
966.000000	74.128705
965.000000	74.213351
964.000000	74.291039
963.000000	74.345939
962.000000	74.373239
961.000000	74.384696
960.000000	74.391622
959.000000	74.397255
958.000000	74.408461
957.000000	74.437359
956.000000	74.484861
955.000000	74.537398
954.000000	74.585361
953.000000	74.630357
952.000000	74.671246
951.000000	74.699952
950.000000	74.716755
949.000000	74.733554
948.000000	74.756069
947.000000	74.777333
946.000000	74.793078
945.000000	74.807063
944.000000	74.817354
943.000000	74.814360
942.000000	74.798630
941.000000	74.785261
940.000000	74.785028
939.000000	74.795914
938.000000	74.815864
937.000000	74.846794
936.000000	74.880629
935.000000	74.897908
934.000000	74.887253
933.000000	74.853129
932.000000	74.801632
931.000000	74.735726
930.000000	74.667647
929.000000	74.617882
928.000000	74.594556
927.000000	74.586993
926.000000	74.583005
925.000000	74.576042
924.000000	74.553679
923.000000	74.498414
922.000000	74.406800
921.000000	74.293260
920.000000	74.170195
919.000000	74.039721
918.000000	73.906904
917.000000	73.781763
916.000000	73.663586
915.000000	73.538504
914.000000	73.397741
913.000000	73.243801
912.000000	73.074947
911.000000	72.882371
910.000000	72.665871
909.000000	72.435448
908.000000	72.192681
907.000000	71.925368
906.000000	71.626179
905.000000	71.299360
904.000000	70.946214
903.000000	70.562480
902.000000	70.152817
901.000000	69.732370
900.000000	69.307792
899.000000	68.869693
898.000000	68.408395
897.000000	67.919376
896.000000	67.391697
895.000000	66.807353
894.000000	66.157699
893.000000	65.450631
892.000000	64.696125
891.000000	63.900635
890.000000	63.075631
889.000000	62.234484
888.000000	61.378664
887.000000	60.494860
886.000000	59.569543
885.000000	58.595324
884.000000	57.561691
883.000000	56.457063
882.000000	55.281164
881.000000	54.046951
880.000000	52.768317
879.000000	51.453806
878.000000	50.114585
877.000000	48.765027
876.000000	47.414149
875.000000	46.064152
874.000000	44.718476
873.000000	43.384569
872.000000	42.068962
871.000000	40.776781
870.000000	39.515968
869.000000	38.299016
868.000000	37.136702
867.000000	36.035749
866.000000	35.002662
865.000000	34.043340
864.000000	33.161677
863.000000	32.356047
862.000000	31.621517
861.000000	30.954492
860.000000	30.350046
859.000000	29.801080
858.000000	29.298141
857.000000	28.832781
856.000000	28.401127
855.000000	28.001659
854.000000	27.636431
853.000000	27.311209
852.000000	27.033706
851.000000	26.812098
850.000000	26.651579
849.000000	26.555458
848.000000	26.524841
847.000000	26.557665
846.000000	26.651689
845.000000	26.804265
844.000000	27.014311
843.000000	27.283766
842.000000	27.617495
841.000000	28.023631
840.000000	28.508334
839.000000	29.076707
838.000000	29.732981
837.000000	30.476967
836.000000	31.301287
835.000000	32.193593
834.000000	33.136514
833.000000	34.095940
832.000000	34.999301
831.000000	35.681956
830.000000	35.822656
829.000000	34.945224
828.000000	32.649663
827.000000	29.046715
826.000000	24.992524
825.000000	21.756316
824.000000	20.283932
823.000000	20.689907
822.000000	22.400224
821.000000	24.696857
820.000000	27.082339
819.000000	29.306136
818.000000	31.274312
817.000000	32.986551
816.000000	34.495809
815.000000	35.849733
814.000000	37.073936
813.000000	38.195900
812.000000	39.247634
811.000000	40.240451
810.000000	41.166536
809.000000	42.026953
808.000000	42.830564
807.000000	43.577037
806.000000	44.262276
805.000000	44.899531
804.000000	45.509898
803.000000	46.096809
802.000000	46.655330
801.000000	47.196311
800.000000	47.739236
799.000000	48.288718
798.000000	48.839457
797.000000	49.395804
796.000000	49.962683
795.000000	50.526532
794.000000	51.067435
793.000000	51.581511
792.000000	52.073071
791.000000	52.536469
790.000000	52.966512
789.000000	53.376124
788.000000	53.784088
787.000000	54.196049
786.000000	54.613451
785.000000	55.046972
784.000000	55.502098
783.000000	55.963027
782.000000	56.408839
781.000000	56.834155
780.000000	57.238374
779.000000	57.610026
778.000000	57.940677
777.000000	58.242320
776.000000	58.534001
775.000000	58.823636
774.000000	59.117748
773.000000	59.432422
772.000000	59.776251
771.000000	60.134526
770.000000	60.485603
769.000000	60.820336
768.000000	61.131722
767.000000	61.403525
766.000000	61.627867
765.000000	61.819991
764.000000	62.000248
763.000000	62.175150
762.000000	62.349768
761.000000	62.540552
760.000000	62.758281
759.000000	62.993195
758.000000	63.231837
757.000000	63.473221
756.000000	63.714489
755.000000	63.938823
754.000000	64.134344
753.000000	64.308483
752.000000	64.469676
751.000000	64.613562
750.000000	64.741698
749.000000	64.874421
748.000000	65.028820
747.000000	65.202376
746.000000	65.392238
745.000000	65.609002
744.000000	65.853451
743.000000	66.099584
742.000000	66.318456
741.000000	66.500958
740.000000	66.643188
739.000000	66.734081
738.000000	66.777588
737.000000	66.805880
736.000000	66.851187
735.000000	66.921692
734.000000	67.018242
733.000000	67.148780
732.000000	67.306292
731.000000	67.455183
730.000000	67.560864
729.000000	67.615041
728.000000	67.620577
727.000000	67.577023
726.000000	67.499378
725.000000	67.429578
724.000000	67.406365
723.000000	67.438642
722.000000	67.522230
721.000000	67.659820
720.000000	67.845347
719.000000	68.051777
718.000000	68.256289
717.000000	68.458842
716.000000	68.660067
715.000000	68.845693
714.000000	69.010459
713.000000	69.171828
712.000000	69.341536
711.000000	69.508095
710.000000	69.666437
709.000000	69.837019
708.000000	70.037438
707.000000	70.261491
706.000000	70.500901
705.000000	70.760594
704.000000	71.031293
703.000000	71.272679
702.000000	71.451458
701.000000	71.571968
700.000000	71.649791
699.000000	71.690557
698.000000	71.714036
697.000000	71.768055
696.000000	71.889022
695.000000	72.069477
694.000000	72.289244
693.000000	72.541440
692.000000	72.801596
691.000000	73.015046
690.000000	73.145947
689.000000	73.212199
688.000000	73.244705
687.000000	73.247970
686.000000	73.238319
685.000000	73.271643
684.000000	73.387840
683.000000	73.566984
682.000000	73.774713
681.000000	74.004924
680.000000	74.241237
679.000000	74.430387
678.000000	74.544094
677.000000	74.608243
676.000000	74.649427
675.000000	74.674836
674.000000	74.703953
673.000000	74.781874
672.000000	74.940713
671.000000	75.174118
670.000000	75.461326
669.000000	75.756199
668.000000	75.936943
667.000000	75.977632
666.000000	75.995714
665.000000	76.032861
664.000000	76.083041
663.000000	76.136372
662.000000	76.177526
661.000000	76.205593
660.000000	76.230509
659.000000	76.267880
658.000000	76.339552
657.000000	76.459141
656.000000	76.622928
655.000000	76.827369
654.000000	77.056468
653.000000	77.271551
652.000000	77.437139
651.000000	77.538573
650.000000	77.575304
649.000000	77.554853
648.000000	77.503487
647.000000	77.467026
646.000000	77.486881
645.000000	77.581073
644.000000	77.741891
643.000000	77.942140
642.000000	78.148248
641.000000	78.330642
640.000000	78.467303
639.000000	78.545192
638.000000	78.564039
637.000000	78.541803
636.000000	78.511260
635.000000	78.504804
634.000000	78.543274
633.000000	78.633153
632.000000	78.767152
631.000000	78.928621
630.000000	79.099114
629.000000	79.261337
628.000000	79.398157
627.000000	79.497015
626.000000	79.557955
625.000000	79.592439
624.000000	79.606120
623.000000	79.596843
622.000000	79.576549
621.000000	79.575295
620.000000	79.615128
619.000000	79.694973
618.000000	79.808560
617.000000	79.957967
616.000000	80.133504
615.000000	80.297991
614.000000	80.409406
613.000000	80.449584
612.000000	80.419775
611.000000	80.325980
610.000000	80.182028
609.000000	80.006771
608.000000	79.802500
607.000000	79.536418
606.000000	79.149658
605.000000	78.556592
604.000000	77.615462
603.000000	76.121086
602.000000	73.828643
601.000000	70.527964
600.000000	66.175236
599.000000	61.069681
598.000000	55.912493
597.000000	51.601289
596.000000	48.881340
595.000000	48.069853
594.000000	48.977206
593.000000	51.067297
592.000000	53.760954
591.000000	56.601350
590.000000	59.283556
589.000000	61.671339
588.000000	63.751714
587.000000	65.554750
586.000000	67.105016
585.000000	68.425767
584.000000	69.545166
583.000000	70.501307
582.000000	71.351361
581.000000	72.163710
580.000000	72.973605
579.000000	73.752555
578.000000	74.456529
577.000000	75.075228
576.000000	75.611924
575.000000	76.043960
574.000000	76.344706
573.000000	76.532852
572.000000	76.661847
571.000000	76.784315
570.000000	76.947878
569.000000	77.192808
568.000000	77.523220
567.000000	77.891243
566.000000	78.234200
565.000000	78.520616
564.000000	78.741727
563.000000	78.889356
562.000000	78.971419
561.000000	79.026322
560.000000	79.093430
559.000000	79.182802
558.000000	79.291546
557.000000	79.424699
556.000000	79.580068
555.000000	79.734718
554.000000	79.872099
553.000000	80.003283
552.000000	80.142036
551.000000	80.280819
550.000000	80.409626
549.000000	80.531254
548.000000	80.639294
547.000000	80.710973
546.000000	80.742084
545.000000	80.761619
544.000000	80.795661
543.000000	80.851498
542.000000	80.948141
541.000000	81.120583
540.000000	81.367441
539.000000	81.628839
538.000000	81.840116
537.000000	81.978138
536.000000	82.036697
535.000000	82.002621
534.000000	81.894357
533.000000	81.785598
532.000000	81.750815
531.000000	81.812498
530.000000	81.959488
529.000000	82.174400
528.000000	82.415587
527.000000	82.614386
526.000000	82.723865
525.000000	82.738387
524.000000	82.654951
523.000000	82.453733
522.000000	82.137634
521.000000	81.752911
520.000000	81.343626
519.000000	80.916521
518.000000	80.476785
517.000000	80.061709
516.000000	79.707433
515.000000	79.421502
514.000000	79.215265
513.000000	79.122399
512.000000	79.146144
511.000000	79.219539
510.000000	79.249683
509.000000	79.174469
508.000000	78.942034
507.000000	78.484651
506.000000	77.751127
505.000000	76.731988
504.000000	75.441803
503.000000	73.958744
502.000000	72.515054
501.000000	71.426744
500.000000	70.880606
499.000000	70.856090
498.000000	71.232861
497.000000	71.868075
496.000000	72.593779
495.000000	73.241810
494.000000	73.724627
493.000000	74.082499
492.000000	74.414529
491.000000	74.793766
490.000000	75.256302
489.000000	75.809596
488.000000	76.406593
487.000000	76.959150
486.000000	77.420322
485.000000	77.825624
484.000000	78.225440
483.000000	78.623393
482.000000	79.022270
481.000000	79.461055
480.000000	79.956056
479.000000	80.461276
478.000000	80.921797
477.000000	81.318023
476.000000	81.622818
475.000000	81.771878
474.000000	81.749825
473.000000	81.668261
472.000000	81.647129
471.000000	81.679685
470.000000	81.730591
469.000000	81.842307
468.000000	82.070363
467.000000	82.383606
466.000000	82.687358
465.000000	82.922215
464.000000	83.057860
463.000000	83.062273
462.000000	82.957515
461.000000	82.832337
460.000000	82.727659
459.000000	82.599815
458.000000	82.470860
457.000000	82.452725
456.000000	82.561243
455.000000	82.691864
454.000000	82.763715
453.000000	82.793989
452.000000	82.815730
451.000000	82.768730
450.000000	82.561342
449.000000	82.187976
448.000000	81.708976
447.000000	81.145273
446.000000	80.461934
445.000000	79.614054
444.000000	78.542833
443.000000	77.181415
442.000000	75.512924
441.000000	73.597832
440.000000	71.512287
439.000000	69.311439
438.000000	67.099238
437.000000	65.129246
436.000000	63.738787
435.000000	63.136685
434.000000	63.292265
433.000000	64.060319
432.000000	65.324864
431.000000	66.949664
430.000000	68.756130
429.000000	70.612420
428.000000	72.431930
427.000000	74.096215
426.000000	75.508942
425.000000	76.691724
424.000000	77.697739
423.000000	78.497758
422.000000	79.071982
421.000000	79.494831
420.000000	79.878069
419.000000	80.440734
418.000000	81.259450
417.000000	82.122360
416.000000	82.895332
415.000000	83.473328
414.000000	83.769586
413.000000	83.880633
412.000000	83.945775
411.000000	83.945276
410.000000	83.869803
409.000000	83.915222
408.000000	84.222618
407.000000	84.615153
406.000000	84.915251
405.000000	85.161673
404.000000	85.416957
403.000000	85.491441
402.000000	85.189776
401.000000	84.623547
400.000000	84.005550
