PE IR       SUBTECH     SPECTRUM    ASCII       PEDS        4.00        
   -1
23MS266, 217, 238_nitro.asc
24/09/09
16:22:29.00
24/09/09
16:22:29.00
Administrator
Sample 1141 By Administrator Date Monday, September 09 2024
400.000000
#HDR
-1
-1
#GR
cm-1
%T
1.0
0.0
4000.000000
-1.000000
3601
8
91.332526
4.256147
#DATA
4000.000000	52.090769
3999.000000	52.126410
3998.000000	52.163044
3997.000000	52.199914
3996.000000	52.236742
3995.000000	52.273210
3994.000000	52.308161
3993.000000	52.340408
3992.000000	52.370673
3991.000000	52.401850
3990.000000	52.436504
3989.000000	52.474513
3988.000000	52.513571
3987.000000	52.551420
3986.000000	52.586919
3985.000000	52.619430
3984.000000	52.648653
3983.000000	52.675499
3982.000000	52.702450
3981.000000	52.732053
3980.000000	52.764880
3979.000000	52.799362
3978.000000	52.833600
3977.000000	52.866913
3976.000000	52.899571
3975.000000	52.931704
3974.000000	52.962811
3973.000000	52.992229
3972.000000	53.020045
3971.000000	53.047764
3970.000000	53.077547
3969.000000	53.110568
3968.000000	53.146016
3967.000000	53.181334
3966.000000	53.213645
3965.000000	53.241380
3964.000000	53.265549
3963.000000	53.289573
3962.000000	53.317032
3961.000000	53.348586
3960.000000	53.381668
3959.000000	53.414001
3958.000000	53.445837
3957.000000	53.478539
3956.000000	53.512153
3955.000000	53.544887
3954.000000	53.575006
3953.000000	53.601718
3952.000000	53.625491
3951.000000	53.648160
3950.000000	53.673079
3949.000000	53.704518
3948.000000	53.743662
3947.000000	53.784162
3946.000000	53.815475
3945.000000	53.834153
3944.000000	53.849827
3943.000000	53.877194
3942.000000	53.920495
3941.000000	53.968175
3940.000000	54.006626
3939.000000	54.036919
3938.000000	54.070829
3937.000000	54.113132
3936.000000	54.154664
3935.000000	54.183573
3934.000000	54.200144
3933.000000	54.216085
3932.000000	54.242294
3931.000000	54.279394
3930.000000	54.319738
3929.000000	54.355802
3928.000000	54.383229
3927.000000	54.403036
3926.000000	54.424203
3925.000000	54.457598
3924.000000	54.503270
3923.000000	54.547765
3922.000000	54.580167
3921.000000	54.604095
3920.000000	54.628284
3919.000000	54.654788
3918.000000	54.682655
3917.000000	54.714746
3916.000000	54.752365
3915.000000	54.788742
3914.000000	54.816869
3913.000000	54.841090
3912.000000	54.872532
3911.000000	54.917840
3910.000000	54.974216
3909.000000	55.032766
3908.000000	55.085837
3907.000000	55.128157
3906.000000	55.158946
3905.000000	55.182262
3904.000000	55.203497
3903.000000	55.219218
3902.000000	55.217642
3901.000000	55.200356
3900.000000	55.192594
3899.000000	55.216684
3898.000000	55.265635
3897.000000	55.315918
3896.000000	55.356403
3895.000000	55.393818
3894.000000	55.431849
3893.000000	55.466153
3892.000000	55.504004
3891.000000	55.565495
3890.000000	55.644207
3889.000000	55.696823
3888.000000	55.699455
3887.000000	55.675951
3886.000000	55.674191
3885.000000	55.717643
3884.000000	55.769245
3883.000000	55.777008
3882.000000	55.749323
3881.000000	55.742852
3880.000000	55.797594
3879.000000	55.892833
3878.000000	55.965154
3877.000000	55.981655
3876.000000	55.972807
3875.000000	55.992507
3874.000000	56.062239
3873.000000	56.143126
3872.000000	56.177201
3871.000000	56.163259
3870.000000	56.164489
3869.000000	56.221297
3868.000000	56.285724
3867.000000	56.296333
3866.000000	56.269113
3865.000000	56.258189
3864.000000	56.286310
3863.000000	56.334981
3862.000000	56.375743
3861.000000	56.405590
3860.000000	56.445982
3859.000000	56.522162
3858.000000	56.649670
3857.000000	56.815057
3856.000000	56.962656
3855.000000	57.013597
3854.000000	56.957859
3853.000000	56.901922
3852.000000	56.895941
3851.000000	56.858565
3850.000000	56.774583
3849.000000	56.721139
3848.000000	56.737464
3847.000000	56.802876
3846.000000	56.880314
3845.000000	56.947678
3844.000000	57.006469
3843.000000	57.069001
3842.000000	57.134676
3841.000000	57.189896
3840.000000	57.224992
3839.000000	57.241012
3838.000000	57.250231
3837.000000	57.264147
3836.000000	57.279733
3835.000000	57.284987
3834.000000	57.280548
3833.000000	57.283767
3832.000000	57.313068
3831.000000	57.368727
3830.000000	57.428029
3829.000000	57.466927
3828.000000	57.489609
3827.000000	57.528415
3826.000000	57.606166
3825.000000	57.702287
3824.000000	57.769237
3823.000000	57.779928
3822.000000	57.762981
3821.000000	57.789920
3820.000000	57.877192
3819.000000	57.940566
3818.000000	57.922447
3817.000000	57.865384
3816.000000	57.847249
3815.000000	57.895189
3814.000000	57.954399
3813.000000	57.977796
3812.000000	57.995869
3811.000000	58.053269
3810.000000	58.141571
3809.000000	58.215600
3808.000000	58.253661
3807.000000	58.289419
3806.000000	58.354859
3805.000000	58.415773
3804.000000	58.423480
3803.000000	58.383888
3802.000000	58.350128
3801.000000	58.375521
3800.000000	58.438500
3799.000000	58.461152
3798.000000	58.434486
3797.000000	58.420168
3796.000000	58.457706
3795.000000	58.528305
3794.000000	58.587399
3793.000000	58.619556
3792.000000	58.643913
3791.000000	58.680381
3790.000000	58.729794
3789.000000	58.781764
3788.000000	58.826519
3787.000000	58.859958
3786.000000	58.886621
3785.000000	58.919257
3784.000000	58.964632
3783.000000	59.011221
3782.000000	59.041165
3781.000000	59.053879
3780.000000	59.069190
3779.000000	59.105532
3778.000000	59.155016
3777.000000	59.192933
3776.000000	59.215923
3775.000000	59.246284
3774.000000	59.297848
3773.000000	59.356182
3772.000000	59.399569
3771.000000	59.428009
3770.000000	59.461098
3769.000000	59.504244
3768.000000	59.533103
3767.000000	59.532238
3766.000000	59.528826
3765.000000	59.560228
3764.000000	59.623760
3763.000000	59.680135
3762.000000	59.706259
3761.000000	59.718900
3760.000000	59.742664
3759.000000	59.783769
3758.000000	59.836723
3757.000000	59.898263
3756.000000	59.969509
3755.000000	60.047672
3754.000000	60.124520
3753.000000	60.184233
3752.000000	60.208265
3751.000000	60.202146
3750.000000	60.206543
3749.000000	60.247372
3748.000000	60.295558
3747.000000	60.310581
3746.000000	60.283954
3745.000000	60.249857
3744.000000	60.287688
3743.000000	60.387973
3742.000000	60.428103
3741.000000	60.395175
3740.000000	60.382101
3739.000000	60.419645
3738.000000	60.468392
3737.000000	60.495604
3736.000000	60.521672
3735.000000	60.574675
3734.000000	60.637288
3733.000000	60.680670
3732.000000	60.712489
3731.000000	60.751058
3730.000000	60.786623
3729.000000	60.802806
3728.000000	60.810082
3727.000000	60.836440
3726.000000	60.894026
3725.000000	60.961390
3724.000000	61.010841
3723.000000	61.044039
3722.000000	61.080661
3721.000000	61.128523
3720.000000	61.176476
3719.000000	61.217827
3718.000000	61.264499
3717.000000	61.328861
3716.000000	61.406798
3715.000000	61.481110
3714.000000	61.534161
3713.000000	61.557232
3712.000000	61.559878
3711.000000	61.566244
3710.000000	61.585599
3709.000000	61.606788
3708.000000	61.626320
3707.000000	61.653508
3706.000000	61.694937
3705.000000	61.744646
3704.000000	61.792268
3703.000000	61.836184
3702.000000	61.885575
3701.000000	61.946474
3700.000000	62.004085
3699.000000	62.036018
3698.000000	62.046723
3697.000000	62.064902
3696.000000	62.108914
3695.000000	62.172113
3694.000000	62.240147
3693.000000	62.311214
3692.000000	62.386188
3691.000000	62.449459
3690.000000	62.476763
3689.000000	62.471679
3688.000000	62.467095
3687.000000	62.470630
3686.000000	62.463527
3685.000000	62.454010
3684.000000	62.471455
3683.000000	62.522842
3682.000000	62.592577
3681.000000	62.671393
3680.000000	62.767775
3679.000000	62.873573
3678.000000	62.941514
3677.000000	62.930221
3676.000000	62.881299
3675.000000	62.900646
3674.000000	62.986301
3673.000000	63.022007
3672.000000	62.972436
3671.000000	62.908248
3670.000000	62.906486
3669.000000	62.982980
3668.000000	63.069582
3667.000000	63.104768
3666.000000	63.106912
3665.000000	63.122312
3664.000000	63.167033
3663.000000	63.230434
3662.000000	63.302037
3661.000000	63.377081
3660.000000	63.444836
3659.000000	63.484622
3658.000000	63.486157
3657.000000	63.472685
3656.000000	63.488364
3655.000000	63.542803
3654.000000	63.597411
3653.000000	63.628690
3652.000000	63.644294
3651.000000	63.644635
3650.000000	63.622198
3649.000000	63.588087
3648.000000	63.566469
3647.000000	63.567753
3646.000000	63.580803
3645.000000	63.591205
3644.000000	63.600303
3643.000000	63.623829
3642.000000	63.673138
3641.000000	63.738216
3640.000000	63.796937
3639.000000	63.838264
3638.000000	63.867392
3637.000000	63.885904
3636.000000	63.890302
3635.000000	63.894538
3634.000000	63.928236
3633.000000	63.996685
3632.000000	64.059971
3631.000000	64.067562
3630.000000	64.012829
3629.000000	63.964675
3628.000000	63.986472
3627.000000	64.024580
3626.000000	64.006621
3625.000000	63.964563
3624.000000	63.960963
3623.000000	64.003199
3622.000000	64.054332
3621.000000	64.079839
3620.000000	64.079221
3619.000000	64.079641
3618.000000	64.092885
3617.000000	64.093591
3616.000000	64.061856
3615.000000	64.018996
3614.000000	64.005170
3613.000000	64.038048
3612.000000	64.093505
3611.000000	64.127844
3610.000000	64.122507
3609.000000	64.100653
3608.000000	64.097367
3607.000000	64.119971
3606.000000	64.146234
3605.000000	64.158154
3604.000000	64.160045
3603.000000	64.164759
3602.000000	64.179575
3601.000000	64.203702
3600.000000	64.229066
3599.000000	64.243704
3598.000000	64.240330
3597.000000	64.221986
3596.000000	64.201923
3595.000000	64.197887
3594.000000	64.218857
3593.000000	64.256599
3592.000000	64.289921
3591.000000	64.301038
3590.000000	64.285652
3589.000000	64.256647
3588.000000	64.242430
3587.000000	64.264584
3586.000000	64.307201
3585.000000	64.333636
3584.000000	64.334224
3583.000000	64.329878
3582.000000	64.340114
3581.000000	64.365285
3580.000000	64.394546
3579.000000	64.418459
3578.000000	64.432769
3577.000000	64.437159
3576.000000	64.434479
3575.000000	64.432234
3574.000000	64.438304
3573.000000	64.455384
3572.000000	64.477430
3571.000000	64.490120
3570.000000	64.477763
3569.000000	64.437194
3568.000000	64.390458
3567.000000	64.373562
3566.000000	64.398051
3565.000000	64.437241
3564.000000	64.463705
3563.000000	64.478342
3562.000000	64.496432
3561.000000	64.525591
3560.000000	64.561935
3559.000000	64.597282
3558.000000	64.624866
3557.000000	64.640935
3556.000000	64.645125
3555.000000	64.641151
3554.000000	64.636855
3553.000000	64.641298
3552.000000	64.658814
3551.000000	64.682667
3550.000000	64.698990
3549.000000	64.700451
3548.000000	64.693548
3547.000000	64.691320
3546.000000	64.701348
3545.000000	64.720529
3544.000000	64.741321
3543.000000	64.760545
3542.000000	64.779904
3541.000000	64.800912
3540.000000	64.822270
3539.000000	64.841218
3538.000000	64.855647
3537.000000	64.864798
3536.000000	64.870109
3535.000000	64.873824
3534.000000	64.877111
3533.000000	64.880440
3532.000000	64.884906
3531.000000	64.891458
3530.000000	64.898993
3529.000000	64.906187
3528.000000	64.913839
3527.000000	64.923089
3526.000000	64.931664
3525.000000	64.936414
3524.000000	64.939239
3523.000000	64.946489
3522.000000	64.960744
3521.000000	64.977265
3520.000000	64.990990
3519.000000	65.002788
3518.000000	65.015988
3517.000000	65.029547
3516.000000	65.039202
3515.000000	65.043102
3514.000000	65.041685
3513.000000	65.034168
3512.000000	65.020454
3511.000000	65.006049
3510.000000	64.999637
3509.000000	65.004353
3508.000000	65.013436
3507.000000	65.016695
3506.000000	65.009983
3505.000000	64.997398
3504.000000	64.986351
3503.000000	64.981918
3502.000000	64.983932
3501.000000	64.988111
3500.000000	64.990055
3499.000000	64.987567
3498.000000	64.979634
3497.000000	64.965884
3496.000000	64.947630
3495.000000	64.927728
3494.000000	64.908148
3493.000000	64.888820
3492.000000	64.869693
3491.000000	64.851687
3490.000000	64.834909
3489.000000	64.818104
3488.000000	64.800460
3487.000000	64.781631
3486.000000	64.759454
3485.000000	64.731068
3484.000000	64.698069
3483.000000	64.667317
3482.000000	64.643807
3481.000000	64.624275
3480.000000	64.600196
3479.000000	64.566297
3478.000000	64.524181
3477.000000	64.479280
3476.000000	64.436589
3475.000000	64.398745
3474.000000	64.365816
3473.000000	64.336369
3472.000000	64.308971
3471.000000	64.281323
3470.000000	64.247869
3469.000000	64.201732
3468.000000	64.141263
3467.000000	64.072499
3466.000000	64.003486
3465.000000	63.938406
3464.000000	63.878566
3463.000000	63.824977
3462.000000	63.776298
3461.000000	63.726626
3460.000000	63.669350
3459.000000	63.603135
3458.000000	63.531983
3457.000000	63.460320
3456.000000	63.390071
3455.000000	63.320803
3454.000000	63.251097
3453.000000	63.179984
3452.000000	63.107297
3451.000000	63.032042
3450.000000	62.951193
3449.000000	62.863291
3448.000000	62.772703
3447.000000	62.686715
3446.000000	62.606737
3445.000000	62.526385
3444.000000	62.440207
3443.000000	62.350196
3442.000000	62.261385
3441.000000	62.174707
3440.000000	62.087372
3439.000000	61.997608
3438.000000	61.905229
3437.000000	61.808546
3436.000000	61.704531
3435.000000	61.592101
3434.000000	61.473821
3433.000000	61.353816
3432.000000	61.233737
3431.000000	61.110905
3430.000000	60.980325
3429.000000	60.839655
3428.000000	60.692135
3427.000000	60.543959
3426.000000	60.399110
3425.000000	60.257251
3424.000000	60.115596
3423.000000	59.971293
3422.000000	59.821966
3421.000000	59.665872
3420.000000	59.502551
3419.000000	59.332729
3418.000000	59.157970
3417.000000	58.980795
3416.000000	58.803976
3415.000000	58.627853
3414.000000	58.448592
3413.000000	58.261127
3412.000000	58.063422
3411.000000	57.856571
3410.000000	57.641356
3409.000000	57.417094
3408.000000	57.184727
3407.000000	56.948611
3406.000000	56.714010
3405.000000	56.483370
3404.000000	56.254777
3403.000000	56.022329
3402.000000	55.777103
3401.000000	55.510400
3400.000000	55.219675
3399.000000	54.911828
3398.000000	54.599307
3397.000000	54.291778
3396.000000	53.990971
3395.000000	53.692426
3394.000000	53.389495
3393.000000	53.075639
3392.000000	52.745274
3391.000000	52.395345
3390.000000	52.027810
3389.000000	51.649083
3388.000000	51.265949
3387.000000	50.881561
3386.000000	50.495457
3385.000000	50.106782
3384.000000	49.715150
3383.000000	49.318683
3382.000000	48.913179
3381.000000	48.494418
3380.000000	48.061103
3379.000000	47.614683
3378.000000	47.157480
3377.000000	46.691997
3376.000000	46.220888
3375.000000	45.746730
3374.000000	45.270964
3373.000000	44.792993
3372.000000	44.309786
3371.000000	43.816033
3370.000000	43.306867
3369.000000	42.781239
3368.000000	42.242631
3367.000000	41.696570
3366.000000	41.147696
3365.000000	40.598988
3364.000000	40.051113
3363.000000	39.501545
3362.000000	38.945995
3361.000000	38.381542
3360.000000	37.808321
3359.000000	37.228239
3358.000000	36.643567
3357.000000	36.057287
3356.000000	35.472502
3355.000000	34.890604
3354.000000	34.310528
3353.000000	33.729648
3352.000000	33.144675
3351.000000	32.552525
3350.000000	31.952845
3349.000000	31.349861
3348.000000	30.749701
3347.000000	30.155705
3346.000000	29.567663
3345.000000	28.984662
3344.000000	28.406265
3343.000000	27.831303
3342.000000	27.258082
3341.000000	26.686067
3340.000000	26.115479
3339.000000	25.545991
3338.000000	24.978369
3337.000000	24.416542
3336.000000	23.865204
3335.000000	23.325318
3334.000000	22.794358
3333.000000	22.270534
3332.000000	21.753571
3331.000000	21.242466
3330.000000	20.735797
3329.000000	20.234141
3328.000000	19.739766
3327.000000	19.253700
3326.000000	18.776238
3325.000000	18.309593
3324.000000	17.856379
3323.000000	17.416191
3322.000000	16.985944
3321.000000	16.563689
3320.000000	16.149640
3319.000000	15.743806
3318.000000	15.346505
3317.000000	14.959955
3316.000000	14.586591
3315.000000	14.226385
3314.000000	13.877673
3313.000000	13.540276
3312.000000	13.214429
3311.000000	12.898038
3310.000000	12.588966
3309.000000	12.288491
3308.000000	12.000394
3307.000000	11.727167
3306.000000	11.470017
3305.000000	11.231467
3304.000000	11.012890
3303.000000	10.811286
3302.000000	10.621458
3301.000000	10.440635
3300.000000	10.268760
3299.000000	10.105031
3298.000000	9.948606
3297.000000	9.801464
3296.000000	9.666468
3295.000000	9.543929
3294.000000	9.432335
3293.000000	9.331909
3292.000000	9.244047
3291.000000	9.167602
3290.000000	9.099839
3289.000000	9.039361
3288.000000	8.985798
3287.000000	8.937817
3286.000000	8.894152
3285.000000	8.856139
3284.000000	8.825461
3283.000000	8.800842
3282.000000	8.779663
3281.000000	8.761315
3280.000000	8.746521
3279.000000	8.734442
3278.000000	8.723705
3277.000000	8.715056
3276.000000	8.709906
3275.000000	8.707556
3274.000000	8.706420
3273.000000	8.706828
3272.000000	8.710198
3271.000000	8.716725
3270.000000	8.726377
3269.000000	8.740220
3268.000000	8.758019
3267.000000	8.776608
3266.000000	8.793286
3265.000000	8.809215
3264.000000	8.826863
3263.000000	8.845970
3262.000000	8.865004
3261.000000	8.884287
3260.000000	8.904603
3259.000000	8.924575
3258.000000	8.942674
3257.000000	8.960424
3256.000000	8.980534
3255.000000	9.003354
3254.000000	9.027762
3253.000000	9.053734
3252.000000	9.081143
3251.000000	9.107752
3250.000000	9.131458
3249.000000	9.153280
3248.000000	9.175662
3247.000000	9.199455
3246.000000	9.224823
3245.000000	9.252942
3244.000000	9.283995
3243.000000	9.315353
3242.000000	9.344540
3241.000000	9.372211
3240.000000	9.399834
3239.000000	9.426487
3238.000000	9.450658
3237.000000	9.473114
3236.000000	9.495302
3235.000000	9.516953
3234.000000	9.538013
3233.000000	9.560837
3232.000000	9.587324
3231.000000	9.615625
3230.000000	9.642489
3229.000000	9.667147
3228.000000	9.690329
3227.000000	9.711585
3226.000000	9.730445
3225.000000	9.748407
3224.000000	9.766849
3223.000000	9.784642
3222.000000	9.800286
3221.000000	9.814578
3220.000000	9.828703
3219.000000	9.841656
3218.000000	9.852223
3217.000000	9.861484
3216.000000	9.870728
3215.000000	9.878873
3214.000000	9.884514
3213.000000	9.888665
3212.000000	9.892714
3211.000000	9.895583
3210.000000	9.895646
3209.000000	9.893484
3208.000000	9.890267
3207.000000	9.885255
3206.000000	9.877476
3205.000000	9.868145
3204.000000	9.858702
3203.000000	9.848309
3202.000000	9.835624
3201.000000	9.821159
3200.000000	9.805697
3199.000000	9.788298
3198.000000	9.768305
3197.000000	9.747255
3196.000000	9.726401
3195.000000	9.704508
3194.000000	9.680324
3193.000000	9.655073
3192.000000	9.630122
3191.000000	9.604357
3190.000000	9.576450
3189.000000	9.547475
3188.000000	9.518862
3187.000000	9.489934
3186.000000	9.459805
3185.000000	9.429588
3184.000000	9.400285
3183.000000	9.370721
3182.000000	9.339953
3181.000000	9.309468
3180.000000	9.280645
3179.000000	9.252326
3178.000000	9.223293
3177.000000	9.194815
3176.000000	9.168307
3175.000000	9.142827
3174.000000	9.117379
3173.000000	9.093252
3172.000000	9.071562
3171.000000	9.050911
3170.000000	9.029953
3169.000000	9.010014
3168.000000	8.992760
3167.000000	8.977491
3166.000000	8.963224
3165.000000	8.950961
3164.000000	8.941510
3163.000000	8.933470
3162.000000	8.925700
3161.000000	8.919532
3160.000000	8.916165
3159.000000	8.914325
3158.000000	8.912867
3157.000000	8.912955
3156.000000	8.915432
3155.000000	8.918689
3154.000000	8.921794
3153.000000	8.927236
3152.000000	8.937711
3151.000000	8.952625
3150.000000	8.970116
3149.000000	8.990045
3148.000000	9.012637
3147.000000	9.036510
3146.000000	9.060759
3145.000000	9.086618
3144.000000	9.114696
3143.000000	9.143081
3142.000000	9.170410
3141.000000	9.198549
3140.000000	9.229994
3139.000000	9.264968
3138.000000	9.303244
3137.000000	9.345869
3136.000000	9.392756
3135.000000	9.441155
3134.000000	9.488853
3133.000000	9.536741
3132.000000	9.586113
3131.000000	9.636233
3130.000000	9.686820
3129.000000	9.739986
3128.000000	9.797360
3127.000000	9.857614
3126.000000	9.919082
3125.000000	9.982241
3124.000000	10.047216
3123.000000	10.111781
3122.000000	10.174459
3121.000000	10.237266
3120.000000	10.303031
3119.000000	10.372217
3118.000000	10.444657
3117.000000	10.521684
3116.000000	10.603986
3115.000000	10.689698
3114.000000	10.776691
3113.000000	10.864714
3112.000000	10.953398
3111.000000	11.040866
3110.000000	11.126697
3109.000000	11.213776
3108.000000	11.305032
3107.000000	11.400339
3106.000000	11.498282
3105.000000	11.598501
3104.000000	11.700190
3103.000000	11.801101
3102.000000	11.900349
3101.000000	11.999970
3100.000000	12.101941
3099.000000	12.205932
3098.000000	12.311703
3097.000000	12.420803
3096.000000	12.533724
3095.000000	12.648056
3094.000000	12.761470
3093.000000	12.874199
3092.000000	12.986933
3091.000000	13.098977
3090.000000	13.210548
3089.000000	13.324112
3088.000000	13.441261
3087.000000	13.560605
3086.000000	13.680558
3085.000000	13.801780
3084.000000	13.924904
3083.000000	14.048360
3082.000000	14.170598
3081.000000	14.292203
3080.000000	14.414249
3079.000000	14.536897
3078.000000	14.661182
3077.000000	14.789527
3076.000000	14.922552
3075.000000	15.057614
3074.000000	15.192039
3073.000000	15.325444
3072.000000	15.457604
3071.000000	15.586911
3070.000000	15.712951
3069.000000	15.838183
3068.000000	15.965232
3067.000000	16.094689
3066.000000	16.226721
3065.000000	16.362029
3064.000000	16.499505
3063.000000	16.635736
3062.000000	16.768708
3061.000000	16.899666
3060.000000	17.030035
3059.000000	17.159378
3058.000000	17.287935
3057.000000	17.418177
3056.000000	17.551745
3055.000000	17.687162
3054.000000	17.822316
3053.000000	17.956826
3052.000000	18.090451
3051.000000	18.221944
3050.000000	18.351315
3049.000000	18.480749
3048.000000	18.611553
3047.000000	18.742524
3046.000000	18.872798
3045.000000	19.003667
3044.000000	19.135923
3043.000000	19.268100
3042.000000	19.399076
3041.000000	19.529963
3040.000000	19.661672
3039.000000	19.793000
3038.000000	19.922891
3037.000000	20.052274
3036.000000	20.182065
3035.000000	20.311725
3034.000000	20.441290
3033.000000	20.572327
3032.000000	20.705103
3031.000000	20.837163
3030.000000	20.966532
3029.000000	21.094179
3028.000000	21.221807
3027.000000	21.349480
3026.000000	21.477077
3025.000000	21.605763
3024.000000	21.736044
3023.000000	21.866249
3022.000000	21.994586
3021.000000	22.121011
3020.000000	22.245824
3019.000000	22.368494
3018.000000	22.489341
3017.000000	22.610311
3016.000000	22.732636
3015.000000	22.855638
3014.000000	22.978981
3013.000000	23.103924
3012.000000	23.231001
3011.000000	23.358680
3010.000000	23.485624
3009.000000	23.612193
3008.000000	23.738518
3007.000000	23.863423
3006.000000	23.986636
3005.000000	24.109910
3004.000000	24.234465
3003.000000	24.359206
3002.000000	24.482755
3001.000000	24.605133
3000.000000	24.726215
2999.000000	24.844855
2998.000000	24.961162
2997.000000	25.077616
2996.000000	25.196232
2995.000000	25.316321
2994.000000	25.436411
2993.000000	25.556602
2992.000000	25.677568
2991.000000	25.798877
2990.000000	25.919727
2989.000000	26.039924
2988.000000	26.159052
2987.000000	26.276287
2986.000000	26.392002
2985.000000	26.507964
2984.000000	26.624979
2983.000000	26.741945
2982.000000	26.857987
2981.000000	26.973722
2980.000000	27.089571
2979.000000	27.204723
2978.000000	27.318745
2977.000000	27.432487
2976.000000	27.546458
2975.000000	27.660234
2974.000000	27.774363
2973.000000	27.890722
2972.000000	28.009807
2971.000000	28.129356
2970.000000	28.246828
2969.000000	28.361596
2968.000000	28.473813
2967.000000	28.583232
2966.000000	28.690383
2965.000000	28.797209
2964.000000	28.905240
2963.000000	29.014458
2962.000000	29.124713
2961.000000	29.236327
2960.000000	29.348394
2959.000000	29.458506
2958.000000	29.565341
2957.000000	29.669933
2956.000000	29.773518
2955.000000	29.876092
2954.000000	29.978071
2953.000000	30.081412
2952.000000	30.187750
2951.000000	30.296683
2950.000000	30.406627
2949.000000	30.515887
2948.000000	30.622484
2947.000000	30.724976
2946.000000	30.824400
2945.000000	30.923876
2944.000000	31.025658
2943.000000	31.129913
2942.000000	31.236404
2941.000000	31.345080
2940.000000	31.454349
2939.000000	31.561106
2938.000000	31.663563
2937.000000	31.762431
2936.000000	31.858836
2935.000000	31.953188
2934.000000	32.046801
2933.000000	32.142069
2932.000000	32.239710
2931.000000	32.337799
2930.000000	32.434547
2929.000000	32.530128
2928.000000	32.624661
2927.000000	32.716734
2926.000000	32.805451
2925.000000	32.892184
2924.000000	32.979075
2923.000000	33.067364
2922.000000	33.158114
2921.000000	33.252419
2920.000000	33.349624
2919.000000	33.446998
2918.000000	33.542294
2917.000000	33.635202
2916.000000	33.725733
2915.000000	33.813359
2914.000000	33.898884
2913.000000	33.985395
2912.000000	34.075858
2911.000000	34.170686
2910.000000	34.268314
2909.000000	34.366609
2908.000000	34.463008
2907.000000	34.554937
2906.000000	34.641481
2905.000000	34.724057
2904.000000	34.805083
2903.000000	34.886828
2902.000000	34.971570
2901.000000	35.060913
2900.000000	35.154379
2899.000000	35.249120
2898.000000	35.341875
2897.000000	35.430403
2896.000000	35.513289
2895.000000	35.590607
2894.000000	35.665164
2893.000000	35.741404
2892.000000	35.822098
2891.000000	35.907038
2890.000000	35.994765
2889.000000	36.083837
2888.000000	36.172087
2887.000000	36.256743
2886.000000	36.336566
2885.000000	36.412834
2884.000000	36.487812
2883.000000	36.563495
2882.000000	36.641962
2881.000000	36.725027
2880.000000	36.812429
2879.000000	36.901656
2878.000000	36.990454
2877.000000	37.078321
2876.000000	37.164883
2875.000000	37.248187
2874.000000	37.325999
2873.000000	37.398370
2872.000000	37.468351
2871.000000	37.540444
2870.000000	37.618163
2869.000000	37.701701
2868.000000	37.787260
2867.000000	37.869532
2866.000000	37.945499
2865.000000	38.015870
2864.000000	38.083702
2863.000000	38.152657
2862.000000	38.225850
2861.000000	38.304185
2860.000000	38.385322
2859.000000	38.465546
2858.000000	38.542826
2857.000000	38.617030
2856.000000	38.687870
2855.000000	38.754819
2854.000000	38.819424
2853.000000	38.885770
2852.000000	38.957794
2851.000000	39.037046
2850.000000	39.122648
2849.000000	39.211523
2848.000000	39.298613
2847.000000	39.379211
2846.000000	39.452236
2845.000000	39.520474
2844.000000	39.587934
2843.000000	39.658303
2842.000000	39.735122
2841.000000	39.820263
2840.000000	39.911036
2839.000000	40.000842
2838.000000	40.084181
2837.000000	40.160066
2836.000000	40.230259
2835.000000	40.296368
2834.000000	40.359951
2833.000000	40.423831
2832.000000	40.491361
2831.000000	40.564622
2830.000000	40.643915
2829.000000	40.728029
2828.000000	40.814124
2827.000000	40.898300
2826.000000	40.977538
2825.000000	41.051203
2824.000000	41.120785
2823.000000	41.189067
2822.000000	41.259624
2821.000000	41.335539
2820.000000	41.417352
2819.000000	41.502561
2818.000000	41.587431
2817.000000	41.668805
2816.000000	41.744510
2815.000000	41.813833
2814.000000	41.878678
2813.000000	41.943253
2812.000000	42.011419
2811.000000	42.084337
2810.000000	42.160731
2809.000000	42.238434
2808.000000	42.315001
2807.000000	42.387800
2806.000000	42.454757
2805.000000	42.515310
2804.000000	42.570720
2803.000000	42.623988
2802.000000	42.679268
2801.000000	42.740056
2800.000000	42.806885
2799.000000	42.877021
2798.000000	42.946616
2797.000000	43.012813
2796.000000	43.074130
2795.000000	43.130319
2794.000000	43.182812
2793.000000	43.234664
2792.000000	43.289127
2791.000000	43.348072
2790.000000	43.411676
2789.000000	43.478835
2788.000000	43.547441
2787.000000	43.614911
2786.000000	43.679208
2785.000000	43.739559
2784.000000	43.796469
2783.000000	43.851601
2782.000000	43.907513
2781.000000	43.966541
2780.000000	44.029307
2779.000000	44.094403
2778.000000	44.159301
2777.000000	44.221040
2776.000000	44.276605
2775.000000	44.324056
2774.000000	44.364034
2773.000000	44.399640
2772.000000	44.434244
2771.000000	44.469636
2770.000000	44.505821
2769.000000	44.541430
2768.000000	44.573944
2767.000000	44.600361
2766.000000	44.618678
2765.000000	44.628801
2764.000000	44.632107
2763.000000	44.630894
2762.000000	44.628184
2761.000000	44.627110
2760.000000	44.629610
2759.000000	44.635597
2758.000000	44.643448
2757.000000	44.650815
2756.000000	44.655213
2755.000000	44.654983
2754.000000	44.650255
2753.000000	44.642667
2752.000000	44.633808
2751.000000	44.624239
2750.000000	44.613695
2749.000000	44.601092
2748.000000	44.584258
2747.000000	44.560475
2746.000000	44.527945
2745.000000	44.486529
2744.000000	44.436974
2743.000000	44.380586
2742.000000	44.319846
2741.000000	44.258283
2740.000000	44.199244
2739.000000	44.145208
2738.000000	44.098382
2737.000000	44.061273
2736.000000	44.036126
2735.000000	44.024585
2734.000000	44.028549
2733.000000	44.049987
2732.000000	44.089840
2731.000000	44.147816
2730.000000	44.222953
2729.000000	44.313855
2728.000000	44.417490
2727.000000	44.529165
2726.000000	44.644861
2725.000000	44.762562
2724.000000	44.881432
2723.000000	45.000465
2722.000000	45.118548
2721.000000	45.235236
2720.000000	45.350326
2719.000000	45.462946
2718.000000	45.571665
2717.000000	45.675194
2716.000000	45.772571
2715.000000	45.863163
2714.000000	45.946671
2713.000000	46.023027
2712.000000	46.092091
2711.000000	46.153440
2710.000000	46.207042
2709.000000	46.253576
2708.000000	46.294010
2707.000000	46.329388
2706.000000	46.360821
2705.000000	46.389443
2704.000000	46.415781
2703.000000	46.439415
2702.000000	46.459689
2701.000000	46.476151
2700.000000	46.488450
2699.000000	46.496387
2698.000000	46.500588
2697.000000	46.502931
2696.000000	46.505640
2695.000000	46.510126
2694.000000	46.516683
2693.000000	46.524660
2692.000000	46.532564
2691.000000	46.538413
2690.000000	46.540724
2689.000000	46.539280
2688.000000	46.534933
2687.000000	46.529156
2686.000000	46.523924
2685.000000	46.521303
2684.000000	46.522328
2683.000000	46.526220
2682.000000	46.530939
2681.000000	46.534318
2680.000000	46.534713
2679.000000	46.531416
2678.000000	46.525372
2677.000000	46.519422
2676.000000	46.517273
2675.000000	46.521780
2674.000000	46.533863
2673.000000	46.552549
2672.000000	46.575560
2671.000000	46.600285
2670.000000	46.624811
2669.000000	46.648415
2668.000000	46.671627
2667.000000	46.696005
2666.000000	46.723674
2665.000000	46.756246
2664.000000	46.793435
2663.000000	46.832699
2662.000000	46.870189
2661.000000	46.901936
2660.000000	46.924779
2659.000000	46.937418
2658.000000	46.941328
2657.000000	46.940637
2656.000000	46.940647
2655.000000	46.946000
2654.000000	46.959446
2653.000000	46.981085
2652.000000	47.008258
2651.000000	47.036790
2650.000000	47.063274
2649.000000	47.086743
2648.000000	47.109175
2647.000000	47.135038
2646.000000	47.170160
2645.000000	47.219845
2644.000000	47.286304
2643.000000	47.367791
2642.000000	47.459692
2641.000000	47.556017
2640.000000	47.650671
2639.000000	47.738674
2638.000000	47.818039
2637.000000	47.890767
2636.000000	47.961549
2635.000000	48.034959
2634.000000	48.113057
2633.000000	48.194456
2632.000000	48.274851
2631.000000	48.348633
2630.000000	48.410690
2629.000000	48.458220
2628.000000	48.491788
2627.000000	48.515313
2626.000000	48.535189
2625.000000	48.558140
2624.000000	48.588840
2623.000000	48.628124
2622.000000	48.672513
2621.000000	48.715425
2620.000000	48.749414
2619.000000	48.769129
2618.000000	48.773510
2617.000000	48.765895
2616.000000	48.752399
2615.000000	48.739423
2614.000000	48.731515
2613.000000	48.729783
2612.000000	48.731084
2611.000000	48.729305
2610.000000	48.718148
2609.000000	48.694055
2608.000000	48.657874
2607.000000	48.614913
2606.000000	48.573708
2605.000000	48.543553
2604.000000	48.531342
2603.000000	48.539322
2602.000000	48.565105
2601.000000	48.602884
2600.000000	48.645521
2599.000000	48.687213
2598.000000	48.725761
2597.000000	48.763723
2596.000000	48.806707
2595.000000	48.860592
2594.000000	48.929234
2593.000000	49.012649
2592.000000	49.106455
2591.000000	49.202741
2590.000000	49.292872
2589.000000	49.370911
2588.000000	49.435707
2587.000000	49.491110
2586.000000	49.544549
2585.000000	49.604547
2584.000000	49.677686
2583.000000	49.766014
2582.000000	49.866361
2581.000000	49.971722
2580.000000	50.073822
2579.000000	50.165896
2578.000000	50.244975
2577.000000	50.313180
2576.000000	50.377014
2575.000000	50.444599
2574.000000	50.522207
2573.000000	50.611836
2572.000000	50.710512
2571.000000	50.811247
2570.000000	50.905396
2569.000000	50.985705
2568.000000	51.049085
2567.000000	51.097398
2566.000000	51.136257
2565.000000	51.172897
2564.000000	51.213385
2563.000000	51.260054
2562.000000	51.309629
2561.000000	51.353857
2560.000000	51.382939
2559.000000	51.389148
2558.000000	51.369777
2557.000000	51.328100
2556.000000	51.272784
2555.000000	51.216072
2554.000000	51.170618
2553.000000	51.146267
2552.000000	51.147630
2551.000000	51.173493
2550.000000	51.218004
2549.000000	51.273889
2548.000000	51.335363
2547.000000	51.399994
2546.000000	51.469167
2545.000000	51.546305
2544.000000	51.634993
2543.000000	51.736516
2542.000000	51.848099
2541.000000	51.963088
2540.000000	52.072760
2539.000000	52.169308
2538.000000	52.248522
2537.000000	52.311295
2536.000000	52.363095
2535.000000	52.411799
2534.000000	52.464660
2533.000000	52.525960
2532.000000	52.595898
2531.000000	52.670360
2530.000000	52.742513
2529.000000	52.805666
2528.000000	52.856295
2527.000000	52.895377
2526.000000	52.927615
2525.000000	52.959761
2524.000000	52.998441
2523.000000	53.047578
2522.000000	53.106524
2521.000000	53.170246
2520.000000	53.231550
2519.000000	53.283809
2518.000000	53.323231
2517.000000	53.350547
2516.000000	53.371056
2515.000000	53.392440
2514.000000	53.421416
2513.000000	53.461461
2512.000000	53.512153
2511.000000	53.569184
2510.000000	53.625259
2509.000000	53.672759
2508.000000	53.707295
2507.000000	53.729555
2506.000000	53.744363
2505.000000	53.758559
2504.000000	53.778858
2503.000000	53.809555
2502.000000	53.850702
2501.000000	53.898129
2500.000000	53.945512
2499.000000	53.986869
2498.000000	54.018317
2497.000000	54.039252
2496.000000	54.052781
2495.000000	54.064563
2494.000000	54.080347
2493.000000	54.103767
2492.000000	54.135377
2491.000000	54.172534
2490.000000	54.210180
2489.000000	54.242970
2488.000000	54.267726
2487.000000	54.284552
2486.000000	54.296297
2485.000000	54.307466
2484.000000	54.322782
2483.000000	54.345104
2482.000000	54.373858
2481.000000	54.405508
2480.000000	54.435672
2479.000000	54.460823
2478.000000	54.478890
2477.000000	54.489930
2476.000000	54.496789
2475.000000	54.504238
2474.000000	54.516671
2473.000000	54.536253
2472.000000	54.562523
2471.000000	54.592696
2470.000000	54.622340
2469.000000	54.647020
2468.000000	54.664292
2467.000000	54.674605
2466.000000	54.680719
2465.000000	54.686700
2464.000000	54.696762
2463.000000	54.713531
2462.000000	54.736653
2461.000000	54.763176
2460.000000	54.789375
2459.000000	54.812191
2458.000000	54.829748
2457.000000	54.841972
2456.000000	54.851009
2455.000000	54.860336
2454.000000	54.872884
2453.000000	54.889911
2452.000000	54.911019
2451.000000	54.934333
2450.000000	54.956906
2449.000000	54.976130
2448.000000	54.991297
2447.000000	55.003733
2446.000000	55.015614
2445.000000	55.029151
2444.000000	55.046220
2443.000000	55.067444
2442.000000	55.091305
2441.000000	55.114931
2440.000000	55.135938
2439.000000	55.153337
2438.000000	55.167221
2437.000000	55.178706
2436.000000	55.190142
2435.000000	55.204292
2434.000000	55.222709
2433.000000	55.245106
2432.000000	55.269924
2431.000000	55.294867
2430.000000	55.317367
2429.000000	55.335831
2428.000000	55.350853
2427.000000	55.364703
2426.000000	55.379592
2425.000000	55.396864
2424.000000	55.417176
2423.000000	55.440209
2422.000000	55.464154
2421.000000	55.486557
2420.000000	55.505998
2419.000000	55.522607
2418.000000	55.537369
2417.000000	55.551916
2416.000000	55.568626
2415.000000	55.589556
2414.000000	55.614728
2413.000000	55.642010
2412.000000	55.668651
2411.000000	55.692469
2410.000000	55.712149
2409.000000	55.727794
2408.000000	55.741412
2407.000000	55.756060
2406.000000	55.774184
2405.000000	55.797047
2404.000000	55.824899
2403.000000	55.856466
2402.000000	55.888536
2401.000000	55.917407
2400.000000	55.941232
2399.000000	55.960619
2398.000000	55.977498
2397.000000	55.994484
2396.000000	56.014677
2395.000000	56.040289
2394.000000	56.070918
2393.000000	56.103979
2392.000000	56.136748
2391.000000	56.167315
2390.000000	56.194361
2389.000000	56.217638
2388.000000	56.239041
2387.000000	56.261813
2386.000000	56.288328
2385.000000	56.319221
2384.000000	56.353572
2383.000000	56.389395
2382.000000	56.423547
2381.000000	56.453609
2380.000000	56.480607
2379.000000	56.508683
2378.000000	56.543188
2377.000000	56.588410
2376.000000	56.647295
2375.000000	56.719948
2374.000000	56.802033
2373.000000	56.886154
2372.000000	56.964377
2371.000000	57.031403
2370.000000	57.084924
2369.000000	57.125952
2368.000000	57.159026
2367.000000	57.191934
2366.000000	57.231631
2365.000000	57.279267
2364.000000	57.333733
2363.000000	57.394561
2362.000000	57.454145
2361.000000	57.506215
2360.000000	57.551950
2359.000000	57.592128
2358.000000	57.632308
2357.000000	57.674232
2356.000000	57.720759
2355.000000	57.777002
2354.000000	57.837649
2353.000000	57.898349
2352.000000	57.955257
2351.000000	58.017228
2350.000000	58.083464
2349.000000	58.129667
2348.000000	58.143214
2347.000000	58.133860
2346.000000	58.143296
2345.000000	58.202401
2344.000000	58.302093
2343.000000	58.410282
2342.000000	58.490026
2341.000000	58.544375
2340.000000	58.583148
2339.000000	58.616005
2338.000000	58.647843
2337.000000	58.682416
2336.000000	58.725190
2335.000000	58.777142
2334.000000	58.835810
2333.000000	58.894635
2332.000000	58.949586
2331.000000	58.999276
2330.000000	59.049061
2329.000000	59.090924
2328.000000	59.133445
2327.000000	59.171061
2326.000000	59.213374
2325.000000	59.259380
2324.000000	59.312879
2323.000000	59.376346
2322.000000	59.441418
2321.000000	59.503395
2320.000000	59.555058
2319.000000	59.599373
2318.000000	59.639020
2317.000000	59.675376
2316.000000	59.713034
2315.000000	59.753253
2314.000000	59.801333
2313.000000	59.851836
2312.000000	59.904443
2311.000000	59.951468
2310.000000	59.994484
2309.000000	60.030220
2308.000000	60.065752
2307.000000	60.103781
2306.000000	60.149897
2305.000000	60.201075
2304.000000	60.255908
2303.000000	60.309471
2302.000000	60.359302
2301.000000	60.400684
2300.000000	60.435292
2299.000000	60.465139
2298.000000	60.496357
2297.000000	60.530631
2296.000000	60.572211
2295.000000	60.620565
2294.000000	60.674862
2293.000000	60.728895
2292.000000	60.778673
2291.000000	60.820951
2290.000000	60.855234
2289.000000	60.882573
2288.000000	60.907298
2287.000000	60.935381
2286.000000	60.970203
2285.000000	61.011597
2284.000000	61.056991
2283.000000	61.103740
2282.000000	61.147970
2281.000000	61.186704
2280.000000	61.219445
2279.000000	61.249123
2278.000000	61.278833
2277.000000	61.311038
2276.000000	61.347636
2275.000000	61.389084
2274.000000	61.433074
2273.000000	61.475103
2272.000000	61.512497
2271.000000	61.544931
2270.000000	61.573253
2269.000000	61.598844
2268.000000	61.625038
2267.000000	61.655938
2266.000000	61.693133
2265.000000	61.734580
2264.000000	61.777097
2263.000000	61.817151
2262.000000	61.850796
2261.000000	61.874994
2260.000000	61.890449
2259.000000	61.901731
2258.000000	61.913263
2257.000000	61.928119
2256.000000	61.948084
2255.000000	61.973215
2254.000000	61.999687
2253.000000	62.021265
2252.000000	62.033709
2251.000000	62.036061
2250.000000	62.028953
2249.000000	62.013357
2248.000000	61.992330
2247.000000	61.969616
2246.000000	61.946962
2245.000000	61.922931
2244.000000	61.895356
2243.000000	61.862271
2242.000000	61.821162
2241.000000	61.770187
2240.000000	61.710854
2239.000000	61.647851
2238.000000	61.585778
2237.000000	61.527825
2236.000000	61.476810
2235.000000	61.434824
2234.000000	61.401364
2233.000000	61.373940
2232.000000	61.351102
2231.000000	61.333247
2230.000000	61.320870
2229.000000	61.314277
2228.000000	61.314776
2227.000000	61.323663
2226.000000	61.339234
2225.000000	61.356837
2224.000000	61.372067
2223.000000	61.382358
2222.000000	61.386109
2221.000000	61.383037
2220.000000	61.376009
2219.000000	61.370066
2218.000000	61.368908
2217.000000	61.373465
2216.000000	61.383328
2215.000000	61.397103
2214.000000	61.411367
2213.000000	61.421995
2212.000000	61.427407
2211.000000	61.429069
2210.000000	61.429061
2209.000000	61.429280
2208.000000	61.432506
2207.000000	61.441337
2206.000000	61.455281
2205.000000	61.470821
2204.000000	61.484587
2203.000000	61.494841
2202.000000	61.500548
2201.000000	61.501909
2200.000000	61.502024
2199.000000	61.505449
2198.000000	61.514375
2197.000000	61.527686
2196.000000	61.543174
2195.000000	61.558219
2194.000000	61.568708
2193.000000	61.570584
2192.000000	61.563459
2191.000000	61.550838
2190.000000	61.536769
2189.000000	61.524259
2188.000000	61.516256
2187.000000	61.514794
2186.000000	61.518362
2185.000000	61.522528
2184.000000	61.523839
2183.000000	61.521613
2182.000000	61.516369
2181.000000	61.509528
2180.000000	61.504846
2179.000000	61.507381
2178.000000	61.519854
2177.000000	61.541423
2176.000000	61.569693
2175.000000	61.601720
2174.000000	61.633439
2173.000000	61.661149
2172.000000	61.684544
2171.000000	61.706644
2170.000000	61.730788
2169.000000	61.759590
2168.000000	61.795785
2167.000000	61.840642
2166.000000	61.890862
2165.000000	61.939643
2164.000000	61.981617
2163.000000	62.015258
2162.000000	62.041423
2161.000000	62.062872
2160.000000	62.085279
2159.000000	62.115247
2158.000000	62.155816
2157.000000	62.205281
2156.000000	62.259724
2155.000000	62.314295
2154.000000	62.362751
2153.000000	62.399822
2152.000000	62.425414
2151.000000	62.444538
2150.000000	62.462983
2149.000000	62.485108
2148.000000	62.514648
2147.000000	62.553558
2146.000000	62.599178
2145.000000	62.645248
2144.000000	62.686667
2143.000000	62.721650
2142.000000	62.750207
2141.000000	62.774046
2140.000000	62.798228
2139.000000	62.829317
2138.000000	62.870422
2137.000000	62.919662
2136.000000	62.972881
2135.000000	63.025290
2134.000000	63.071307
2133.000000	63.107039
2132.000000	63.134128
2131.000000	63.158774
2130.000000	63.186580
2129.000000	63.220635
2128.000000	63.263062
2127.000000	63.314041
2126.000000	63.368635
2125.000000	63.418128
2124.000000	63.455979
2123.000000	63.480791
2122.000000	63.494745
2121.000000	63.502766
2120.000000	63.513214
2119.000000	63.534915
2118.000000	63.571739
2117.000000	63.621496
2116.000000	63.679216
2115.000000	63.738500
2114.000000	63.790764
2113.000000	63.828440
2112.000000	63.850762
2111.000000	63.864049
2110.000000	63.876196
2109.000000	63.893459
2108.000000	63.920816
2107.000000	63.960192
2106.000000	64.007078
2105.000000	64.052281
2104.000000	64.088150
2103.000000	64.111226
2102.000000	64.120382
2101.000000	64.116986
2100.000000	64.107288
2099.000000	64.100081
2098.000000	64.100334
2097.000000	64.107211
2096.000000	64.117249
2095.000000	64.125795
2094.000000	64.126389
2093.000000	64.113849
2092.000000	64.089588
2091.000000	64.061056
2090.000000	64.036213
2089.000000	64.021020
2088.000000	64.020470
2087.000000	64.036836
2086.000000	64.065919
2085.000000	64.098767
2084.000000	64.128145
2083.000000	64.151251
2082.000000	64.167687
2081.000000	64.179716
2080.000000	64.194436
2079.000000	64.221095
2078.000000	64.264199
2077.000000	64.321803
2076.000000	64.389279
2075.000000	64.460838
2074.000000	64.528509
2073.000000	64.584655
2072.000000	64.628179
2071.000000	64.664730
2070.000000	64.700734
2069.000000	64.741006
2068.000000	64.791261
2067.000000	64.856837
2066.000000	64.936742
2065.000000	65.022725
2064.000000	65.105876
2063.000000	65.181291
2062.000000	65.246909
2061.000000	65.303170
2060.000000	65.355356
2059.000000	65.411823
2058.000000	65.477828
2057.000000	65.553320
2056.000000	65.635947
2055.000000	65.722025
2054.000000	65.804727
2053.000000	65.876328
2052.000000	65.934651
2051.000000	65.984108
2050.000000	66.030160
2049.000000	66.077000
2048.000000	66.130163
2047.000000	66.194484
2046.000000	66.268175
2045.000000	66.343741
2044.000000	66.415426
2043.000000	66.481389
2042.000000	66.539789
2041.000000	66.589250
2040.000000	66.634076
2039.000000	66.683188
2038.000000	66.742540
2037.000000	66.812448
2036.000000	66.891800
2035.000000	66.979028
2034.000000	67.068766
2033.000000	67.153374
2032.000000	67.229049
2031.000000	67.297059
2030.000000	67.359381
2029.000000	67.418168
2028.000000	67.479149
2027.000000	67.548576
2026.000000	67.626553
2025.000000	67.707340
2024.000000	67.787053
2023.000000	67.864568
2022.000000	67.936026
2021.000000	67.996484
2020.000000	68.048127
2019.000000	68.100043
2018.000000	68.158774
2017.000000	68.224639
2016.000000	68.297100
2015.000000	68.376695
2014.000000	68.460520
2013.000000	68.542453
2012.000000	68.619453
2011.000000	68.692661
2010.000000	68.762653
2009.000000	68.829524
2008.000000	68.897412
2007.000000	68.972154
2006.000000	69.054670
2005.000000	69.140975
2004.000000	69.229045
2003.000000	69.318752
2002.000000	69.406065
2001.000000	69.485210
2000.000000	69.555094
1999.000000	69.620639
1998.000000	69.684660
1997.000000	69.744817
1996.000000	69.801055
1995.000000	69.859820
1994.000000	69.927088
1993.000000	70.001913
1992.000000	70.078960
1991.000000	70.153370
1990.000000	70.221769
1989.000000	70.282757
1988.000000	70.338581
1987.000000	70.392529
1986.000000	70.444759
1985.000000	70.494927
1984.000000	70.547398
1983.000000	70.607402
1982.000000	70.672751
1981.000000	70.735886
1980.000000	70.791854
1979.000000	70.841242
1978.000000	70.883713
1977.000000	70.917113
1976.000000	70.944484
1975.000000	70.974679
1974.000000	71.013216
1973.000000	71.058121
1972.000000	71.105843
1971.000000	71.154526
1970.000000	71.200330
1969.000000	71.238278
1968.000000	71.268725
1967.000000	71.296190
1966.000000	71.321955
1965.000000	71.345831
1964.000000	71.374291
1963.000000	71.416725
1962.000000	71.472793
1961.000000	71.531242
1960.000000	71.582457
1959.000000	71.624115
1958.000000	71.654398
1957.000000	71.670852
1956.000000	71.678175
1955.000000	71.687920
1954.000000	71.707950
1953.000000	71.738902
1952.000000	71.781758
1951.000000	71.836108
1950.000000	71.893534
1949.000000	71.941648
1948.000000	71.972883
1947.000000	71.984891
1946.000000	71.977762
1945.000000	71.959245
1944.000000	71.948597
1943.000000	71.963450
1942.000000	72.002868
1941.000000	72.052937
1940.000000	72.105964
1939.000000	72.160191
1938.000000	72.205679
1937.000000	72.227693
1936.000000	72.225473
1935.000000	72.215271
1934.000000	72.212725
1933.000000	72.223693
1932.000000	72.252478
1931.000000	72.300209
1930.000000	72.358047
1929.000000	72.410077
1928.000000	72.442798
1927.000000	72.451083
1926.000000	72.434694
1925.000000	72.405138
1924.000000	72.383715
1923.000000	72.383188
1922.000000	72.399005
1921.000000	72.426514
1920.000000	72.472455
1919.000000	72.536631
1918.000000	72.592171
1917.000000	72.608297
1916.000000	72.587350
1915.000000	72.558158
1914.000000	72.540629
1913.000000	72.537890
1912.000000	72.554461
1911.000000	72.597627
1910.000000	72.662051
1909.000000	72.726963
1908.000000	72.773533
1907.000000	72.796879
1906.000000	72.795032
1905.000000	72.771390
1904.000000	72.741951
1903.000000	72.726911
1902.000000	72.737793
1901.000000	72.773938
1900.000000	72.827070
1899.000000	72.884169
1898.000000	72.925908
1897.000000	72.938471
1896.000000	72.923665
1895.000000	72.889980
1894.000000	72.843357
1893.000000	72.796402
1892.000000	72.774778
1891.000000	72.798737
1890.000000	72.858585
1889.000000	72.920142
1888.000000	72.957852
1887.000000	72.968273
1886.000000	72.953803
1885.000000	72.916285
1884.000000	72.867855
1883.000000	72.829342
1882.000000	72.816966
1881.000000	72.835359
1880.000000	72.880546
1879.000000	72.941574
1878.000000	72.995858
1877.000000	73.019410
1876.000000	73.007147
1875.000000	72.968321
1874.000000	72.909365
1873.000000	72.840038
1872.000000	72.787091
1871.000000	72.780724
1870.000000	72.825486
1869.000000	72.892759
1868.000000	72.945685
1867.000000	72.966273
1866.000000	72.954359
1865.000000	72.915959
1864.000000	72.864782
1863.000000	72.820534
1862.000000	72.796800
1861.000000	72.798797
1860.000000	72.827922
1859.000000	72.876691
1858.000000	72.921525
1857.000000	72.935785
1856.000000	72.911668
1855.000000	72.860231
1854.000000	72.795350
1853.000000	72.730411
1852.000000	72.681023
1851.000000	72.665111
1850.000000	72.681868
1849.000000	72.706156
1848.000000	72.716402
1847.000000	72.715323
1846.000000	72.709681
1845.000000	72.684508
1844.000000	72.619122
1843.000000	72.523706
1842.000000	72.440628
1841.000000	72.408353
1840.000000	72.433829
1839.000000	72.493719
1838.000000	72.547493
1837.000000	72.563608
1836.000000	72.532347
1835.000000	72.456312
1834.000000	72.345482
1833.000000	72.223700
1832.000000	72.129918
1831.000000	72.097883
1830.000000	72.114090
1829.000000	72.125496
1828.000000	72.110073
1827.000000	72.090025
1826.000000	72.072289
1825.000000	72.030300
1824.000000	71.951059
1823.000000	71.860475
1822.000000	71.787618
1821.000000	71.737124
1820.000000	71.706666
1819.000000	71.698080
1818.000000	71.698889
1817.000000	71.685045
1816.000000	71.641869
1815.000000	71.569357
1814.000000	71.473008
1813.000000	71.363745
1812.000000	71.270469
1811.000000	71.218419
1810.000000	71.200887
1809.000000	71.198617
1808.000000	71.203980
1807.000000	71.207608
1806.000000	71.182180
1805.000000	71.104538
1804.000000	70.986831
1803.000000	70.868412
1802.000000	70.784607
1801.000000	70.746388
1800.000000	70.752031
1799.000000	70.785818
1798.000000	70.814903
1797.000000	70.811825
1796.000000	70.777412
1795.000000	70.728426
1794.000000	70.667109
1793.000000	70.580239
1792.000000	70.478720
1791.000000	70.398711
1790.000000	70.362132
1789.000000	70.363604
1788.000000	70.383530
1787.000000	70.397212
1786.000000	70.375656
1785.000000	70.300620
1784.000000	70.182613
1783.000000	70.053319
1782.000000	69.941182
1781.000000	69.849245
1780.000000	69.777361
1779.000000	69.731546
1778.000000	69.704420
1777.000000	69.671760
1776.000000	69.620586
1775.000000	69.567643
1774.000000	69.522176
1773.000000	69.447360
1772.000000	69.303756
1771.000000	69.121042
1770.000000	68.970584
1769.000000	68.892606
1768.000000	68.875697
1767.000000	68.876771
1766.000000	68.852223
1765.000000	68.787932
1764.000000	68.701358
1763.000000	68.613077
1762.000000	68.521374
1761.000000	68.409721
1760.000000	68.296097
1759.000000	68.222260
1758.000000	68.200880
1757.000000	68.190294
1756.000000	68.138086
1755.000000	68.043697
1754.000000	67.934496
1753.000000	67.812652
1752.000000	67.668152
1751.000000	67.522727
1750.000000	67.409674
1749.000000	67.334023
1748.000000	67.277953
1747.000000	67.225540
1746.000000	67.160131
1745.000000	67.058417
1744.000000	66.922205
1743.000000	66.782953
1742.000000	66.664066
1741.000000	66.559501
1740.000000	66.450982
1739.000000	66.325180
1738.000000	66.190252
1737.000000	66.078661
1736.000000	66.008968
1735.000000	65.939627
1734.000000	65.783801
1733.000000	65.507561
1732.000000	65.196179
1731.000000	64.953498
1730.000000	64.796862
1729.000000	64.677723
1728.000000	64.555909
1727.000000	64.430070
1726.000000	64.294681
1725.000000	64.119942
1724.000000	63.898607
1723.000000	63.651634
1722.000000	63.397172
1721.000000	63.151438
1720.000000	62.941706
1719.000000	62.778161
1718.000000	62.609531
1717.000000	62.371632
1716.000000	62.086977
1715.000000	61.817392
1714.000000	61.570136
1713.000000	61.318941
1712.000000	61.060372
1711.000000	60.809264
1710.000000	60.564761
1709.000000	60.313823
1708.000000	60.064091
1707.000000	59.834106
1706.000000	59.599793
1705.000000	59.319859
1704.000000	59.020069
1703.000000	58.774643
1702.000000	58.587413
1701.000000	58.360797
1700.000000	58.028601
1699.000000	57.668282
1698.000000	57.387310
1697.000000	57.194739
1696.000000	56.996952
1695.000000	56.707202
1694.000000	56.346354
1693.000000	55.991689
1692.000000	55.683603
1691.000000	55.402772
1690.000000	55.114675
1689.000000	54.817695
1688.000000	54.551625
1687.000000	54.357611
1686.000000	54.203696
1685.000000	53.986665
1684.000000	53.627688
1683.000000	53.189843
1682.000000	52.799260
1681.000000	52.490545
1680.000000	52.226016
1679.000000	51.981493
1678.000000	51.760294
1677.000000	51.552202
1676.000000	51.319998
1675.000000	51.039460
1674.000000	50.730371
1673.000000	50.424722
1672.000000	50.145350
1671.000000	49.888937
1670.000000	49.626462
1669.000000	49.333320
1668.000000	49.027225
1667.000000	48.752999
1666.000000	48.525179
1665.000000	48.316896
1664.000000	48.092340
1663.000000	47.831994
1662.000000	47.540909
1661.000000	47.235674
1660.000000	46.935724
1659.000000	46.657961
1658.000000	46.403182
1657.000000	46.167448
1656.000000	45.971497
1655.000000	45.838598
1654.000000	45.720038
1653.000000	45.478698
1652.000000	45.081979
1651.000000	44.662697
1650.000000	44.324304
1649.000000	44.071856
1648.000000	43.857200
1647.000000	43.632087
1646.000000	43.379821
1645.000000	43.109689
1644.000000	42.843424
1643.000000	42.601334
1642.000000	42.381797
1641.000000	42.155031
1640.000000	41.907958
1639.000000	41.672526
1638.000000	41.478481
1637.000000	41.304573
1636.000000	41.097403
1635.000000	40.846766
1634.000000	40.588880
1633.000000	40.349700
1632.000000	40.137698
1631.000000	39.951320
1630.000000	39.777588
1629.000000	39.596619
1628.000000	39.402497
1627.000000	39.214204
1626.000000	39.054026
1625.000000	38.918950
1624.000000	38.790909
1623.000000	38.657729
1622.000000	38.518262
1621.000000	38.379218
1620.000000	38.261567
1619.000000	38.190652
1618.000000	38.160759
1617.000000	38.122184
1616.000000	38.029086
1615.000000	37.903872
1614.000000	37.801097
1613.000000	37.738302
1612.000000	37.696191
1611.000000	37.657060
1610.000000	37.620837
1609.000000	37.587407
1608.000000	37.552920
1607.000000	37.525218
1606.000000	37.518856
1605.000000	37.530602
1604.000000	37.548015
1603.000000	37.572012
1602.000000	37.605466
1601.000000	37.636099
1600.000000	37.651396
1599.000000	37.658510
1598.000000	37.671293
1597.000000	37.690553
1596.000000	37.713302
1595.000000	37.746785
1594.000000	37.796979
1593.000000	37.853984
1592.000000	37.904885
1591.000000	37.950235
1590.000000	37.994173
1589.000000	38.029619
1588.000000	38.050091
1587.000000	38.065045
1586.000000	38.089053
1585.000000	38.122335
1584.000000	38.154890
1583.000000	38.188824
1582.000000	38.227468
1581.000000	38.255146
1580.000000	38.260819
1579.000000	38.269388
1578.000000	38.311796
1577.000000	38.372366
1576.000000	38.391502
1575.000000	38.341627
1574.000000	38.264510
1573.000000	38.210048
1572.000000	38.195482
1571.000000	38.213105
1570.000000	38.241224
1569.000000	38.246681
1568.000000	38.216612
1567.000000	38.187710
1566.000000	38.199170
1565.000000	38.243779
1564.000000	38.288668
1563.000000	38.331274
1562.000000	38.405137
1561.000000	38.527525
1560.000000	38.696950
1559.000000	38.898195
1558.000000	39.051888
1557.000000	39.130468
1556.000000	39.206207
1555.000000	39.343017
1554.000000	39.539186
1553.000000	39.738707
1552.000000	39.918613
1551.000000	40.115136
1550.000000	40.350519
1549.000000	40.591130
1548.000000	40.793479
1547.000000	40.965092
1546.000000	41.147155
1545.000000	41.361954
1544.000000	41.602739
1543.000000	41.872942
1542.000000	42.202465
1541.000000	42.618817
1540.000000	43.075557
1539.000000	43.445914
1538.000000	43.663860
1537.000000	43.789717
1536.000000	43.929913
1535.000000	44.166394
1534.000000	44.524787
1533.000000	44.942137
1532.000000	45.330797
1531.000000	45.677541
1530.000000	46.014172
1529.000000	46.358279
1528.000000	46.715203
1527.000000	47.094377
1526.000000	47.493241
1525.000000	47.885045
1524.000000	48.272620
1523.000000	48.721313
1522.000000	49.283259
1521.000000	49.878016
1520.000000	50.363688
1519.000000	50.743923
1518.000000	51.133641
1517.000000	51.582652
1516.000000	52.041279
1515.000000	52.466378
1514.000000	52.880612
1513.000000	53.307078
1512.000000	53.729970
1511.000000	54.120824
1510.000000	54.484871
1509.000000	54.872394
1508.000000	55.371393
1507.000000	56.029751
1506.000000	56.707612
1505.000000	57.204973
1504.000000	57.517524
1503.000000	57.790025
1502.000000	58.124633
1501.000000	58.517257
1500.000000	58.921016
1499.000000	59.326104
1498.000000	59.746018
1497.000000	60.160525
1496.000000	60.524091
1495.000000	60.815802
1494.000000	61.055055
1493.000000	61.276570
1492.000000	61.517010
1491.000000	61.811323
1490.000000	62.156053
1489.000000	62.494395
1488.000000	62.788038
1487.000000	63.042568
1486.000000	63.265898
1485.000000	63.456230
1484.000000	63.623421
1483.000000	63.805943
1482.000000	64.019991
1481.000000	64.226621
1480.000000	64.381774
1479.000000	64.482066
1478.000000	64.532921
1477.000000	64.523413
1476.000000	64.465102
1475.000000	64.403611
1474.000000	64.368123
1473.000000	64.328664
1472.000000	64.246107
1471.000000	64.118009
1470.000000	63.933969
1469.000000	63.662182
1468.000000	63.286677
1467.000000	62.801004
1466.000000	62.168170
1465.000000	61.348639
1464.000000	60.413507
1463.000000	59.521684
1462.000000	58.748806
1461.000000	58.076039
1460.000000	57.494726
1459.000000	57.015957
1458.000000	56.574395
1457.000000	56.028065
1456.000000	55.361074
1455.000000	54.678943
1454.000000	53.981704
1453.000000	53.169230
1452.000000	52.192821
1451.000000	51.081104
1450.000000	49.821338
1449.000000	48.327793
1448.000000	46.589876
1447.000000	44.724767
1446.000000	42.812345
1445.000000	40.812751
1444.000000	38.692394
1443.000000	36.471376
1442.000000	34.152890
1441.000000	31.758405
1440.000000	29.380882
1439.000000	27.038911
1438.000000	24.522979
1437.000000	21.655940
1436.000000	18.763950
1435.000000	16.376398
1434.000000	14.533591
1433.000000	12.969670
1432.000000	11.590613
1431.000000	10.465858
1430.000000	9.607241
1429.000000	8.972260
1428.000000	8.612616
1427.000000	8.589578
1426.000000	8.850649
1425.000000	9.334556
1424.000000	10.067325
1423.000000	11.033875
1422.000000	12.122839
1421.000000	13.315981
1420.000000	14.771368
1419.000000	16.545813
1418.000000	18.376430
1417.000000	20.034929
1416.000000	21.606310
1415.000000	23.232956
1414.000000	24.912807
1413.000000	26.601118
1412.000000	28.324300
1411.000000	30.106890
1410.000000	31.885695
1409.000000	33.593737
1408.000000	35.247143
1407.000000	36.890323
1406.000000	38.536535
1405.000000	40.180159
1404.000000	41.794784
1403.000000	43.319253
1402.000000	44.723119
1401.000000	46.074378
1400.000000	47.468911
1399.000000	48.888283
1398.000000	50.218965
1397.000000	51.437547
1396.000000	52.645750
1395.000000	53.911933
1394.000000	55.180917
1393.000000	56.361725
1392.000000	57.431088
1391.000000	58.412474
1390.000000	59.333620
1389.000000	60.227939
1388.000000	61.112970
1387.000000	61.947462
1386.000000	62.664271
1385.000000	63.250038
1384.000000	63.735492
1383.000000	64.132742
1382.000000	64.426671
1381.000000	64.601344
1380.000000	64.634440
1379.000000	64.483225
1378.000000	64.108847
1377.000000	63.490630
1376.000000	62.588870
1375.000000	61.344033
1374.000000	59.756889
1373.000000	57.933478
1372.000000	56.017300
1371.000000	54.128757
1370.000000	52.409102
1369.000000	51.059269
1368.000000	50.278039
1367.000000	50.152397
1366.000000	50.636813
1365.000000	51.629051
1364.000000	53.022425
1363.000000	54.686550
1362.000000	56.440543
1361.000000	58.103768
1360.000000	59.562952
1359.000000	60.769166
1358.000000	61.704880
1357.000000	62.364095
1356.000000	62.739097
1355.000000	62.823558
1354.000000	62.624764
1353.000000	62.157063
1352.000000	61.425944
1351.000000	60.419048
1350.000000	59.122553
1349.000000	57.532908
1348.000000	55.647573
1347.000000	53.469490
1346.000000	51.014832
1345.000000	48.316622
1344.000000	45.430498
1343.000000	42.422528
1342.000000	39.346438
1341.000000	36.254752
1340.000000	33.258149
1339.000000	30.553639
1338.000000	28.341132
1337.000000	26.707538
1336.000000	25.611889
1335.000000	24.930398
1334.000000	24.474657
1333.000000	24.017577
1332.000000	23.349709
1331.000000	22.329600
1330.000000	20.901217
1329.000000	19.088831
1328.000000	16.990748
1327.000000	14.761286
1326.000000	12.565476
1325.000000	10.539047
1324.000000	8.787713
1323.000000	7.389580
1322.000000	6.366714
1321.000000	5.676516
1320.000000	5.251290
1319.000000	5.021064
1318.000000	4.906728
1317.000000	4.830142
1316.000000	4.747039
1315.000000	4.655363
1314.000000	4.559943
1313.000000	4.457631
1312.000000	4.358080
1311.000000	4.285773
1310.000000	4.256147
1309.000000	4.271502
1308.000000	4.346572
1307.000000	4.510778
1306.000000	4.778692
1305.000000	5.145523
1304.000000	5.610001
1303.000000	6.176663
1302.000000	6.833806
1301.000000	7.551888
1300.000000	8.311110
1299.000000	9.106010
1298.000000	9.925262
1297.000000	10.751821
1296.000000	11.581233
1295.000000	12.421091
1294.000000	13.270684
1293.000000	14.118973
1292.000000	14.959807
1291.000000	15.790120
1290.000000	16.590910
1289.000000	17.326559
1288.000000	17.960803
1287.000000	18.459512
1286.000000	18.790171
1285.000000	18.939894
1284.000000	18.945400
1283.000000	18.898249
1282.000000	18.913159
1281.000000	19.089502
1280.000000	19.488004
1279.000000	20.115634
1278.000000	20.923349
1277.000000	21.836210
1276.000000	22.791356
1275.000000	23.750969
1274.000000	24.693964
1273.000000	25.610487
1272.000000	26.502963
1271.000000	27.376426
1270.000000	28.226568
1269.000000	29.043215
1268.000000	29.821611
1267.000000	30.562327
1266.000000	31.266177
1265.000000	31.936362
1264.000000	32.582855
1263.000000	33.219736
1262.000000	33.856374
1261.000000	34.495439
1260.000000	35.134652
1259.000000	35.765622
1258.000000	36.375991
1257.000000	36.956434
1256.000000	37.506011
1255.000000	38.030557
1254.000000	38.539240
1253.000000	39.043887
1252.000000	39.555926
1251.000000	40.080631
1250.000000	40.614335
1249.000000	41.146421
1248.000000	41.663343
1247.000000	42.152731
1246.000000	42.608825
1245.000000	43.035915
1244.000000	43.445399
1243.000000	43.850629
1242.000000	44.263609
1241.000000	44.692031
1240.000000	45.134895
1239.000000	45.581017
1238.000000	46.015319
1237.000000	46.425819
1236.000000	46.805615
1235.000000	47.154594
1234.000000	47.482453
1233.000000	47.806706
1232.000000	48.143447
1231.000000	48.500479
1230.000000	48.877672
1229.000000	49.267651
1228.000000	49.655278
1227.000000	50.022587
1226.000000	50.359360
1225.000000	50.668100
1224.000000	50.958879
1223.000000	51.244990
1222.000000	51.543044
1221.000000	51.867885
1220.000000	52.222201
1219.000000	52.593774
1218.000000	52.964354
1217.000000	53.317125
1216.000000	53.637469
1215.000000	53.917946
1214.000000	54.166920
1213.000000	54.406203
1212.000000	54.657219
1211.000000	54.932283
1210.000000	55.236467
1209.000000	55.566796
1208.000000	55.906934
1207.000000	56.231682
1206.000000	56.522134
1205.000000	56.774072
1204.000000	56.993159
1203.000000	57.192072
1202.000000	57.392906
1201.000000	57.619218
1200.000000	57.879822
1199.000000	58.163651
1198.000000	58.449382
1197.000000	58.713196
1196.000000	58.927754
1195.000000	59.069655
1194.000000	59.132899
1193.000000	59.128448
1192.000000	59.071264
1191.000000	58.972791
1190.000000	58.847412
1189.000000	58.714495
1188.000000	58.592047
1187.000000	58.496598
1186.000000	58.448376
1185.000000	58.466239
1184.000000	58.555848
1183.000000	58.710614
1182.000000	58.922828
1181.000000	59.191102
1180.000000	59.513893
1179.000000	59.882747
1178.000000	60.283235
1177.000000	60.691402
1176.000000	61.072252
1175.000000	61.393382
1174.000000	61.645899
1173.000000	61.846952
1172.000000	62.023917
1171.000000	62.204186
1170.000000	62.414299
1169.000000	62.671098
1168.000000	62.967008
1167.000000	63.273624
1166.000000	63.561423
1165.000000	63.810725
1164.000000	64.010391
1163.000000	64.162744
1162.000000	64.292441
1161.000000	64.436333
1160.000000	64.619762
1159.000000	64.848000
1158.000000	65.113941
1157.000000	65.400108
1156.000000	65.674630
1155.000000	65.903044
1154.000000	66.071876
1153.000000	66.193170
1152.000000	66.289261
1151.000000	66.385573
1150.000000	66.512791
1149.000000	66.694866
1148.000000	66.927662
1147.000000	67.179786
1146.000000	67.415376
1145.000000	67.607574
1144.000000	67.737926
1143.000000	67.804003
1142.000000	67.832297
1141.000000	67.868281
1140.000000	67.948006
1139.000000	68.085523
1138.000000	68.279079
1137.000000	68.511233
1136.000000	68.743098
1135.000000	68.928053
1134.000000	69.041135
1133.000000	69.088918
1132.000000	69.095624
1131.000000	69.094693
1130.000000	69.128349
1129.000000	69.231830
1128.000000	69.408986
1127.000000	69.631148
1126.000000	69.859099
1125.000000	70.056795
1124.000000	70.192631
1123.000000	70.251932
1122.000000	70.254972
1121.000000	70.248449
1120.000000	70.275325
1119.000000	70.359948
1118.000000	70.511899
1117.000000	70.721971
1116.000000	70.952688
1115.000000	71.152059
1114.000000	71.285789
1113.000000	71.350429
1112.000000	71.361818
1111.000000	71.349640
1110.000000	71.359221
1109.000000	71.433770
1108.000000	71.585672
1107.000000	71.792354
1106.000000	72.017039
1105.000000	72.220905
1104.000000	72.363700
1103.000000	72.419854
1102.000000	72.402738
1101.000000	72.358677
1100.000000	72.336224
1099.000000	72.369027
1098.000000	72.477225
1097.000000	72.660065
1096.000000	72.882281
1095.000000	73.087763
1094.000000	73.234442
1093.000000	73.309762
1092.000000	73.321056
1091.000000	73.293366
1090.000000	73.273887
1089.000000	73.312639
1088.000000	73.429045
1087.000000	73.605469
1086.000000	73.808395
1085.000000	74.000185
1084.000000	74.137255
1083.000000	74.185875
1082.000000	74.148968
1081.000000	74.065173
1080.000000	73.979871
1079.000000	73.926831
1078.000000	73.928029
1077.000000	73.980744
1076.000000	74.042270
1075.000000	74.045327
1074.000000	73.934579
1073.000000	73.686064
1072.000000	73.296796
1071.000000	72.783955
1070.000000	72.190299
1069.000000	71.561746
1068.000000	70.918195
1067.000000	70.250117
1066.000000	69.543470
1065.000000	68.797211
1064.000000	68.027691
1063.000000	67.278126
1062.000000	66.627769
1061.000000	66.170733
1060.000000	65.974029
1059.000000	66.063872
1058.000000	66.426518
1057.000000	67.013291
1056.000000	67.742678
1055.000000	68.513541
1054.000000	69.240349
1053.000000	69.868440
1052.000000	70.371625
1051.000000	70.756052
1050.000000	71.066868
1049.000000	71.367627
1048.000000	71.701850
1047.000000	72.077712
1046.000000	72.479537
1045.000000	72.877510
1044.000000	73.226992
1043.000000	73.487720
1042.000000	73.654089
1041.000000	73.756793
1040.000000	73.838596
1039.000000	73.939387
1038.000000	74.095392
1037.000000	74.324832
1036.000000	74.607585
1035.000000	74.894943
1034.000000	75.142281
1033.000000	75.325452
1032.000000	75.436168
1031.000000	75.486367
1030.000000	75.518400
1029.000000	75.587424
1028.000000	75.725379
1027.000000	75.929042
1026.000000	76.174996
1025.000000	76.427841
1024.000000	76.638821
1023.000000	76.764985
1022.000000	76.801350
1021.000000	76.782365
1020.000000	76.754450
1019.000000	76.759948
1018.000000	76.836168
1017.000000	77.000573
1016.000000	77.229539
1015.000000	77.467571
1014.000000	77.661569
1013.000000	77.779297
1012.000000	77.806974
1011.000000	77.756465
1010.000000	77.676441
1009.000000	77.632849
1008.000000	77.669230
1007.000000	77.792369
1006.000000	77.985335
1005.000000	78.213112
1004.000000	78.420391
1003.000000	78.551832
1002.000000	78.586797
1001.000000	78.545961
1000.000000	78.469090
999.000000	78.400865
998.000000	78.388362
997.000000	78.463495
996.000000	78.618553
995.000000	78.810366
994.000000	78.990459
993.000000	79.122449
992.000000	79.181182
991.000000	79.162346
990.000000	79.097375
989.000000	79.039430
988.000000	79.028873
987.000000	79.080477
986.000000	79.192743
985.000000	79.347736
984.000000	79.504140
983.000000	79.614316
982.000000	79.656768
981.000000	79.643137
980.000000	79.598560
979.000000	79.552212
978.000000	79.540130
977.000000	79.590405
976.000000	79.697941
975.000000	79.826943
974.000000	79.939818
973.000000	80.011528
972.000000	80.024990
971.000000	79.978330
970.000000	79.899937
969.000000	79.836573
968.000000	79.821701
967.000000	79.864239
966.000000	79.958868
965.000000	80.086474
964.000000	80.206987
963.000000	80.275348
962.000000	80.273051
961.000000	80.214319
960.000000	80.125539
959.000000	80.036474
958.000000	79.984693
957.000000	80.001496
956.000000	80.085737
955.000000	80.204518
954.000000	80.319436
953.000000	80.399666
952.000000	80.418717
951.000000	80.364810
950.000000	80.259013
949.000000	80.145904
948.000000	80.063546
947.000000	80.032024
946.000000	80.060979
945.000000	80.144150
944.000000	80.246946
943.000000	80.320750
942.000000	80.336115
941.000000	80.291538
940.000000	80.196835
939.000000	80.070244
938.000000	79.947741
937.000000	79.869486
936.000000	79.850508
935.000000	79.876597
934.000000	79.924670
933.000000	79.970723
932.000000	79.983955
931.000000	79.938404
930.000000	79.835284
929.000000	79.699983
928.000000	79.558564
927.000000	79.431115
926.000000	79.339764
925.000000	79.297738
924.000000	79.289098
923.000000	79.277286
922.000000	79.234818
921.000000	79.151249
920.000000	79.019419
919.000000	78.838290
918.000000	78.628946
917.000000	78.425363
916.000000	78.247368
915.000000	78.094890
914.000000	77.962672
913.000000	77.841255
912.000000	77.705699
911.000000	77.526441
910.000000	77.293520
909.000000	77.016611
908.000000	76.706093
907.000000	76.371324
906.000000	76.032667
905.000000	75.710891
904.000000	75.403641
903.000000	75.089811
902.000000	74.752555
901.000000	74.383024
900.000000	73.967296
899.000000	73.492101
898.000000	72.965672
897.000000	72.412225
896.000000	71.848122
895.000000	71.276274
894.000000	70.696589
893.000000	70.104519
892.000000	69.478464
891.000000	68.789284
890.000000	68.023247
889.000000	67.183284
888.000000	66.276833
887.000000	65.315408
886.000000	64.321846
885.000000	63.318083
884.000000	62.303235
883.000000	61.257784
882.000000	60.160311
881.000000	58.991369
880.000000	57.730578
879.000000	56.367049
878.000000	54.916257
877.000000	53.413017
876.000000	51.892083
875.000000	50.381453
874.000000	48.902762
873.000000	47.465173
872.000000	46.060822
871.000000	44.675391
870.000000	43.300917
869.000000	41.938573
868.000000	40.596324
867.000000	39.293194
866.000000	38.059598
865.000000	36.922956
864.000000	35.898462
863.000000	34.987522
862.000000	34.180173
861.000000	33.457083
860.000000	32.792138
859.000000	32.165397
858.000000	31.569220
857.000000	31.006236
856.000000	30.487536
855.000000	30.028810
854.000000	29.646940
853.000000	29.350931
852.000000	29.138113
851.000000	29.000380
850.000000	28.925818
849.000000	28.901391
848.000000	28.918913
847.000000	28.984051
846.000000	29.118720
845.000000	29.346232
844.000000	29.683112
843.000000	30.139897
842.000000	30.718713
841.000000	31.407899
840.000000	32.179451
839.000000	33.005641
838.000000	33.871685
837.000000	34.772679
836.000000	35.709050
835.000000	36.691482
834.000000	37.731998
833.000000	38.809785
832.000000	39.836261
831.000000	40.601490
830.000000	40.707287
829.000000	39.568855
828.000000	36.705097
827.000000	32.293483
826.000000	27.459748
825.000000	23.821530
824.000000	22.535071
823.000000	23.674022
822.000000	26.443940
821.000000	29.884928
820.000000	33.329300
819.000000	36.434338
818.000000	39.072265
817.000000	41.256514
816.000000	43.091111
815.000000	44.689560
814.000000	46.135574
813.000000	47.493010
812.000000	48.805263
811.000000	50.068801
810.000000	51.240385
809.000000	52.280175
808.000000	53.169688
807.000000	53.911827
806.000000	54.539356
805.000000	55.123229
804.000000	55.741046
803.000000	56.431161
802.000000	57.189040
801.000000	57.988386
800.000000	58.785006
799.000000	59.515924
798.000000	60.129074
797.000000	60.620623
796.000000	61.031358
795.000000	61.418490
794.000000	61.842301
793.000000	62.356358
792.000000	62.979605
791.000000	63.676711
790.000000	64.378928
789.000000	65.020288
788.000000	65.551570
787.000000	65.948587
786.000000	66.233958
785.000000	66.479677
784.000000	66.767401
783.000000	67.145818
782.000000	67.624060
781.000000	68.179913
780.000000	68.757312
779.000000	69.276719
778.000000	69.676700
777.000000	69.948959
776.000000	70.130934
775.000000	70.281108
774.000000	70.467269
773.000000	70.749222
772.000000	71.144192
771.000000	71.610509
770.000000	72.073846
769.000000	72.463759
768.000000	72.728376
767.000000	72.847995
766.000000	72.859186
765.000000	72.850877
764.000000	72.916712
763.000000	73.110383
762.000000	73.439089
761.000000	73.870070
760.000000	74.327869
759.000000	74.710423
758.000000	74.938975
757.000000	74.997616
756.000000	74.927885
755.000000	74.806716
754.000000	74.732950
753.000000	74.799574
752.000000	75.046204
751.000000	75.437456
750.000000	75.890906
749.000000	76.315296
748.000000	76.627348
747.000000	76.772329
746.000000	76.758570
745.000000	76.661208
744.000000	76.576171
743.000000	76.574595
742.000000	76.693385
741.000000	76.934105
740.000000	77.249609
739.000000	77.553246
738.000000	77.767526
737.000000	77.863178
736.000000	77.853890
735.000000	77.779373
734.000000	77.702007
733.000000	77.688414
732.000000	77.767044
731.000000	77.909404
730.000000	78.058554
729.000000	78.161376
728.000000	78.174941
727.000000	78.078891
726.000000	77.904899
725.000000	77.735258
724.000000	77.653873
723.000000	77.705904
722.000000	77.900045
721.000000	78.214484
720.000000	78.582309
719.000000	78.902072
718.000000	79.095259
717.000000	79.149274
716.000000	79.103916
715.000000	79.024948
714.000000	78.998006
713.000000	79.108151
712.000000	79.390344
711.000000	79.805130
710.000000	80.271448
709.000000	80.705891
708.000000	81.031308
707.000000	81.192000
706.000000	81.192573
705.000000	81.105677
704.000000	81.024007
703.000000	81.013876
702.000000	81.112322
701.000000	81.330039
700.000000	81.631384
699.000000	81.937528
698.000000	82.176800
697.000000	82.323063
696.000000	82.382753
695.000000	82.377819
694.000000	82.356822
693.000000	82.386689
692.000000	82.501692
691.000000	82.677570
690.000000	82.868558
689.000000	83.042847
688.000000	83.169869
687.000000	83.215369
686.000000	83.184566
685.000000	83.141184
684.000000	83.154301
683.000000	83.249267
682.000000	83.424646
681.000000	83.673283
680.000000	83.955370
679.000000	84.190146
678.000000	84.315719
677.000000	84.330258
676.000000	84.261743
675.000000	84.149732
674.000000	84.057933
673.000000	84.052666
672.000000	84.153625
671.000000	84.343321
670.000000	84.628517
669.000000	85.051546
668.000000	85.567491
667.000000	85.892364
666.000000	85.828362
665.000000	85.554240
664.000000	85.309528
663.000000	85.184594
662.000000	85.177722
661.000000	85.255219
660.000000	85.383769
659.000000	85.529355
658.000000	85.664423
657.000000	85.778246
656.000000	85.869961
655.000000	85.947881
654.000000	86.030630
653.000000	86.130807
652.000000	86.242506
651.000000	86.347436
650.000000	86.429000
649.000000	86.476015
648.000000	86.479512
647.000000	86.441881
646.000000	86.390564
645.000000	86.369867
644.000000	86.412706
643.000000	86.525797
642.000000	86.698153
641.000000	86.906804
640.000000	87.111477
639.000000	87.262219
638.000000	87.325708
637.000000	87.300710
636.000000	87.209477
635.000000	87.088662
634.000000	86.987840
633.000000	86.953621
632.000000	87.004706
631.000000	87.130201
630.000000	87.309265
629.000000	87.517184
628.000000	87.715752
627.000000	87.861871
626.000000	87.935495
625.000000	87.945795
624.000000	87.906352
623.000000	87.825196
622.000000	87.722639
621.000000	87.633875
620.000000	87.585470
619.000000	87.587209
618.000000	87.647207
617.000000	87.770387
616.000000	87.935171
615.000000	88.095226
614.000000	88.210668
613.000000	88.259102
612.000000	88.216993
611.000000	88.063024
610.000000	87.807062
609.000000	87.486107
608.000000	87.124105
607.000000	86.709535
606.000000	86.211915
605.000000	85.573065
604.000000	84.663799
603.000000	83.273312
602.000000	81.133188
601.000000	77.989431
600.000000	73.749753
599.000000	68.701363
598.000000	63.600676
597.000000	59.448584
596.000000	57.074767
595.000000	56.804588
594.000000	58.373240
593.000000	61.123911
592.000000	64.364232
591.000000	67.579674
590.000000	70.484588
589.000000	73.008178
588.000000	75.193037
587.000000	77.087093
586.000000	78.708133
585.000000	80.067671
584.000000	81.178034
583.000000	82.057146
582.000000	82.744191
581.000000	83.302216
580.000000	83.788528
579.000000	84.231296
578.000000	84.658314
577.000000	85.109539
576.000000	85.598576
575.000000	86.085401
574.000000	86.510275
573.000000	86.839572
572.000000	87.058104
571.000000	87.156831
570.000000	87.160300
569.000000	87.132268
568.000000	87.130201
567.000000	87.176389
566.000000	87.280743
565.000000	87.456827
564.000000	87.692788
563.000000	87.938981
562.000000	88.148016
561.000000	88.307329
560.000000	88.418623
559.000000	88.477385
558.000000	88.494188
557.000000	88.502654
556.000000	88.522903
555.000000	88.543891
554.000000	88.557306
553.000000	88.577149
552.000000	88.611960
551.000000	88.653233
550.000000	88.708555
549.000000	88.809339
548.000000	88.965716
547.000000	89.144880
546.000000	89.308709
545.000000	89.440248
544.000000	89.518177
543.000000	89.509100
542.000000	89.411048
541.000000	89.272265
540.000000	89.147520
539.000000	89.069880
538.000000	89.072295
537.000000	89.188928
536.000000	89.409853
535.000000	89.669240
534.000000	89.897712
533.000000	90.061487
532.000000	90.136210
531.000000	90.090114
530.000000	89.927681
529.000000	89.707301
528.000000	89.491441
527.000000	89.319397
526.000000	89.233485
525.000000	89.269177
524.000000	89.396338
523.000000	89.516541
522.000000	89.540810
521.000000	89.432810
520.000000	89.172098
519.000000	88.733508
518.000000	88.137504
517.000000	87.483911
516.000000	86.895675
515.000000	86.454021
514.000000	86.198195
513.000000	86.139664
512.000000	86.239146
511.000000	86.403596
510.000000	86.539812
509.000000	86.590234
508.000000	86.490865
507.000000	86.146853
506.000000	85.488056
505.000000	84.510155
504.000000	83.252979
503.000000	81.818540
502.000000	80.441087
501.000000	79.427992
500.000000	78.968721
499.000000	79.058619
498.000000	79.593527
497.000000	80.433365
496.000000	81.396634
495.000000	82.289380
494.000000	82.985075
493.000000	83.467698
492.000000	83.781089
491.000000	83.982406
490.000000	84.145354
489.000000	84.353940
488.000000	84.652742
487.000000	85.035766
486.000000	85.498816
485.000000	86.059360
484.000000	86.702431
483.000000	87.353480
482.000000	87.939637
481.000000	88.430704
480.000000	88.798461
479.000000	89.002768
478.000000	89.049132
477.000000	89.013332
476.000000	88.971253
475.000000	88.944647
474.000000	88.947817
473.000000	89.022402
472.000000	89.175663
471.000000	89.344444
470.000000	89.471828
469.000000	89.569946
468.000000	89.667969
467.000000	89.756289
466.000000	89.812163
465.000000	89.837691
464.000000	89.829161
463.000000	89.753350
462.000000	89.601742
461.000000	89.417100
460.000000	89.236498
459.000000	89.073532
458.000000	88.983109
457.000000	89.053842
456.000000	89.275538
455.000000	89.519690
454.000000	89.685383
453.000000	89.757904
452.000000	89.716162
451.000000	89.483486
450.000000	89.021825
449.000000	88.407548
448.000000	87.756698
447.000000	87.129844
446.000000	86.539911
445.000000	85.978022
444.000000	85.358147
443.000000	84.481452
442.000000	83.151512
441.000000	81.328845
440.000000	79.117211
439.000000	76.684749
438.000000	74.277629
437.000000	72.256685
436.000000	70.991636
435.000000	70.663425
434.000000	71.189131
433.000000	72.360586
432.000000	73.982280
431.000000	75.824402
430.000000	77.648776
429.000000	79.350465
428.000000	80.931898
427.000000	82.361316
426.000000	83.589762
425.000000	84.653673
424.000000	85.589568
423.000000	86.312641
422.000000	86.727184
421.000000	86.907035
420.000000	87.050064
419.000000	87.349127
418.000000	87.904589
417.000000	88.666786
416.000000	89.474474
415.000000	90.133803
414.000000	90.529116
413.000000	90.706923
412.000000	90.733256
411.000000	90.556442
410.000000	90.192265
409.000000	89.866596
408.000000	89.783640
407.000000	89.892584
406.000000	90.130052
405.000000	90.527043
404.000000	91.028995
403.000000	91.332526
402.000000	91.179862
401.000000	90.656592
400.000000	89.979827
