PE IR       SUBTECH     SPECTRUM    ASCII       PEDS        4.00        
   -1
23ms271.asc
24/09/02
17:18:19.00
24/09/02
17:18:19.00
Administrator
Sample 1087 By Administrator Date Monday, September 02 2024
400.000000
#HDR
-1
-1
#GR
cm-1
%T
1.0
0.0
4000.000000
-1.000000
3601
8
72.630478
1.966202
#DATA
4000.000000	52.194200
3999.000000	52.253746
3998.000000	52.312113
3997.000000	52.369432
3996.000000	52.425595
3995.000000	52.480810
3994.000000	52.536332
3993.000000	52.593911
3992.000000	52.654190
3991.000000	52.715975
3990.000000	52.777326
3989.000000	52.837078
3988.000000	52.895159
3987.000000	52.951889
3986.000000	53.007567
3985.000000	53.062682
3984.000000	53.118036
3983.000000	53.174452
3982.000000	53.232291
3981.000000	53.291179
3980.000000	53.350170
3979.000000	53.408154
3978.000000	53.464267
3977.000000	53.518324
3976.000000	53.571063
3975.000000	53.623639
3974.000000	53.676923
3973.000000	53.731352
3972.000000	53.787259
3971.000000	53.844669
3970.000000	53.902718
3969.000000	53.959673
3968.000000	54.013709
3967.000000	54.064135
3966.000000	54.112039
3965.000000	54.160023
3964.000000	54.210938
3963.000000	54.266099
3962.000000	54.324278
3961.000000	54.382566
3960.000000	54.438396
3959.000000	54.490619
3958.000000	54.539557
3957.000000	54.586703
3956.000000	54.633816
3955.000000	54.681923
3954.000000	54.730843
3953.000000	54.780322
3952.000000	54.831121
3951.000000	54.884943
3950.000000	54.942748
3949.000000	55.002607
3948.000000	55.060626
3947.000000	55.115252
3946.000000	55.169476
3945.000000	55.227313
3944.000000	55.289143
3943.000000	55.351223
3942.000000	55.410177
3941.000000	55.466886
3940.000000	55.524137
3939.000000	55.581364
3938.000000	55.635437
3937.000000	55.685881
3936.000000	55.736659
3935.000000	55.792841
3934.000000	55.855834
3933.000000	55.922774
3932.000000	55.988578
3931.000000	56.048512
3930.000000	56.100513
3929.000000	56.146561
3928.000000	56.193202
3927.000000	56.247451
3926.000000	56.309699
3925.000000	56.373198
3924.000000	56.432558
3923.000000	56.489678
3922.000000	56.547609
3921.000000	56.604702
3920.000000	56.659996
3919.000000	56.717658
3918.000000	56.780564
3917.000000	56.844340
3916.000000	56.903012
3915.000000	56.957258
3914.000000	57.011952
3913.000000	57.068277
3912.000000	57.123925
3911.000000	57.176701
3910.000000	57.225656
3909.000000	57.271703
3908.000000	57.317605
3907.000000	57.368460
3906.000000	57.427208
3905.000000	57.490971
3904.000000	57.553688
3903.000000	57.615678
3902.000000	57.684253
3901.000000	57.759381
3900.000000	57.827578
3899.000000	57.877961
3898.000000	57.916423
3897.000000	57.956798
3896.000000	58.005799
3895.000000	58.062445
3894.000000	58.127746
3893.000000	58.202236
3892.000000	58.273974
3891.000000	58.324440
3890.000000	58.356944
3889.000000	58.399550
3888.000000	58.467202
3887.000000	58.548139
3886.000000	58.618739
3885.000000	58.665735
3884.000000	58.705862
3883.000000	58.765840
3882.000000	58.844046
3881.000000	58.917336
3880.000000	58.969048
3879.000000	59.006655
3878.000000	59.055082
3877.000000	59.123811
3876.000000	59.196290
3875.000000	59.251737
3874.000000	59.285963
3873.000000	59.320609
3872.000000	59.381556
3871.000000	59.462404
3870.000000	59.527903
3869.000000	59.562819
3868.000000	59.599739
3867.000000	59.668812
3866.000000	59.752523
3865.000000	59.821702
3864.000000	59.873072
3863.000000	59.921797
3862.000000	59.979477
3861.000000	60.041959
3860.000000	60.098582
3859.000000	60.144029
3858.000000	60.177966
3857.000000	60.209082
3856.000000	60.258196
3855.000000	60.347864
3854.000000	60.457873
3853.000000	60.516794
3852.000000	60.519944
3851.000000	60.553056
3850.000000	60.639851
3849.000000	60.735384
3848.000000	60.817513
3847.000000	60.893169
3846.000000	60.970301
3845.000000	61.046756
3844.000000	61.114695
3843.000000	61.169720
3842.000000	61.219206
3841.000000	61.275335
3840.000000	61.341527
3839.000000	61.411631
3838.000000	61.475340
3837.000000	61.528979
3836.000000	61.581416
3835.000000	61.644989
3834.000000	61.720235
3833.000000	61.796431
3832.000000	61.863026
3831.000000	61.920859
3830.000000	61.982462
3829.000000	62.057584
3828.000000	62.139191
3827.000000	62.208346
3826.000000	62.256516
3825.000000	62.300625
3824.000000	62.366041
3823.000000	62.457851
3822.000000	62.549995
3821.000000	62.602076
3820.000000	62.617284
3819.000000	62.656741
3818.000000	62.746069
3817.000000	62.845144
3816.000000	62.912318
3815.000000	62.949514
3814.000000	62.999595
3813.000000	63.083861
3812.000000	63.174305
3811.000000	63.246861
3810.000000	63.312856
3809.000000	63.392579
3808.000000	63.480636
3807.000000	63.546250
3806.000000	63.580731
3805.000000	63.621702
3804.000000	63.698400
3803.000000	63.793046
3802.000000	63.868687
3801.000000	63.905990
3800.000000	63.936657
3799.000000	64.011952
3798.000000	64.122024
3797.000000	64.218875
3796.000000	64.284129
3795.000000	64.337507
3794.000000	64.405182
3793.000000	64.488792
3792.000000	64.573032
3791.000000	64.649713
3790.000000	64.722723
3789.000000	64.797052
3788.000000	64.873733
3787.000000	64.950990
3786.000000	65.024513
3785.000000	65.088457
3784.000000	65.144426
3783.000000	65.205638
3782.000000	65.283509
3781.000000	65.372301
3780.000000	65.453927
3779.000000	65.517188
3778.000000	65.571856
3777.000000	65.636437
3776.000000	65.711694
3775.000000	65.783351
3774.000000	65.846196
3773.000000	65.911309
3772.000000	65.988407
3771.000000	66.070922
3770.000000	66.144028
3769.000000	66.207354
3768.000000	66.279091
3767.000000	66.368152
3766.000000	66.457983
3765.000000	66.530425
3764.000000	66.590715
3763.000000	66.658807
3762.000000	66.740143
3761.000000	66.821031
3760.000000	66.892217
3759.000000	66.957498
3758.000000	67.021710
3757.000000	67.083668
3756.000000	67.140076
3755.000000	67.191881
3754.000000	67.243245
3753.000000	67.302688
3752.000000	67.379805
3751.000000	67.467185
3750.000000	67.538831
3749.000000	67.588455
3748.000000	67.643775
3747.000000	67.726795
3746.000000	67.835900
3745.000000	67.956136
3744.000000	68.052425
3743.000000	68.128440
3742.000000	68.238178
3741.000000	68.368417
3740.000000	68.461089
3739.000000	68.511807
3738.000000	68.557633
3737.000000	68.628252
3736.000000	68.723176
3735.000000	68.829976
3734.000000	68.941391
3733.000000	69.044903
3732.000000	69.123380
3731.000000	69.181179
3730.000000	69.243975
3729.000000	69.324752
3728.000000	69.412756
3727.000000	69.495507
3726.000000	69.574793
3725.000000	69.661428
3724.000000	69.758538
3723.000000	69.854691
3722.000000	69.939791
3721.000000	70.015882
3720.000000	70.092099
3719.000000	70.170724
3718.000000	70.242964
3717.000000	70.302987
3716.000000	70.356828
3715.000000	70.415785
3714.000000	70.485961
3713.000000	70.567252
3712.000000	70.653820
3711.000000	70.736363
3710.000000	70.816559
3709.000000	70.904347
3708.000000	70.998506
3707.000000	71.088959
3706.000000	71.170335
3705.000000	71.245281
3704.000000	71.318819
3703.000000	71.393072
3702.000000	71.465298
3701.000000	71.533230
3700.000000	71.603746
3699.000000	71.685175
3698.000000	71.768656
3697.000000	71.836626
3696.000000	71.885338
3695.000000	71.926688
3694.000000	71.970326
3693.000000	72.014401
3692.000000	72.058081
3691.000000	72.108811
3690.000000	72.169783
3689.000000	72.227214
3688.000000	72.270675
3687.000000	72.318021
3686.000000	72.386919
3685.000000	72.460841
3684.000000	72.513407
3683.000000	72.542541
3682.000000	72.561243
3681.000000	72.572746
3680.000000	72.566996
3679.000000	72.546032
3678.000000	72.532613
3677.000000	72.543934
3676.000000	72.563694
3675.000000	72.557312
3674.000000	72.545106
3673.000000	72.574987
3672.000000	72.621120
3671.000000	72.630478
3670.000000	72.597098
3669.000000	72.549041
3668.000000	72.525156
3667.000000	72.532731
3666.000000	72.536965
3665.000000	72.511611
3664.000000	72.461573
3663.000000	72.402120
3662.000000	72.337132
3661.000000	72.260039
3660.000000	72.166989
3659.000000	72.061679
3658.000000	71.947257
3657.000000	71.821914
3656.000000	71.686817
3655.000000	71.557845
3654.000000	71.450684
3653.000000	71.346022
3652.000000	71.206763
3651.000000	71.024721
3650.000000	70.821595
3649.000000	70.617650
3648.000000	70.426405
3647.000000	70.259970
3646.000000	70.117184
3645.000000	69.979396
3644.000000	69.824610
3643.000000	69.642304
3642.000000	69.436259
3641.000000	69.217547
3640.000000	68.994316
3639.000000	68.767928
3638.000000	68.536146
3637.000000	68.300015
3636.000000	68.061609
3635.000000	67.818119
3634.000000	67.565749
3633.000000	67.307507
3632.000000	67.047489
3631.000000	66.777876
3630.000000	66.489470
3629.000000	66.187487
3628.000000	65.896358
3627.000000	65.653832
3626.000000	65.458342
3625.000000	65.257437
3624.000000	65.017995
3623.000000	64.748306
3622.000000	64.463539
3621.000000	64.166059
3620.000000	63.857000
3619.000000	63.549164
3618.000000	63.261190
3617.000000	63.002708
3616.000000	62.761266
3615.000000	62.511245
3614.000000	62.239271
3613.000000	61.954901
3612.000000	61.678711
3611.000000	61.420337
3610.000000	61.169793
3609.000000	60.914281
3608.000000	60.656630
3607.000000	60.409257
3606.000000	60.175680
3605.000000	59.944332
3604.000000	59.700792
3603.000000	59.440654
3602.000000	59.167999
3601.000000	58.890484
3600.000000	58.618389
3599.000000	58.360256
3598.000000	58.115423
3597.000000	57.877624
3596.000000	57.644443
3595.000000	57.417304
3594.000000	57.196554
3593.000000	56.980598
3592.000000	56.767585
3591.000000	56.552106
3590.000000	56.327174
3589.000000	56.093443
3588.000000	55.862834
3587.000000	55.646903
3586.000000	55.447992
3585.000000	55.259354
3584.000000	55.068198
3583.000000	54.864775
3582.000000	54.648498
3581.000000	54.426031
3580.000000	54.205738
3579.000000	53.991954
3578.000000	53.782736
3577.000000	53.574240
3576.000000	53.366423
3575.000000	53.161184
3574.000000	52.958647
3573.000000	52.757486
3572.000000	52.556830
3571.000000	52.354084
3570.000000	52.144120
3569.000000	51.925414
3568.000000	51.706214
3567.000000	51.498514
3566.000000	51.307357
3565.000000	51.129335
3564.000000	50.954705
3563.000000	50.772061
3562.000000	50.576311
3561.000000	50.371675
3560.000000	50.166886
3559.000000	49.966762
3558.000000	49.769082
3557.000000	49.569927
3556.000000	49.369378
3555.000000	49.169462
3554.000000	48.969528
3553.000000	48.768005
3552.000000	48.566857
3551.000000	48.369785
3550.000000	48.176446
3549.000000	47.982725
3548.000000	47.786887
3547.000000	47.591645
3546.000000	47.399388
3545.000000	47.210080
3544.000000	47.023296
3543.000000	46.837933
3542.000000	46.651327
3541.000000	46.462302
3540.000000	46.273559
3539.000000	46.088136
3538.000000	45.905443
3537.000000	45.724023
3536.000000	45.545598
3535.000000	45.372849
3534.000000	45.204944
3533.000000	45.038986
3532.000000	44.874179
3531.000000	44.711166
3530.000000	44.549137
3529.000000	44.387282
3528.000000	44.228188
3527.000000	44.075610
3526.000000	43.929595
3525.000000	43.786649
3524.000000	43.644087
3523.000000	43.501364
3522.000000	43.358553
3521.000000	43.216211
3520.000000	43.075442
3519.000000	42.936159
3518.000000	42.796857
3517.000000	42.657598
3516.000000	42.520489
3515.000000	42.385585
3514.000000	42.249563
3513.000000	42.110424
3512.000000	41.970284
3511.000000	41.831594
3510.000000	41.694051
3509.000000	41.557394
3508.000000	41.423719
3507.000000	41.293499
3506.000000	41.162554
3505.000000	41.026779
3504.000000	40.887687
3503.000000	40.750030
3502.000000	40.616373
3501.000000	40.486499
3500.000000	40.359126
3499.000000	40.231395
3498.000000	40.099674
3497.000000	39.963863
3496.000000	39.828815
3495.000000	39.698722
3494.000000	39.572335
3493.000000	39.446135
3492.000000	39.318932
3491.000000	39.190653
3490.000000	39.059892
3489.000000	38.926187
3488.000000	38.792499
3487.000000	38.662210
3486.000000	38.535389
3485.000000	38.410220
3484.000000	38.285770
3483.000000	38.161219
3482.000000	38.034955
3481.000000	37.906999
3480.000000	37.779994
3479.000000	37.655419
3478.000000	37.531490
3477.000000	37.406794
3476.000000	37.283095
3475.000000	37.162300
3474.000000	37.043493
3473.000000	36.925120
3472.000000	36.807098
3471.000000	36.688675
3470.000000	36.567471
3469.000000	36.443027
3468.000000	36.318535
3467.000000	36.196940
3466.000000	36.077982
3465.000000	35.960670
3464.000000	35.845249
3463.000000	35.730929
3462.000000	35.615057
3461.000000	35.496852
3460.000000	35.378968
3459.000000	35.263323
3458.000000	35.148561
3457.000000	35.033508
3456.000000	34.919601
3455.000000	34.807887
3454.000000	34.696781
3453.000000	34.584996
3452.000000	34.473799
3451.000000	34.363981
3450.000000	34.253430
3449.000000	34.140014
3448.000000	34.024881
3447.000000	33.910780
3446.000000	33.799099
3445.000000	33.689881
3444.000000	33.582286
3443.000000	33.474003
3442.000000	33.362806
3441.000000	33.249665
3440.000000	33.137755
3439.000000	33.027704
3438.000000	32.916951
3437.000000	32.804441
3436.000000	32.692160
3435.000000	32.581012
3434.000000	32.468828
3433.000000	32.354015
3432.000000	32.237744
3431.000000	32.120957
3430.000000	32.002707
3429.000000	31.883015
3428.000000	31.764056
3427.000000	31.646509
3426.000000	31.527997
3425.000000	31.406746
3424.000000	31.283495
3423.000000	31.158312
3422.000000	31.029140
3421.000000	30.895780
3420.000000	30.761887
3419.000000	30.630595
3418.000000	30.501084
3417.000000	30.371046
3416.000000	30.239347
3415.000000	30.104500
3414.000000	29.963880
3413.000000	29.816850
3412.000000	29.665793
3411.000000	29.512524
3410.000000	29.356489
3409.000000	29.197731
3408.000000	29.038344
3407.000000	28.878968
3406.000000	28.717031
3405.000000	28.550195
3404.000000	28.378448
3403.000000	28.201617
3402.000000	28.018181
3401.000000	27.828340
3400.000000	27.635081
3399.000000	27.440315
3398.000000	27.243122
3397.000000	27.042792
3396.000000	26.839808
3395.000000	26.632542
3394.000000	26.416757
3393.000000	26.190757
3392.000000	25.957750
3391.000000	25.721186
3390.000000	25.481366
3389.000000	25.237624
3388.000000	24.990252
3387.000000	24.738382
3386.000000	24.479361
3385.000000	24.212520
3384.000000	23.939984
3383.000000	23.662681
3382.000000	23.378921
3381.000000	23.088102
3380.000000	22.792454
3379.000000	22.493254
3378.000000	22.188981
3377.000000	21.878637
3376.000000	21.563153
3375.000000	21.242477
3374.000000	20.914578
3373.000000	20.578922
3372.000000	20.237810
3371.000000	19.892791
3370.000000	19.543539
3369.000000	19.190761
3368.000000	18.836455
3367.000000	18.480466
3366.000000	18.120342
3365.000000	17.755714
3364.000000	17.388871
3363.000000	17.020492
3362.000000	16.649067
3361.000000	16.275092
3360.000000	15.901699
3359.000000	15.530037
3358.000000	15.158105
3357.000000	14.785208
3356.000000	14.413124
3355.000000	14.042070
3354.000000	13.669971
3353.000000	13.296968
3352.000000	12.926783
3351.000000	12.562542
3350.000000	12.204635
3349.000000	11.853146
3348.000000	11.508367
3347.000000	11.168178
3346.000000	10.829378
3345.000000	10.492330
3344.000000	10.160621
3343.000000	9.836004
3342.000000	9.517351
3341.000000	9.204907
3340.000000	8.901019
3339.000000	8.606222
3338.000000	8.319006
3337.000000	8.039412
3336.000000	7.769024
3335.000000	7.507115
3334.000000	7.251029
3333.000000	7.000890
3332.000000	6.759167
3331.000000	6.525965
3330.000000	6.298836
3329.000000	6.077150
3328.000000	5.862961
3327.000000	5.657091
3326.000000	5.458938
3325.000000	5.269784
3324.000000	5.091515
3323.000000	4.922682
3322.000000	4.759648
3321.000000	4.601779
3320.000000	4.451464
3319.000000	4.308927
3318.000000	4.172041
3317.000000	4.040347
3316.000000	3.915001
3315.000000	3.795230
3314.000000	3.678828
3313.000000	3.566252
3312.000000	3.459660
3311.000000	3.358331
3310.000000	3.259718
3309.000000	3.164231
3308.000000	3.075043
3307.000000	2.993463
3306.000000	2.918689
3305.000000	2.851535
3304.000000	2.793132
3303.000000	2.740833
3302.000000	2.689841
3301.000000	2.638506
3300.000000	2.588267
3299.000000	2.539070
3298.000000	2.489683
3297.000000	2.441750
3296.000000	2.398468
3295.000000	2.359838
3294.000000	2.323517
3293.000000	2.289938
3292.000000	2.261914
3291.000000	2.239280
3290.000000	2.218836
3289.000000	2.199046
3288.000000	2.180587
3287.000000	2.162808
3286.000000	2.143952
3285.000000	2.124946
3284.000000	2.108465
3283.000000	2.094616
3282.000000	2.081423
3281.000000	2.068890
3280.000000	2.058596
3279.000000	2.049758
3278.000000	2.040028
3277.000000	2.029717
3276.000000	2.021066
3275.000000	2.013896
3274.000000	2.006033
3273.000000	1.997788
3272.000000	1.991960
3271.000000	1.989683
3270.000000	1.989927
3269.000000	1.992360
3268.000000	1.996958
3267.000000	2.001607
3266.000000	2.003873
3265.000000	2.004595
3264.000000	2.006312
3263.000000	2.009020
3262.000000	2.011119
3261.000000	2.013159
3260.000000	2.016739
3259.000000	2.020904
3258.000000	2.023609
3257.000000	2.025827
3256.000000	2.030161
3255.000000	2.036449
3254.000000	2.042571
3253.000000	2.048507
3252.000000	2.055553
3251.000000	2.062619
3250.000000	2.067510
3249.000000	2.071098
3248.000000	2.076297
3247.000000	2.083639
3246.000000	2.091519
3245.000000	2.099778
3244.000000	2.109277
3243.000000	2.118921
3242.000000	2.126996
3241.000000	2.134511
3240.000000	2.143532
3239.000000	2.153168
3238.000000	2.160834
3237.000000	2.166416
3236.000000	2.171701
3235.000000	2.176991
3234.000000	2.181921
3233.000000	2.188270
3232.000000	2.197996
3231.000000	2.209524
3230.000000	2.219720
3229.000000	2.228406
3228.000000	2.237340
3227.000000	2.246162
3226.000000	2.253181
3225.000000	2.258971
3224.000000	2.265300
3223.000000	2.271628
3222.000000	2.276351
3221.000000	2.280356
3220.000000	2.285666
3219.000000	2.291668
3218.000000	2.296360
3217.000000	2.300079
3216.000000	2.304375
3215.000000	2.308490
3214.000000	2.310636
3213.000000	2.311561
3212.000000	2.313190
3211.000000	2.314963
3210.000000	2.315105
3209.000000	2.314235
3208.000000	2.314147
3207.000000	2.314256
3206.000000	2.312777
3205.000000	2.310194
3204.000000	2.308018
3203.000000	2.305492
3202.000000	2.301013
3201.000000	2.295495
3200.000000	2.290877
3199.000000	2.286568
3198.000000	2.280813
3197.000000	2.274147
3196.000000	2.268055
3195.000000	2.261711
3194.000000	2.253517
3193.000000	2.244412
3192.000000	2.236241
3191.000000	2.228285
3190.000000	2.218858
3189.000000	2.208787
3188.000000	2.199841
3187.000000	2.191269
3186.000000	2.181340
3185.000000	2.170812
3184.000000	2.161384
3183.000000	2.152311
3182.000000	2.141974
3181.000000	2.131266
3180.000000	2.121954
3179.000000	2.113281
3178.000000	2.103599
3177.000000	2.093770
3176.000000	2.085500
3175.000000	2.077934
3174.000000	2.069380
3173.000000	2.060716
3172.000000	2.053624
3171.000000	2.047134
3170.000000	2.039422
3169.000000	2.031407
3168.000000	2.025059
3167.000000	2.019678
3166.000000	2.013388
3165.000000	2.006759
3164.000000	2.001520
3163.000000	1.997228
3162.000000	1.992546
3161.000000	1.988280
3160.000000	1.985805
3159.000000	1.984039
3158.000000	1.981186
3157.000000	1.977828
3156.000000	1.975216
3155.000000	1.972432
3154.000000	1.968624
3153.000000	1.966202
3152.000000	1.968129
3151.000000	1.973602
3150.000000	1.979664
3149.000000	1.985441
3148.000000	1.991614
3147.000000	1.997526
3146.000000	2.002322
3145.000000	2.007294
3144.000000	2.013739
3143.000000	2.020102
3142.000000	2.024487
3141.000000	2.028430
3140.000000	2.035002
3139.000000	2.044669
3138.000000	2.056081
3137.000000	2.069060
3136.000000	2.083633
3135.000000	2.097929
3134.000000	2.110263
3133.000000	2.121915
3132.000000	2.134923
3131.000000	2.148899
3130.000000	2.162853
3129.000000	2.177975
3128.000000	2.195591
3127.000000	2.214279
3126.000000	2.232088
3125.000000	2.249584
3124.000000	2.267723
3123.000000	2.285017
3122.000000	2.300142
3121.000000	2.315273
3120.000000	2.333476
3119.000000	2.354583
3118.000000	2.376953
3117.000000	2.401210
3116.000000	2.428796
3115.000000	2.458635
3114.000000	2.488467
3113.000000	2.517902
3112.000000	2.547238
3111.000000	2.575332
3110.000000	2.601793
3109.000000	2.629278
3108.000000	2.660391
3107.000000	2.693987
3106.000000	2.727437
3105.000000	2.760542
3104.000000	2.794241
3103.000000	2.827742
3102.000000	2.860260
3101.000000	2.893684
3100.000000	2.930239
3099.000000	2.969018
3098.000000	3.007890
3097.000000	3.046975
3096.000000	3.087208
3095.000000	3.127452
3094.000000	3.166162
3093.000000	3.204319
3092.000000	3.243857
3091.000000	3.284787
3090.000000	3.326479
3089.000000	3.369754
3088.000000	3.415025
3087.000000	3.460446
3086.000000	3.504688
3085.000000	3.549569
3084.000000	3.597038
3083.000000	3.645717
3082.000000	3.693395
3081.000000	3.740851
3080.000000	3.790296
3079.000000	3.842004
3078.000000	3.895393
3077.000000	3.951335
3076.000000	4.010200
3075.000000	4.069596
3074.000000	4.127069
3073.000000	4.183275
3072.000000	4.239804
3071.000000	4.295892
3070.000000	4.350377
3069.000000	4.404953
3068.000000	4.462286
3067.000000	4.522493
3066.000000	4.584178
3065.000000	4.647281
3064.000000	4.712080
3063.000000	4.777142
3062.000000	4.841116
3061.000000	4.904895
3060.000000	4.969533
3059.000000	5.033878
3058.000000	5.096788
3057.000000	5.159801
3056.000000	5.224862
3055.000000	5.291181
3054.000000	5.357052
3053.000000	5.422997
3052.000000	5.490534
3051.000000	5.559457
3050.000000	5.628761
3049.000000	5.698514
3048.000000	5.768503
3047.000000	5.837020
3046.000000	5.903408
3045.000000	5.969925
3044.000000	6.038795
3043.000000	6.109422
3042.000000	6.180744
3041.000000	6.253885
3040.000000	6.329627
3039.000000	6.405506
3038.000000	6.478441
3037.000000	6.548680
3036.000000	6.618682
3035.000000	6.689805
3034.000000	6.762446
3033.000000	6.837422
3032.000000	6.914523
3031.000000	6.991426
3030.000000	7.066465
3029.000000	7.140733
3028.000000	7.215437
3027.000000	7.289485
3026.000000	7.362116
3025.000000	7.435466
3024.000000	7.511647
3023.000000	7.589246
3022.000000	7.665496
3021.000000	7.740101
3020.000000	7.814270
3019.000000	7.887826
3018.000000	7.960090
3017.000000	8.032062
3016.000000	8.105148
3015.000000	8.179189
3014.000000	8.254029
3013.000000	8.331298
3012.000000	8.412196
3011.000000	8.495177
3010.000000	8.578004
3009.000000	8.660414
3008.000000	8.742667
3007.000000	8.823538
3006.000000	8.902166
3005.000000	8.980116
3004.000000	9.059236
3003.000000	9.138916
3002.000000	9.217554
3001.000000	9.295061
3000.000000	9.372054
2999.000000	9.448458
2998.000000	9.524849
2997.000000	9.603097
2996.000000	9.683530
2995.000000	9.763590
2994.000000	9.841570
2993.000000	9.919608
2992.000000	10.000582
2991.000000	10.084097
2990.000000	10.167937
2989.000000	10.251476
2988.000000	10.335031
2987.000000	10.417719
2986.000000	10.498626
2985.000000	10.578618
2984.000000	10.658620
2983.000000	10.737744
2982.000000	10.815442
2981.000000	10.893790
2980.000000	10.975112
2979.000000	11.058727
2978.000000	11.142399
2977.000000	11.225566
2976.000000	11.308944
2975.000000	11.392461
2974.000000	11.475887
2973.000000	11.560053
2972.000000	11.645273
2971.000000	11.729927
2970.000000	11.812671
2969.000000	11.894638
2968.000000	11.977472
2967.000000	12.060831
2966.000000	12.143810
2965.000000	12.227049
2964.000000	12.311246
2963.000000	12.395259
2962.000000	12.477877
2961.000000	12.559801
2960.000000	12.641827
2959.000000	12.723019
2958.000000	12.802692
2957.000000	12.882209
2956.000000	12.962568
2955.000000	13.042394
2954.000000	13.120609
2953.000000	13.198911
2952.000000	13.279054
2951.000000	13.359646
2950.000000	13.438315
2949.000000	13.515269
2948.000000	13.592295
2947.000000	13.670009
2946.000000	13.748537
2945.000000	13.829190
2944.000000	13.912735
2943.000000	13.997263
2942.000000	14.080138
2941.000000	14.160990
2940.000000	14.240786
2939.000000	14.319538
2938.000000	14.397094
2937.000000	14.474728
2936.000000	14.553634
2935.000000	14.632990
2934.000000	14.711473
2933.000000	14.789278
2932.000000	14.866816
2931.000000	14.943175
2930.000000	15.017997
2929.000000	15.093170
2928.000000	15.170414
2927.000000	15.248826
2926.000000	15.326870
2925.000000	15.404875
2924.000000	15.483352
2923.000000	15.560791
2922.000000	15.635712
2921.000000	15.709229
2920.000000	15.783278
2919.000000	15.857937
2918.000000	15.932565
2917.000000	16.007806
2916.000000	16.084118
2915.000000	16.159806
2914.000000	16.232762
2913.000000	16.302924
2912.000000	16.371339
2911.000000	16.438268
2910.000000	16.504098
2909.000000	16.570548
2908.000000	16.638973
2907.000000	16.708637
2906.000000	16.778281
2905.000000	16.848004
2904.000000	16.917883
2903.000000	16.986401
2902.000000	17.052264
2901.000000	17.116567
2900.000000	17.181334
2899.000000	17.247033
2898.000000	17.313082
2897.000000	17.379349
2896.000000	17.445459
2895.000000	17.509888
2894.000000	17.571548
2893.000000	17.631262
2892.000000	17.690333
2891.000000	17.748951
2890.000000	17.807269
2889.000000	17.866387
2888.000000	17.926622
2887.000000	17.986244
2886.000000	18.043566
2885.000000	18.098910
2884.000000	18.152962
2883.000000	18.204790
2882.000000	18.253277
2881.000000	18.299171
2880.000000	18.343960
2879.000000	18.388025
2878.000000	18.431566
2877.000000	18.475912
2876.000000	18.521867
2875.000000	18.567883
2874.000000	18.611870
2873.000000	18.653966
2872.000000	18.696107
2871.000000	18.740041
2870.000000	18.787399
2869.000000	18.840390
2868.000000	18.900331
2867.000000	18.966190
2866.000000	19.036088
2865.000000	19.109296
2864.000000	19.185564
2863.000000	19.263901
2862.000000	19.343621
2861.000000	19.425443
2860.000000	19.510067
2859.000000	19.596772
2858.000000	19.684776
2857.000000	19.774483
2856.000000	19.865810
2855.000000	19.956757
2854.000000	20.045383
2853.000000	20.132029
2852.000000	20.218120
2851.000000	20.303970
2850.000000	20.389289
2849.000000	20.474440
2848.000000	20.559535
2847.000000	20.643362
2846.000000	20.724719
2845.000000	20.803854
2844.000000	20.881433
2843.000000	20.957349
2842.000000	21.031834
2841.000000	21.106381
2840.000000	21.182036
2839.000000	21.257913
2838.000000	21.332751
2837.000000	21.406726
2836.000000	21.480239
2835.000000	21.552290
2834.000000	21.621764
2833.000000	21.689417
2832.000000	21.756943
2831.000000	21.824968
2830.000000	21.893463
2829.000000	21.963093
2828.000000	22.034406
2827.000000	22.106302
2826.000000	22.176838
2825.000000	22.245110
2824.000000	22.311260
2823.000000	22.375507
2822.000000	22.438516
2821.000000	22.501955
2820.000000	22.567238
2819.000000	22.634158
2818.000000	22.701678
2817.000000	22.769245
2816.000000	22.836305
2815.000000	22.901639
2814.000000	22.964624
2813.000000	23.026443
2812.000000	23.088832
2811.000000	23.152341
2810.000000	23.216841
2809.000000	23.282695
2808.000000	23.349999
2807.000000	23.417483
2806.000000	23.483531
2805.000000	23.547764
2804.000000	23.610618
2803.000000	23.672315
2802.000000	23.733492
2801.000000	23.795843
2800.000000	23.860598
2799.000000	23.926872
2798.000000	23.992656
2797.000000	24.056801
2796.000000	24.119054
2795.000000	24.179170
2794.000000	24.237473
2793.000000	24.295585
2792.000000	24.355164
2791.000000	24.416273
2790.000000	24.478021
2789.000000	24.540042
2788.000000	24.602108
2787.000000	24.663025
2786.000000	24.721437
2785.000000	24.777367
2784.000000	24.831913
2783.000000	24.885916
2782.000000	24.939944
2781.000000	24.994940
2780.000000	25.051594
2779.000000	25.109350
2778.000000	25.166936
2777.000000	25.223324
2776.000000	25.277519
2775.000000	25.328363
2774.000000	25.375817
2773.000000	25.421894
2772.000000	25.469159
2771.000000	25.518727
2770.000000	25.570423
2769.000000	25.623896
2768.000000	25.678379
2767.000000	25.732220
2766.000000	25.784101
2765.000000	25.834411
2764.000000	25.884504
2763.000000	25.935191
2762.000000	25.986931
2761.000000	26.040580
2760.000000	26.096475
2759.000000	26.153232
2758.000000	26.208640
2757.000000	26.261434
2756.000000	26.311452
2755.000000	26.358850
2754.000000	26.404413
2753.000000	26.450057
2752.000000	26.497628
2751.000000	26.547369
2750.000000	26.598258
2749.000000	26.649226
2748.000000	26.699194
2747.000000	26.746750
2746.000000	26.791139
2745.000000	26.833266
2744.000000	26.874782
2743.000000	26.916713
2742.000000	26.959729
2741.000000	27.004725
2740.000000	27.051734
2739.000000	27.098835
2738.000000	27.143515
2737.000000	27.184901
2736.000000	27.223800
2735.000000	27.261290
2734.000000	27.298441
2733.000000	27.336693
2732.000000	27.377051
2731.000000	27.419055
2730.000000	27.461524
2729.000000	27.503786
2728.000000	27.545224
2727.000000	27.584404
2726.000000	27.620130
2725.000000	27.653139
2724.000000	27.685556
2723.000000	27.719013
2722.000000	27.754185
2721.000000	27.791379
2720.000000	27.830134
2719.000000	27.868592
2718.000000	27.904673
2717.000000	27.937901
2716.000000	27.969252
2715.000000	27.999808
2714.000000	28.030649
2713.000000	28.063346
2712.000000	28.098921
2711.000000	28.136347
2710.000000	28.173279
2709.000000	28.208070
2708.000000	28.240182
2707.000000	28.269247
2706.000000	28.295204
2705.000000	28.319275
2704.000000	28.343457
2703.000000	28.368933
2702.000000	28.395747
2701.000000	28.423472
2700.000000	28.451060
2699.000000	28.476416
2698.000000	28.497607
2697.000000	28.514707
2696.000000	28.529512
2695.000000	28.543761
2694.000000	28.558557
2693.000000	28.574910
2692.000000	28.593275
2691.000000	28.612402
2690.000000	28.629905
2689.000000	28.644135
2688.000000	28.654770
2687.000000	28.662113
2686.000000	28.667061
2685.000000	28.671566
2684.000000	28.677701
2683.000000	28.685930
2682.000000	28.695120
2681.000000	28.703957
2680.000000	28.711420
2679.000000	28.716300
2678.000000	28.717753
2677.000000	28.716633
2676.000000	28.715302
2675.000000	28.715970
2674.000000	28.719918
2673.000000	28.727933
2672.000000	28.740210
2671.000000	28.755816
2670.000000	28.773302
2669.000000	28.792044
2668.000000	28.812587
2667.000000	28.835815
2666.000000	28.862810
2665.000000	28.895181
2664.000000	28.934236
2663.000000	28.979870
2662.000000	29.030652
2661.000000	29.084862
2660.000000	29.140816
2659.000000	29.196602
2658.000000	29.250967
2657.000000	29.304440
2656.000000	29.358800
2655.000000	29.415509
2654.000000	29.475013
2653.000000	29.537083
2652.000000	29.600664
2651.000000	29.663596
2650.000000	29.723647
2649.000000	29.780062
2648.000000	29.833564
2647.000000	29.885184
2646.000000	29.935910
2645.000000	29.987039
2644.000000	30.039571
2643.000000	30.092940
2642.000000	30.145182
2641.000000	30.194436
2640.000000	30.239673
2639.000000	30.280552
2638.000000	30.317644
2637.000000	30.352843
2636.000000	30.388445
2635.000000	30.425382
2634.000000	30.463021
2633.000000	30.500371
2632.000000	30.536598
2631.000000	30.570591
2630.000000	30.601201
2629.000000	30.628404
2628.000000	30.653484
2627.000000	30.677916
2626.000000	30.702754
2625.000000	30.728798
2624.000000	30.756298
2623.000000	30.784186
2622.000000	30.810451
2621.000000	30.833674
2620.000000	30.853701
2619.000000	30.871097
2618.000000	30.886829
2617.000000	30.902503
2616.000000	30.919941
2615.000000	30.939960
2614.000000	30.961885
2613.000000	30.984072
2612.000000	31.004298
2611.000000	31.020142
2610.000000	31.030082
2609.000000	31.034635
2608.000000	31.035897
2607.000000	31.035820
2606.000000	31.035462
2605.000000	31.035131
2604.000000	31.034143
2603.000000	31.030549
2602.000000	31.022056
2601.000000	31.007821
2600.000000	30.988732
2599.000000	30.966356
2598.000000	30.942666
2597.000000	30.920481
2596.000000	30.902832
2595.000000	30.891448
2594.000000	30.886441
2593.000000	30.887335
2592.000000	30.893846
2591.000000	30.905656
2590.000000	30.922774
2589.000000	30.946368
2588.000000	30.978094
2587.000000	31.018969
2586.000000	31.068929
2585.000000	31.127349
2584.000000	31.193082
2583.000000	31.263654
2582.000000	31.336017
2581.000000	31.408175
2580.000000	31.479763
2579.000000	31.551332
2578.000000	31.623669
2577.000000	31.698005
2576.000000	31.775563
2575.000000	31.856428
2574.000000	31.939451
2573.000000	32.023343
2572.000000	32.107561
2571.000000	32.192182
2570.000000	32.277802
2569.000000	32.365785
2568.000000	32.457557
2567.000000	32.553363
2566.000000	32.652061
2565.000000	32.752086
2564.000000	32.851991
2563.000000	32.950006
2562.000000	33.044315
2561.000000	33.134417
2560.000000	33.221698
2559.000000	33.308199
2558.000000	33.395284
2557.000000	33.483457
2556.000000	33.572383
2555.000000	33.660558
2554.000000	33.745475
2553.000000	33.825067
2552.000000	33.898819
2551.000000	33.967456
2550.000000	34.032504
2549.000000	34.096226
2548.000000	34.161075
2547.000000	34.228091
2546.000000	34.295939
2545.000000	34.362073
2544.000000	34.424146
2543.000000	34.480472
2542.000000	34.530204
2541.000000	34.573960
2540.000000	34.614059
2539.000000	34.653065
2538.000000	34.692263
2537.000000	34.731352
2536.000000	34.768472
2535.000000	34.800427
2534.000000	34.823381
2533.000000	34.834706
2532.000000	34.834191
2531.000000	34.823132
2530.000000	34.803562
2529.000000	34.778170
2528.000000	34.750028
2527.000000	34.721442
2526.000000	34.693112
2525.000000	34.665258
2524.000000	34.638680
2523.000000	34.614609
2522.000000	34.594436
2521.000000	34.580564
2520.000000	34.576545
2519.000000	34.585782
2518.000000	34.610134
2517.000000	34.649323
2516.000000	34.701552
2515.000000	34.763503
2514.000000	34.831197
2513.000000	34.901854
2512.000000	34.974447
2511.000000	35.049149
2510.000000	35.126269
2509.000000	35.206174
2508.000000	35.289141
2507.000000	35.374234
2506.000000	35.459104
2505.000000	35.541337
2504.000000	35.619722
2503.000000	35.693930
2502.000000	35.763963
2501.000000	35.830543
2500.000000	35.895350
2499.000000	35.959914
2498.000000	36.024407
2497.000000	36.088060
2496.000000	36.149851
2495.000000	36.208393
2494.000000	36.262186
2493.000000	36.310880
2492.000000	36.356052
2491.000000	36.399878
2490.000000	36.443662
2489.000000	36.488038
2488.000000	36.533320
2487.000000	36.578780
2486.000000	36.622226
2485.000000	36.661520
2484.000000	36.696338
2483.000000	36.727756
2482.000000	36.757119
2481.000000	36.786095
2480.000000	36.816833
2479.000000	36.850698
2478.000000	36.886903
2477.000000	36.923203
2476.000000	36.957406
2475.000000	36.987799
2474.000000	37.013303
2473.000000	37.034482
2472.000000	37.054057
2471.000000	37.075267
2470.000000	37.099855
2469.000000	37.127997
2468.000000	37.158995
2467.000000	37.191059
2466.000000	37.221219
2465.000000	37.246900
2464.000000	37.267583
2463.000000	37.284493
2462.000000	37.299570
2461.000000	37.315442
2460.000000	37.335122
2459.000000	37.360089
2458.000000	37.388892
2457.000000	37.418450
2456.000000	37.446233
2455.000000	37.470587
2454.000000	37.490291
2453.000000	37.505498
2452.000000	37.518648
2451.000000	37.533123
2450.000000	37.551059
2449.000000	37.572989
2448.000000	37.598501
2447.000000	37.625950
2446.000000	37.652278
2445.000000	37.674675
2444.000000	37.692470
2443.000000	37.706863
2442.000000	37.719589
2441.000000	37.732709
2440.000000	37.748567
2439.000000	37.768322
2438.000000	37.790689
2437.000000	37.813015
2436.000000	37.833124
2435.000000	37.849229
2434.000000	37.859346
2433.000000	37.862299
2432.000000	37.858891
2431.000000	37.851223
2430.000000	37.841689
2429.000000	37.834140
2428.000000	37.834801
2427.000000	37.849876
2426.000000	37.881367
2425.000000	37.926011
2424.000000	37.977588
2423.000000	38.029797
2422.000000	38.078358
2421.000000	38.122059
2420.000000	38.162457
2419.000000	38.201344
2418.000000	38.238717
2417.000000	38.273577
2416.000000	38.305780
2415.000000	38.335939
2414.000000	38.364439
2413.000000	38.391936
2412.000000	38.420089
2411.000000	38.450438
2410.000000	38.482805
2409.000000	38.515811
2408.000000	38.548389
2407.000000	38.579717
2406.000000	38.608643
2405.000000	38.634696
2404.000000	38.659292
2403.000000	38.684700
2402.000000	38.712279
2401.000000	38.742603
2400.000000	38.776258
2399.000000	38.812970
2398.000000	38.850534
2397.000000	38.886147
2396.000000	38.918596
2395.000000	38.948346
2394.000000	38.976551
2393.000000	39.005238
2392.000000	39.037501
2391.000000	39.075595
2390.000000	39.119030
2389.000000	39.165468
2388.000000	39.212897
2387.000000	39.259688
2386.000000	39.303988
2385.000000	39.345285
2384.000000	39.385938
2383.000000	39.430081
2382.000000	39.480710
2381.000000	39.538932
2380.000000	39.604865
2379.000000	39.676641
2378.000000	39.749795
2377.000000	39.819440
2376.000000	39.883071
2375.000000	39.940893
2374.000000	39.994441
2373.000000	40.046850
2372.000000	40.103348
2371.000000	40.168180
2370.000000	40.240776
2369.000000	40.317977
2368.000000	40.397846
2367.000000	40.478381
2366.000000	40.554762
2365.000000	40.623835
2364.000000	40.688775
2363.000000	40.752056
2362.000000	40.815372
2361.000000	40.881235
2360.000000	40.950287
2359.000000	41.024369
2358.000000	41.098121
2357.000000	41.165790
2356.000000	41.226483
2355.000000	41.278980
2354.000000	41.326381
2353.000000	41.374298
2352.000000	41.438485
2351.000000	41.523537
2350.000000	41.612675
2349.000000	41.690022
2348.000000	41.752611
2347.000000	41.818425
2346.000000	41.895764
2345.000000	41.976387
2344.000000	42.048942
2343.000000	42.107317
2342.000000	42.162576
2341.000000	42.219877
2340.000000	42.282989
2339.000000	42.351092
2338.000000	42.422147
2337.000000	42.492385
2336.000000	42.560971
2335.000000	42.628058
2334.000000	42.694408
2333.000000	42.758071
2332.000000	42.821320
2331.000000	42.887953
2330.000000	42.955860
2329.000000	43.027451
2328.000000	43.097013
2327.000000	43.167544
2326.000000	43.234555
2325.000000	43.298327
2324.000000	43.361550
2323.000000	43.425354
2322.000000	43.491577
2321.000000	43.556216
2320.000000	43.621602
2319.000000	43.688663
2318.000000	43.757296
2317.000000	43.823954
2316.000000	43.886535
2315.000000	43.947750
2314.000000	44.008733
2313.000000	44.071939
2312.000000	44.137285
2311.000000	44.207814
2310.000000	44.280846
2309.000000	44.353869
2308.000000	44.422473
2307.000000	44.486601
2306.000000	44.545129
2305.000000	44.599470
2304.000000	44.653061
2303.000000	44.711731
2302.000000	44.777715
2301.000000	44.850578
2300.000000	44.927329
2299.000000	45.005582
2298.000000	45.079531
2297.000000	45.145012
2296.000000	45.200555
2295.000000	45.250824
2294.000000	45.299973
2293.000000	45.352485
2292.000000	45.412025
2291.000000	45.481320
2290.000000	45.557548
2289.000000	45.633925
2288.000000	45.704317
2287.000000	45.765676
2286.000000	45.817052
2285.000000	45.859840
2284.000000	45.900100
2283.000000	45.945810
2282.000000	46.001927
2281.000000	46.068122
2280.000000	46.141604
2279.000000	46.217589
2278.000000	46.288937
2277.000000	46.348706
2276.000000	46.395418
2275.000000	46.433480
2274.000000	46.468612
2273.000000	46.505993
2272.000000	46.550760
2271.000000	46.606360
2270.000000	46.670486
2269.000000	46.736022
2268.000000	46.796234
2267.000000	46.847272
2266.000000	46.886959
2265.000000	46.915934
2264.000000	46.939787
2263.000000	46.966935
2262.000000	47.002311
2261.000000	47.045655
2260.000000	47.094540
2259.000000	47.145182
2258.000000	47.191566
2257.000000	47.227548
2256.000000	47.252118
2255.000000	47.269286
2254.000000	47.283719
2253.000000	47.299106
2252.000000	47.319371
2251.000000	47.347082
2250.000000	47.379264
2249.000000	47.409016
2248.000000	47.431097
2247.000000	47.444450
2246.000000	47.449361
2245.000000	47.447411
2244.000000	47.443440
2243.000000	47.443425
2242.000000	47.449092
2241.000000	47.457306
2240.000000	47.464156
2239.000000	47.466546
2238.000000	47.460697
2237.000000	47.443912
2236.000000	47.418744
2235.000000	47.391938
2234.000000	47.368883
2233.000000	47.351557
2232.000000	47.340441
2231.000000	47.334031
2230.000000	47.326419
2229.000000	47.309886
2228.000000	47.281144
2227.000000	47.242724
2226.000000	47.199212
2225.000000	47.155759
2224.000000	47.119174
2223.000000	47.095161
2222.000000	47.082901
2221.000000	47.075186
2220.000000	47.064110
2219.000000	47.044264
2218.000000	47.012065
2217.000000	46.967374
2216.000000	46.916767
2215.000000	46.871260
2214.000000	46.839304
2213.000000	46.823461
2212.000000	46.822069
2211.000000	46.829736
2210.000000	46.836563
2209.000000	46.831994
2208.000000	46.811668
2207.000000	46.779152
2206.000000	46.741881
2205.000000	46.708551
2204.000000	46.688658
2203.000000	46.688688
2202.000000	46.706776
2201.000000	46.733473
2200.000000	46.758211
2199.000000	46.773229
2198.000000	46.773594
2197.000000	46.759060
2196.000000	46.736969
2195.000000	46.719308
2194.000000	46.715358
2193.000000	46.728307
2192.000000	46.756798
2191.000000	46.795051
2190.000000	46.832166
2189.000000	46.856684
2188.000000	46.864145
2187.000000	46.858339
2186.000000	46.846217
2185.000000	46.835093
2184.000000	46.832930
2183.000000	46.845299
2182.000000	46.870215
2181.000000	46.899064
2180.000000	46.923095
2179.000000	46.936771
2178.000000	46.936823
2177.000000	46.923587
2176.000000	46.903993
2175.000000	46.888519
2174.000000	46.883659
2173.000000	46.889412
2172.000000	46.902843
2171.000000	46.919530
2170.000000	46.932246
2169.000000	46.933789
2168.000000	46.923264
2167.000000	46.906656
2166.000000	46.891148
2165.000000	46.881845
2164.000000	46.882668
2163.000000	46.894870
2162.000000	46.913535
2161.000000	46.929443
2160.000000	46.935833
2159.000000	46.931363
2158.000000	46.917973
2157.000000	46.900341
2156.000000	46.886990
2155.000000	46.886433
2154.000000	46.900433
2153.000000	46.923288
2152.000000	46.947234
2151.000000	46.965239
2150.000000	46.970529
2149.000000	46.959449
2148.000000	46.936555
2147.000000	46.912941
2146.000000	46.898636
2145.000000	46.898532
2144.000000	46.913679
2143.000000	46.940379
2142.000000	46.968197
2141.000000	46.984234
2140.000000	46.981770
2139.000000	46.962718
2138.000000	46.933539
2137.000000	46.903234
2136.000000	46.883684
2135.000000	46.884740
2134.000000	46.906435
2133.000000	46.939096
2132.000000	46.971069
2131.000000	46.993564
2130.000000	47.000125
2129.000000	46.988425
2128.000000	46.964689
2127.000000	46.941771
2126.000000	46.930951
2125.000000	46.937427
2124.000000	46.961822
2123.000000	46.999936
2122.000000	47.040808
2121.000000	47.071003
2120.000000	47.083584
2119.000000	47.080728
2118.000000	47.069023
2117.000000	47.056929
2116.000000	47.055572
2115.000000	47.074616
2114.000000	47.114551
2113.000000	47.166084
2112.000000	47.217972
2111.000000	47.262266
2110.000000	47.293821
2109.000000	47.311604
2108.000000	47.322503
2107.000000	47.338886
2106.000000	47.370179
2105.000000	47.418940
2104.000000	47.483523
2103.000000	47.558999
2102.000000	47.635387
2101.000000	47.701436
2100.000000	47.753240
2099.000000	47.795873
2098.000000	47.837349
2097.000000	47.884523
2096.000000	47.944495
2095.000000	48.022246
2094.000000	48.114113
2093.000000	48.208339
2092.000000	48.294503
2091.000000	48.368958
2090.000000	48.431819
2089.000000	48.484813
2088.000000	48.533834
2087.000000	48.587720
2086.000000	48.651600
2085.000000	48.723883
2084.000000	48.799451
2083.000000	48.871609
2082.000000	48.931097
2081.000000	48.969813
2080.000000	48.988333
2079.000000	48.995860
2078.000000	49.002336
2077.000000	49.013679
2076.000000	49.033803
2075.000000	49.064164
2074.000000	49.098789
2073.000000	49.126316
2072.000000	49.138203
2071.000000	49.133035
2070.000000	49.113884
2069.000000	49.085838
2068.000000	49.057121
2067.000000	49.037708
2066.000000	49.034530
2065.000000	49.048657
2064.000000	49.075291
2063.000000	49.103722
2062.000000	49.120686
2061.000000	49.119863
2060.000000	49.108375
2059.000000	49.100286
2058.000000	49.104750
2057.000000	49.124349
2056.000000	49.160810
2055.000000	49.214034
2054.000000	49.276069
2053.000000	49.334392
2052.000000	49.382025
2051.000000	49.420812
2050.000000	49.456160
2049.000000	49.494494
2048.000000	49.544788
2047.000000	49.615551
2046.000000	49.707301
2045.000000	49.811081
2044.000000	49.916214
2043.000000	50.016310
2042.000000	50.108782
2041.000000	50.194797
2040.000000	50.280855
2039.000000	50.375695
2038.000000	50.484544
2037.000000	50.608850
2036.000000	50.749455
2035.000000	50.904007
2034.000000	51.062063
2033.000000	51.210016
2032.000000	51.342451
2031.000000	51.464108
2030.000000	51.581863
2029.000000	51.702346
2028.000000	51.834547
2027.000000	51.986792
2026.000000	52.157044
2025.000000	52.334160
2024.000000	52.507514
2023.000000	52.671078
2022.000000	52.819790
2021.000000	52.949226
2020.000000	53.062897
2019.000000	53.174207
2018.000000	53.298847
2017.000000	53.446736
2016.000000	53.618136
2015.000000	53.801399
2014.000000	53.976621
2013.000000	54.128653
2012.000000	54.257605
2011.000000	54.373352
2010.000000	54.482539
2009.000000	54.588350
2008.000000	54.698376
2007.000000	54.821947
2006.000000	54.957657
2005.000000	55.095086
2004.000000	55.226864
2003.000000	55.351033
2002.000000	55.464680
2001.000000	55.563381
2000.000000	55.652718
1999.000000	55.743892
1998.000000	55.841655
1997.000000	55.944280
1996.000000	56.048718
1995.000000	56.149369
1994.000000	56.238761
1993.000000	56.319089
1992.000000	56.406355
1991.000000	56.509587
1990.000000	56.613544
1989.000000	56.700138
1988.000000	56.775738
1987.000000	56.859379
1986.000000	56.952412
1985.000000	57.038641
1984.000000	57.111047
1983.000000	57.178426
1982.000000	57.247264
1981.000000	57.314373
1980.000000	57.382588
1979.000000	57.459864
1978.000000	57.544682
1977.000000	57.626577
1976.000000	57.700543
1975.000000	57.768651
1974.000000	57.828710
1973.000000	57.876999
1972.000000	57.920103
1971.000000	57.969043
1970.000000	58.022855
1969.000000	58.074209
1968.000000	58.129640
1967.000000	58.205906
1966.000000	58.301090
1965.000000	58.388043
1964.000000	58.444930
1963.000000	58.476057
1962.000000	58.497893
1961.000000	58.522946
1960.000000	58.560912
1959.000000	58.618651
1958.000000	58.692004
1957.000000	58.767570
1956.000000	58.837572
1955.000000	58.902645
1954.000000	58.958022
1953.000000	58.994144
1952.000000	59.011489
1951.000000	59.026309
1950.000000	59.051385
1949.000000	59.085039
1948.000000	59.128266
1947.000000	59.188687
1946.000000	59.259842
1945.000000	59.317316
1944.000000	59.348023
1943.000000	59.370265
1942.000000	59.408239
1941.000000	59.456136
1940.000000	59.489965
1939.000000	59.506286
1938.000000	59.524211
1937.000000	59.559438
1936.000000	59.612464
1935.000000	59.673438
1934.000000	59.728785
1933.000000	59.768201
1932.000000	59.788860
1931.000000	59.798496
1930.000000	59.802826
1929.000000	59.801445
1928.000000	59.805310
1927.000000	59.825619
1926.000000	59.856700
1925.000000	59.875873
1924.000000	59.880778
1923.000000	59.904774
1922.000000	59.967878
1921.000000	60.041080
1920.000000	60.084991
1919.000000	60.097501
1918.000000	60.106809
1917.000000	60.124962
1916.000000	60.132587
1915.000000	60.118676
1914.000000	60.099551
1913.000000	60.090436
1912.000000	60.086814
1911.000000	60.080317
1910.000000	60.070303
1909.000000	60.061569
1908.000000	60.059893
1907.000000	60.061069
1906.000000	60.059501
1905.000000	60.052045
1904.000000	60.045540
1903.000000	60.054271
1902.000000	60.077428
1901.000000	60.101415
1900.000000	60.120846
1899.000000	60.136004
1898.000000	60.141722
1897.000000	60.127784
1896.000000	60.101029
1895.000000	60.091216
1894.000000	60.113650
1893.000000	60.147156
1892.000000	60.164949
1891.000000	60.170617
1890.000000	60.192107
1889.000000	60.246936
1888.000000	60.315210
1887.000000	60.358380
1886.000000	60.359962
1885.000000	60.335096
1884.000000	60.311257
1883.000000	60.305642
1882.000000	60.312589
1881.000000	60.321035
1880.000000	60.337000
1879.000000	60.370188
1878.000000	60.415036
1877.000000	60.454419
1876.000000	60.476289
1875.000000	60.482984
1874.000000	60.479943
1873.000000	60.467391
1872.000000	60.449037
1871.000000	60.431559
1870.000000	60.417612
1869.000000	60.418759
1868.000000	60.454984
1867.000000	60.515394
1866.000000	60.557625
1865.000000	60.556560
1864.000000	60.520540
1863.000000	60.469900
1862.000000	60.415653
1861.000000	60.361062
1860.000000	60.317544
1859.000000	60.301487
1858.000000	60.314547
1857.000000	60.342000
1856.000000	60.370318
1855.000000	60.391844
1854.000000	60.396157
1853.000000	60.370950
1852.000000	60.322691
1851.000000	60.260718
1850.000000	60.189718
1849.000000	60.127152
1848.000000	60.110582
1847.000000	60.170582
1846.000000	60.288500
1845.000000	60.407486
1844.000000	60.486944
1843.000000	60.501038
1842.000000	60.410450
1841.000000	60.228254
1840.000000	60.034544
1839.000000	59.892174
1838.000000	59.812141
1837.000000	59.770807
1836.000000	59.750629
1835.000000	59.751391
1834.000000	59.762832
1833.000000	59.759875
1832.000000	59.722933
1831.000000	59.650458
1830.000000	59.579122
1829.000000	59.545727
1828.000000	59.518635
1827.000000	59.450418
1826.000000	59.351211
1825.000000	59.270089
1824.000000	59.235300
1823.000000	59.216853
1822.000000	59.169120
1821.000000	59.088390
1820.000000	59.000603
1819.000000	58.922191
1818.000000	58.851330
1817.000000	58.779240
1816.000000	58.708449
1815.000000	58.643652
1814.000000	58.570785
1813.000000	58.481000
1812.000000	58.389023
1811.000000	58.325700
1810.000000	58.298325
1809.000000	58.271379
1808.000000	58.218989
1807.000000	58.150491
1806.000000	58.075804
1805.000000	57.987502
1804.000000	57.885014
1803.000000	57.788493
1802.000000	57.713900
1801.000000	57.670052
1800.000000	57.652689
1799.000000	57.639836
1798.000000	57.599948
1797.000000	57.523858
1796.000000	57.451266
1795.000000	57.425465
1794.000000	57.427656
1793.000000	57.402051
1792.000000	57.339753
1791.000000	57.273558
1790.000000	57.196093
1789.000000	57.087527
1788.000000	56.974857
1787.000000	56.883397
1786.000000	56.817443
1785.000000	56.738370
1784.000000	56.607887
1783.000000	56.525343
1782.000000	56.443813
1781.000000	56.372831
1780.000000	56.306761
1779.000000	56.257972
1778.000000	56.204991
1777.000000	56.120412
1776.000000	56.090081
1775.000000	56.121404
1774.000000	56.182920
1773.000000	56.178041
1772.000000	56.095482
1771.000000	55.978997
1770.000000	55.827791
1769.000000	55.646041
1768.000000	55.481214
1767.000000	55.364530
1766.000000	55.267073
1765.000000	55.153317
1764.000000	55.034060
1763.000000	54.937048
1762.000000	54.871019
1761.000000	54.819666
1760.000000	54.739783
1759.000000	54.622596
1758.000000	54.495594
1757.000000	54.387507
1756.000000	54.324923
1755.000000	54.294867
1754.000000	54.266531
1753.000000	54.227843
1752.000000	54.171172
1751.000000	54.082075
1750.000000	53.940556
1749.000000	53.735229
1748.000000	53.519531
1747.000000	53.357248
1746.000000	53.221182
1745.000000	53.074142
1744.000000	52.919233
1743.000000	52.845705
1742.000000	52.852090
1741.000000	52.727601
1740.000000	52.596565
1739.000000	52.446924
1738.000000	52.295103
1737.000000	52.122669
1736.000000	51.940353
1735.000000	51.777761
1734.000000	51.638001
1733.000000	51.473001
1732.000000	51.264402
1731.000000	51.040989
1730.000000	50.815273
1729.000000	50.574237
1728.000000	50.319582
1727.000000	50.070156
1726.000000	49.832052
1725.000000	49.584326
1724.000000	49.336260
1723.000000	49.095354
1722.000000	48.879194
1721.000000	48.774908
1720.000000	48.690351
1719.000000	48.599907
1718.000000	48.452253
1717.000000	48.218563
1716.000000	47.857713
1715.000000	47.395766
1714.000000	46.929317
1713.000000	46.508467
1712.000000	46.125464
1711.000000	45.775263
1710.000000	45.457386
1709.000000	45.156971
1708.000000	44.846594
1707.000000	44.501412
1706.000000	44.129525
1705.000000	43.794600
1704.000000	43.573729
1703.000000	43.494125
1702.000000	43.477886
1701.000000	43.333342
1700.000000	43.020821
1699.000000	42.663564
1698.000000	42.260541
1697.000000	41.795282
1696.000000	41.305084
1695.000000	40.826903
1694.000000	40.315205
1693.000000	39.732126
1692.000000	39.161725
1691.000000	38.662750
1690.000000	38.217582
1689.000000	37.823872
1688.000000	37.540623
1687.000000	37.395962
1686.000000	37.277890
1685.000000	36.956371
1684.000000	36.421870
1683.000000	35.884404
1682.000000	35.336809
1681.000000	34.742300
1680.000000	34.197703
1679.000000	33.773687
1678.000000	33.454310
1677.000000	33.144263
1676.000000	32.763791
1675.000000	32.336031
1674.000000	31.919638
1673.000000	31.506288
1672.000000	31.083769
1671.000000	30.662680
1670.000000	30.229940
1669.000000	29.776406
1668.000000	29.322730
1667.000000	28.895744
1666.000000	28.509506
1665.000000	28.143899
1664.000000	27.761314
1663.000000	27.364348
1662.000000	26.977765
1661.000000	26.588991
1660.000000	26.183783
1659.000000	25.790399
1658.000000	25.448361
1657.000000	25.191878
1656.000000	25.049583
1655.000000	24.987042
1654.000000	24.833577
1653.000000	24.505386
1652.000000	24.102341
1651.000000	23.614258
1650.000000	23.089868
1649.000000	22.640368
1648.000000	22.258341
1647.000000	21.932087
1646.000000	21.666728
1645.000000	21.400228
1644.000000	21.075492
1643.000000	20.738003
1642.000000	20.432924
1641.000000	20.155125
1640.000000	19.901399
1639.000000	19.695953
1638.000000	19.543512
1637.000000	19.386965
1636.000000	19.183600
1635.000000	18.971876
1634.000000	18.758562
1633.000000	18.504510
1632.000000	18.238571
1631.000000	18.013004
1630.000000	17.827586
1629.000000	17.650045
1628.000000	17.478106
1627.000000	17.344552
1626.000000	17.253406
1625.000000	17.166963
1624.000000	17.057674
1623.000000	16.944151
1622.000000	16.846746
1621.000000	16.755408
1620.000000	16.678983
1619.000000	16.649560
1618.000000	16.663079
1617.000000	16.670483
1616.000000	16.642248
1615.000000	16.583404
1614.000000	16.508071
1613.000000	16.437458
1612.000000	16.388392
1611.000000	16.367747
1610.000000	16.368773
1609.000000	16.376778
1608.000000	16.392013
1607.000000	16.430116
1606.000000	16.491344
1605.000000	16.556173
1604.000000	16.613918
1603.000000	16.672930
1602.000000	16.738129
1601.000000	16.798353
1600.000000	16.849680
1599.000000	16.905521
1598.000000	16.974526
1597.000000	17.049219
1596.000000	17.124965
1595.000000	17.210314
1594.000000	17.305316
1593.000000	17.392306
1592.000000	17.461189
1591.000000	17.523177
1590.000000	17.589742
1589.000000	17.658508
1588.000000	17.728017
1587.000000	17.806944
1586.000000	17.896975
1585.000000	17.983464
1584.000000	18.056574
1583.000000	18.121359
1582.000000	18.182462
1581.000000	18.237728
1580.000000	18.299190
1579.000000	18.398049
1578.000000	18.549358
1577.000000	18.720344
1576.000000	18.860092
1575.000000	18.933122
1574.000000	18.927448
1573.000000	18.888209
1572.000000	18.877769
1571.000000	18.912051
1570.000000	18.976047
1569.000000	19.053369
1568.000000	19.124830
1567.000000	19.179303
1566.000000	19.231768
1565.000000	19.296315
1564.000000	19.382207
1563.000000	19.513873
1562.000000	19.713043
1561.000000	19.957785
1560.000000	20.155544
1559.000000	20.302745
1558.000000	20.478507
1557.000000	20.562573
1556.000000	20.516733
1555.000000	20.488443
1554.000000	20.526128
1553.000000	20.586461
1552.000000	20.623038
1551.000000	20.662600
1550.000000	20.758572
1549.000000	20.920749
1548.000000	21.116375
1547.000000	21.322535
1546.000000	21.542970
1545.000000	21.783229
1544.000000	22.048206
1543.000000	22.347119
1542.000000	22.683709
1541.000000	23.040818
1540.000000	23.414926
1539.000000	23.772743
1538.000000	23.994420
1537.000000	24.070264
1536.000000	24.147093
1535.000000	24.332909
1534.000000	24.632343
1533.000000	24.988170
1532.000000	25.320752
1531.000000	25.597939
1530.000000	25.863119
1529.000000	26.164690
1528.000000	26.525669
1527.000000	26.952287
1526.000000	27.419682
1525.000000	27.875940
1524.000000	28.300593
1523.000000	28.734325
1522.000000	29.219883
1521.000000	29.727121
1520.000000	30.144999
1519.000000	30.425497
1518.000000	30.671120
1517.000000	30.994485
1516.000000	31.403294
1515.000000	31.822546
1514.000000	32.194258
1513.000000	32.527468
1512.000000	32.843571
1511.000000	33.167266
1510.000000	33.534003
1509.000000	33.984653
1508.000000	34.548881
1507.000000	35.279842
1506.000000	36.097430
1505.000000	36.626855
1504.000000	36.735084
1503.000000	36.721009
1502.000000	36.841101
1501.000000	37.146895
1500.000000	37.589395
1499.000000	38.129358
1498.000000	38.744376
1497.000000	39.371510
1496.000000	39.908589
1495.000000	40.286422
1494.000000	40.520739
1493.000000	40.697120
1492.000000	40.903802
1491.000000	41.191409
1490.000000	41.572346
1489.000000	42.001391
1488.000000	42.403543
1487.000000	42.752399
1486.000000	43.035335
1485.000000	43.217748
1484.000000	43.308378
1483.000000	43.356137
1482.000000	43.397838
1481.000000	43.432337
1480.000000	43.451404
1479.000000	43.449813
1478.000000	43.389657
1477.000000	43.219912
1476.000000	42.944933
1475.000000	42.587782
1474.000000	42.045354
1473.000000	41.164524
1472.000000	40.001884
1471.000000	38.741397
1470.000000	37.425501
1469.000000	36.015046
1468.000000	34.497503
1467.000000	32.820034
1466.000000	30.824598
1465.000000	28.426863
1464.000000	25.857914
1463.000000	23.448462
1462.000000	21.288237
1461.000000	19.308965
1460.000000	17.468808
1459.000000	15.711824
1458.000000	13.884991
1457.000000	11.999669
1456.000000	10.434077
1455.000000	9.408646
1454.000000	8.754835
1453.000000	8.302106
1452.000000	8.029360
1451.000000	7.958729
1450.000000	8.065544
1449.000000	8.321942
1448.000000	8.743972
1447.000000	9.317735
1446.000000	9.965769
1445.000000	10.639816
1444.000000	11.361595
1443.000000	12.150010
1442.000000	12.972495
1441.000000	13.786838
1440.000000	14.594339
1439.000000	15.437926
1438.000000	16.371872
1437.000000	17.410876
1436.000000	18.454893
1435.000000	19.341075
1434.000000	20.041375
1433.000000	20.669836
1432.000000	21.315747
1431.000000	21.972574
1430.000000	22.586296
1429.000000	23.115366
1428.000000	23.534593
1427.000000	23.833899
1426.000000	24.029087
1425.000000	24.159790
1424.000000	24.269289
1423.000000	24.390122
1422.000000	24.544067
1421.000000	24.738932
1420.000000	24.958037
1419.000000	25.174214
1418.000000	25.372292
1417.000000	25.546760
1416.000000	25.719700
1415.000000	25.926198
1414.000000	26.176762
1413.000000	26.468942
1412.000000	26.800897
1411.000000	27.166114
1410.000000	27.551092
1409.000000	27.936749
1408.000000	28.298520
1407.000000	28.617086
1406.000000	28.891452
1405.000000	29.139355
1404.000000	29.368151
1403.000000	29.564360
1402.000000	29.727823
1401.000000	29.876887
1400.000000	30.016575
1399.000000	30.130039
1398.000000	30.198558
1397.000000	30.206745
1396.000000	30.136956
1395.000000	29.975782
1394.000000	29.723857
1393.000000	29.380617
1392.000000	28.931057
1391.000000	28.358172
1390.000000	27.612631
1389.000000	26.561627
1388.000000	25.057864
1387.000000	23.187134
1386.000000	21.398065
1385.000000	20.247482
1384.000000	20.084036
1383.000000	20.931267
1382.000000	22.477952
1381.000000	24.223903
1380.000000	25.756044
1379.000000	26.899901
1378.000000	27.676281
1377.000000	28.192712
1376.000000	28.565595
1375.000000	28.887021
1374.000000	29.209401
1373.000000	29.535912
1372.000000	29.839177
1371.000000	30.103106
1370.000000	30.331904
1369.000000	30.531841
1368.000000	30.695875
1367.000000	30.805665
1366.000000	30.849205
1365.000000	30.830227
1364.000000	30.766470
1363.000000	30.686584
1362.000000	30.616225
1361.000000	30.553014
1360.000000	30.475067
1359.000000	30.373557
1358.000000	30.261266
1357.000000	30.162066
1356.000000	30.102706
1355.000000	30.108332
1354.000000	30.196061
1353.000000	30.363591
1352.000000	30.586319
1351.000000	30.825985
1350.000000	31.035283
1349.000000	31.164986
1348.000000	31.170493
1347.000000	31.020291
1346.000000	30.702536
1345.000000	30.224232
1344.000000	29.605812
1343.000000	28.864362
1342.000000	28.002249
1341.000000	27.011880
1340.000000	25.897720
1339.000000	24.687637
1338.000000	23.404449
1337.000000	22.044259
1336.000000	20.597163
1335.000000	19.073188
1334.000000	17.499945
1333.000000	15.907876
1332.000000	14.334283
1331.000000	12.829114
1330.000000	11.436834
1329.000000	10.178118
1328.000000	9.060630
1327.000000	8.088960
1326.000000	7.252593
1325.000000	6.525756
1324.000000	5.888008
1323.000000	5.334822
1322.000000	4.859301
1321.000000	4.443814
1320.000000	4.083565
1319.000000	3.794819
1318.000000	3.593510
1317.000000	3.481238
1316.000000	3.457373
1315.000000	3.527017
1314.000000	3.683975
1313.000000	3.907699
1312.000000	4.182821
1311.000000	4.504203
1310.000000	4.864173
1309.000000	5.249618
1308.000000	5.656566
1307.000000	6.090978
1306.000000	6.551417
1305.000000	7.028656
1304.000000	7.520996
1303.000000	8.034975
1302.000000	8.570923
1301.000000	9.120677
1300.000000	9.680054
1299.000000	10.248741
1298.000000	10.818771
1297.000000	11.377352
1296.000000	11.922272
1295.000000	12.465551
1294.000000	13.022747
1293.000000	13.608624
1292.000000	14.239923
1291.000000	14.928775
1290.000000	15.674029
1289.000000	16.465487
1288.000000	17.294732
1287.000000	18.156845
1286.000000	19.045099
1285.000000	19.953608
1284.000000	20.880543
1283.000000	21.821499
1282.000000	22.762361
1281.000000	23.681549
1280.000000	24.556759
1279.000000	25.370629
1278.000000	26.119049
1277.000000	26.817571
1276.000000	27.497147
1275.000000	28.191079
1274.000000	28.925383
1273.000000	29.714795
1272.000000	30.557112
1271.000000	31.431338
1270.000000	32.307511
1269.000000	33.161107
1268.000000	33.978920
1267.000000	34.759073
1266.000000	35.513741
1265.000000	36.264744
1264.000000	37.027276
1263.000000	37.800369
1262.000000	38.572187
1261.000000	39.326625
1260.000000	40.040493
1259.000000	40.687555
1258.000000	41.259541
1257.000000	41.773832
1256.000000	42.257477
1255.000000	42.732859
1254.000000	43.216150
1253.000000	43.713935
1252.000000	44.210190
1251.000000	44.668754
1250.000000	45.056654
1249.000000	45.359045
1248.000000	45.576513
1247.000000	45.721388
1246.000000	45.822472
1245.000000	45.916431
1244.000000	46.021263
1243.000000	46.126899
1242.000000	46.208031
1241.000000	46.236176
1240.000000	46.183075
1239.000000	46.030337
1238.000000	45.788893
1237.000000	45.497475
1236.000000	45.199259
1235.000000	44.927440
1234.000000	44.704544
1233.000000	44.538507
1232.000000	44.414320
1231.000000	44.301657
1230.000000	44.177853
1229.000000	44.041569
1228.000000	43.906610
1227.000000	43.796933
1226.000000	43.747928
1225.000000	43.793380
1224.000000	43.944855
1223.000000	44.184872
1222.000000	44.480801
1221.000000	44.799283
1220.000000	45.108328
1219.000000	45.386754
1218.000000	45.639278
1217.000000	45.894698
1216.000000	46.185122
1215.000000	46.529327
1214.000000	46.932937
1213.000000	47.386974
1212.000000	47.860153
1211.000000	48.307149
1210.000000	48.695579
1209.000000	49.021423
1208.000000	49.300356
1207.000000	49.558852
1206.000000	49.832941
1205.000000	50.155499
1204.000000	50.533117
1203.000000	50.941530
1202.000000	51.345184
1201.000000	51.712754
1200.000000	52.019841
1199.000000	52.257792
1198.000000	52.448457
1197.000000	52.636753
1196.000000	52.860773
1195.000000	53.135985
1194.000000	53.461223
1193.000000	53.820186
1192.000000	54.175304
1191.000000	54.480188
1190.000000	54.711099
1189.000000	54.879036
1188.000000	55.012821
1187.000000	55.146093
1186.000000	55.316421
1185.000000	55.552468
1184.000000	55.850012
1183.000000	56.169603
1182.000000	56.462609
1181.000000	56.693046
1180.000000	56.843113
1179.000000	56.921343
1178.000000	56.969504
1177.000000	57.042791
1176.000000	57.174967
1175.000000	57.368496
1174.000000	57.608522
1173.000000	57.867585
1172.000000	58.101672
1171.000000	58.266760
1170.000000	58.350783
1169.000000	58.379242
1168.000000	58.390031
1167.000000	58.417582
1166.000000	58.493757
1165.000000	58.636546
1164.000000	58.828862
1163.000000	59.023430
1162.000000	59.176113
1161.000000	59.265525
1160.000000	59.287430
1159.000000	59.255353
1158.000000	59.209247
1157.000000	59.200489
1156.000000	59.257572
1155.000000	59.374236
1154.000000	59.525979
1153.000000	59.679893
1152.000000	59.793258
1151.000000	59.830503
1150.000000	59.793433
1149.000000	59.721608
1148.000000	59.660431
1147.000000	59.641762
1146.000000	59.686635
1145.000000	59.798350
1144.000000	59.946417
1143.000000	60.076780
1142.000000	60.148224
1141.000000	60.151359
1140.000000	60.098096
1139.000000	60.015167
1138.000000	59.947310
1137.000000	59.940561
1136.000000	60.010022
1135.000000	60.132133
1134.000000	60.267179
1133.000000	60.375759
1132.000000	60.420354
1131.000000	60.379621
1130.000000	60.270910
1129.000000	60.143361
1128.000000	60.043191
1127.000000	59.994786
1126.000000	60.005493
1125.000000	60.061410
1124.000000	60.117232
1123.000000	60.112429
1122.000000	60.009543
1121.000000	59.810679
1120.000000	59.540199
1119.000000	59.233243
1118.000000	58.935532
1117.000000	58.684934
1116.000000	58.482887
1115.000000	58.290192
1114.000000	58.054691
1113.000000	57.732377
1112.000000	57.289482
1111.000000	56.715661
1110.000000	56.037801
1109.000000	55.307391
1108.000000	54.565948
1107.000000	53.825328
1106.000000	53.076127
1105.000000	52.287371
1104.000000	51.405446
1103.000000	50.376180
1102.000000	49.172308
1101.000000	47.804062
1100.000000	46.299417
1099.000000	44.690505
1098.000000	43.010359
1097.000000	41.273457
1096.000000	39.467441
1095.000000	37.560808
1094.000000	35.523877
1093.000000	33.346293
1092.000000	31.040183
1091.000000	28.643912
1090.000000	26.214864
1089.000000	23.814122
1088.000000	21.495445
1087.000000	19.302723
1086.000000	17.263018
1085.000000	15.387744
1084.000000	13.686959
1083.000000	12.167854
1082.000000	10.831606
1081.000000	9.669741
1080.000000	8.673695
1079.000000	7.838912
1078.000000	7.144857
1077.000000	6.562191
1076.000000	6.068751
1075.000000	5.650119
1074.000000	5.290417
1073.000000	4.969648
1072.000000	4.681222
1071.000000	4.429939
1070.000000	4.213904
1069.000000	4.026130
1068.000000	3.866981
1067.000000	3.743165
1066.000000	3.651693
1065.000000	3.580609
1064.000000	3.527561
1063.000000	3.498814
1062.000000	3.494040
1061.000000	3.506958
1060.000000	3.539782
1059.000000	3.602533
1058.000000	3.695755
1057.000000	3.811094
1056.000000	3.947167
1055.000000	4.108719
1054.000000	4.293483
1053.000000	4.493080
1052.000000	4.708778
1051.000000	4.951354
1050.000000	5.224394
1049.000000	5.525698
1048.000000	5.859760
1047.000000	6.234491
1046.000000	6.647558
1045.000000	7.088040
1044.000000	7.552754
1043.000000	8.045316
1042.000000	8.564586
1041.000000	9.108526
1040.000000	9.683805
1039.000000	10.302642
1038.000000	10.968820
1037.000000	11.676981
1036.000000	12.422530
1035.000000	13.198119
1034.000000	13.988228
1033.000000	14.777641
1032.000000	15.564904
1031.000000	16.361109
1030.000000	17.177130
1029.000000	18.020634
1028.000000	18.897646
1027.000000	19.806185
1026.000000	20.730343
1025.000000	21.647053
1024.000000	22.538700
1023.000000	23.397832
1022.000000	24.226770
1021.000000	25.038181
1020.000000	25.852262
1019.000000	26.686187
1018.000000	27.544388
1017.000000	28.417542
1016.000000	29.285434
1015.000000	30.122710
1014.000000	30.909569
1013.000000	31.642326
1012.000000	32.334805
1011.000000	33.010390
1010.000000	33.694374
1009.000000	34.405530
1008.000000	35.145536
1007.000000	35.896029
1006.000000	36.627581
1005.000000	37.313868
1004.000000	37.940113
1003.000000	38.507390
1002.000000	39.036608
1001.000000	39.562125
1000.000000	40.114625
999.000000	40.706816
998.000000	41.331064
997.000000	41.963983
996.000000	42.570581
995.000000	43.116777
994.000000	43.589562
993.000000	44.004221
992.000000	44.393360
991.000000	44.792778
990.000000	45.233466
989.000000	45.730769
988.000000	46.270763
987.000000	46.813357
986.000000	47.313493
985.000000	47.741108
984.000000	48.088283
983.000000	48.371711
982.000000	48.633728
981.000000	48.926442
980.000000	49.283490
979.000000	49.706167
978.000000	50.169950
977.000000	50.634469
976.000000	51.050229
975.000000	51.377004
974.000000	51.610440
973.000000	51.785691
972.000000	51.954911
971.000000	52.165445
970.000000	52.449957
969.000000	52.815406
968.000000	53.230777
967.000000	53.636768
966.000000	53.977880
965.000000	54.225892
964.000000	54.381901
963.000000	54.474835
962.000000	54.560545
961.000000	54.700871
960.000000	54.928509
959.000000	55.233603
958.000000	55.577413
957.000000	55.908480
956.000000	56.172849
955.000000	56.334073
954.000000	56.398701
953.000000	56.414482
952.000000	56.440082
951.000000	56.520741
950.000000	56.681829
949.000000	56.921386
948.000000	57.199536
947.000000	57.451856
946.000000	57.627283
945.000000	57.710632
944.000000	57.716711
943.000000	57.682011
942.000000	57.661101
941.000000	57.706453
940.000000	57.836513
939.000000	58.027149
938.000000	58.231782
937.000000	58.401768
936.000000	58.495790
935.000000	58.494997
934.000000	58.421788
933.000000	58.331286
932.000000	58.276094
931.000000	58.283964
930.000000	58.358689
929.000000	58.480322
928.000000	58.601086
927.000000	58.662183
926.000000	58.630158
925.000000	58.512556
924.000000	58.343248
923.000000	58.166193
922.000000	58.027537
921.000000	57.958833
920.000000	57.953548
919.000000	57.967529
918.000000	57.947184
917.000000	57.852044
916.000000	57.660858
915.000000	57.379495
914.000000	57.049533
913.000000	56.730970
912.000000	56.464625
911.000000	56.255724
910.000000	56.083069
909.000000	55.908166
908.000000	55.679759
907.000000	55.351814
906.000000	54.913362
905.000000	54.394179
904.000000	53.840905
903.000000	53.296651
902.000000	52.792839
901.000000	52.338642
900.000000	51.907285
899.000000	51.444198
898.000000	50.899170
897.000000	50.246938
896.000000	49.488390
895.000000	48.648431
894.000000	47.772096
893.000000	46.906808
892.000000	46.074818
891.000000	45.264686
890.000000	44.443896
889.000000	43.572538
888.000000	42.614013
887.000000	41.547773
886.000000	40.383116
885.000000	39.156137
884.000000	37.908944
883.000000	36.673277
882.000000	35.462839
881.000000	34.270391
880.000000	33.070645
879.000000	31.832508
878.000000	30.536333
877.000000	29.183630
876.000000	27.796037
875.000000	26.406208
874.000000	25.045776
873.000000	23.735190
872.000000	22.480317
871.000000	21.273648
870.000000	20.097833
869.000000	18.936559
868.000000	17.784941
867.000000	16.651485
866.000000	15.551182
865.000000	14.498462
864.000000	13.507630
863.000000	12.587489
862.000000	11.734699
861.000000	10.938411
860.000000	10.189228
859.000000	9.484017
858.000000	8.822282
857.000000	8.209794
856.000000	7.665541
855.000000	7.210579
854.000000	6.855181
853.000000	6.597601
852.000000	6.430899
851.000000	6.341812
850.000000	6.302976
849.000000	6.284024
848.000000	6.267462
847.000000	6.248287
846.000000	6.225467
845.000000	6.201969
844.000000	6.190282
843.000000	6.203967
842.000000	6.245374
841.000000	6.310803
840.000000	6.401603
839.000000	6.521595
838.000000	6.667692
837.000000	6.833942
836.000000	7.021972
835.000000	7.235334
834.000000	7.467568
833.000000	7.704250
832.000000	7.933761
831.000000	8.152772
830.000000	8.369722
829.000000	8.615475
828.000000	8.941249
827.000000	9.385755
826.000000	9.944350
825.000000	10.576396
824.000000	11.240971
823.000000	11.918470
822.000000	12.603746
821.000000	13.294902
820.000000	13.986978
819.000000	14.670155
818.000000	15.334898
817.000000	15.981548
816.000000	16.621802
815.000000	17.267896
814.000000	17.923816
813.000000	18.586283
812.000000	19.247260
811.000000	19.892655
810.000000	20.506890
809.000000	21.084523
808.000000	21.634836
807.000000	22.175559
806.000000	22.725858
805.000000	23.302878
804.000000	23.915211
803.000000	24.555351
802.000000	25.202602
801.000000	25.834237
800.000000	26.433063
799.000000	26.990891
798.000000	27.514459
797.000000	28.027424
796.000000	28.558684
795.000000	29.126340
794.000000	29.732396
793.000000	30.365017
792.000000	30.999229
791.000000	31.601972
790.000000	32.148622
789.000000	32.636993
788.000000	33.084135
787.000000	33.516035
786.000000	33.961941
785.000000	34.446170
784.000000	34.973482
783.000000	35.522959
782.000000	36.061317
781.000000	36.559917
780.000000	37.000132
779.000000	37.376581
778.000000	37.705385
777.000000	38.022441
776.000000	38.363589
775.000000	38.746718
774.000000	39.171603
773.000000	39.624604
772.000000	40.077844
771.000000	40.496026
770.000000	40.857203
769.000000	41.165815
768.000000	41.443335
767.000000	41.714638
766.000000	42.004524
765.000000	42.332048
764.000000	42.696903
763.000000	43.076309
762.000000	43.441427
761.000000	43.772210
760.000000	44.057099
759.000000	44.294312
758.000000	44.501076
757.000000	44.709146
756.000000	44.941431
755.000000	45.197592
754.000000	45.463563
753.000000	45.722543
752.000000	45.953543
751.000000	46.136393
750.000000	46.270124
749.000000	46.378379
748.000000	46.489549
747.000000	46.619134
746.000000	46.771782
745.000000	46.943348
744.000000	47.113029
743.000000	47.247555
742.000000	47.325266
741.000000	47.350882
740.000000	47.345372
739.000000	47.335008
738.000000	47.352045
737.000000	47.425751
736.000000	47.559052
735.000000	47.722422
734.000000	47.877795
733.000000	47.999734
732.000000	48.074176
731.000000	48.099140
730.000000	48.099703
729.000000	48.126571
728.000000	48.225817
727.000000	48.414668
726.000000	48.685244
725.000000	49.012880
724.000000	49.352509
723.000000	49.647491
722.000000	49.861676
721.000000	50.000238
720.000000	50.097974
719.000000	50.201019
718.000000	50.359927
717.000000	50.614478
716.000000	50.965691
715.000000	51.369724
714.000000	51.767158
713.000000	52.110381
712.000000	52.366264
711.000000	52.521747
710.000000	52.603948
709.000000	52.677158
708.000000	52.804242
707.000000	53.015704
706.000000	53.312279
705.000000	53.672129
704.000000	54.044720
703.000000	54.361973
702.000000	54.579536
701.000000	54.701145
700.000000	54.760601
699.000000	54.800616
698.000000	54.870750
697.000000	55.016269
696.000000	55.246805
695.000000	55.526974
694.000000	55.808862
693.000000	56.058383
692.000000	56.248362
691.000000	56.360219
690.000000	56.410264
689.000000	56.452858
688.000000	56.537325
687.000000	56.673754
686.000000	56.850513
685.000000	57.055607
684.000000	57.263649
683.000000	57.433416
682.000000	57.544030
681.000000	57.615717
680.000000	57.680644
679.000000	57.756055
678.000000	57.854978
677.000000	57.989013
676.000000	58.145292
675.000000	58.285848
674.000000	58.387812
673.000000	58.463898
672.000000	58.535318
671.000000	58.613665
670.000000	58.720779
669.000000	58.888915
668.000000	59.073893
667.000000	59.207919
666.000000	59.301600
665.000000	59.358580
664.000000	59.363324
663.000000	59.322937
662.000000	59.264998
661.000000	59.232201
660.000000	59.261858
659.000000	59.372594
658.000000	59.555369
657.000000	59.768546
656.000000	59.950286
655.000000	60.045962
654.000000	60.033172
653.000000	59.929606
652.000000	59.785158
651.000000	59.666916
650.000000	59.635757
649.000000	59.716230
648.000000	59.882591
647.000000	60.071716
646.000000	60.212005
645.000000	60.249916
644.000000	60.162310
643.000000	59.964498
642.000000	59.715178
641.000000	59.496225
640.000000	59.372019
639.000000	59.363226
638.000000	59.444826
637.000000	59.557360
636.000000	59.625652
635.000000	59.585494
634.000000	59.414075
633.000000	59.139853
632.000000	58.824843
631.000000	58.543359
630.000000	58.361841
629.000000	58.310442
628.000000	58.364508
627.000000	58.456999
626.000000	58.513671
625.000000	58.482929
624.000000	58.346748
623.000000	58.126294
622.000000	57.883241
621.000000	57.693894
620.000000	57.604856
619.000000	57.612221
618.000000	57.674718
617.000000	57.735844
616.000000	57.739051
615.000000	57.646713
614.000000	57.463317
613.000000	57.237401
612.000000	57.034043
611.000000	56.905075
610.000000	56.873027
609.000000	56.921804
608.000000	56.997311
607.000000	57.029781
606.000000	56.972003
605.000000	56.820531
604.000000	56.606376
603.000000	56.377994
602.000000	56.189253
601.000000	56.079004
600.000000	56.045729
599.000000	56.040643
598.000000	55.993717
597.000000	55.850119
596.000000	55.592972
595.000000	55.256382
594.000000	54.925062
593.000000	54.701871
592.000000	54.658572
591.000000	54.804524
590.000000	55.087762
589.000000	55.421710
588.000000	55.714540
587.000000	55.897178
586.000000	55.951260
585.000000	55.914019
584.000000	55.850577
583.000000	55.824353
582.000000	55.885504
581.000000	56.054861
580.000000	56.300548
579.000000	56.541798
578.000000	56.697851
577.000000	56.732069
576.000000	56.655189
575.000000	56.514399
574.000000	56.381325
573.000000	56.324519
572.000000	56.374399
571.000000	56.510115
570.000000	56.675799
569.000000	56.806165
568.000000	56.844145
567.000000	56.762861
566.000000	56.591848
565.000000	56.408130
564.000000	56.290689
563.000000	56.285372
562.000000	56.396739
561.000000	56.585401
560.000000	56.772175
559.000000	56.869963
558.000000	56.835135
557.000000	56.688481
556.000000	56.491186
555.000000	56.318210
554.000000	56.243121
553.000000	56.308341
552.000000	56.492383
551.000000	56.713443
550.000000	56.875458
549.000000	56.914121
548.000000	56.810850
547.000000	56.597941
546.000000	56.364326
545.000000	56.221709
544.000000	56.240475
543.000000	56.418485
542.000000	56.695242
541.000000	56.974931
540.000000	57.148262
539.000000	57.135865
538.000000	56.944524
537.000000	56.672710
536.000000	56.451953
535.000000	56.386363
534.000000	56.528207
533.000000	56.865342
532.000000	57.314124
531.000000	57.742351
530.000000	58.032205
529.000000	58.135638
528.000000	58.076238
527.000000	57.929550
526.000000	57.815048
525.000000	57.850471
524.000000	58.073195
523.000000	58.423647
522.000000	58.796896
521.000000	59.085704
520.000000	59.200629
519.000000	59.102680
518.000000	58.842841
517.000000	58.545264
516.000000	58.324862
515.000000	58.230913
514.000000	58.252588
513.000000	58.333124
512.000000	58.374990
511.000000	58.270885
510.000000	57.966470
509.000000	57.485374
508.000000	56.898118
507.000000	56.296824
506.000000	55.779402
505.000000	55.402579
504.000000	55.139918
503.000000	54.900749
502.000000	54.596681
501.000000	54.189760
500.000000	53.696353
499.000000	53.181734
498.000000	52.761493
497.000000	52.557279
496.000000	52.620899
495.000000	52.905031
494.000000	53.300887
493.000000	53.694193
492.000000	53.995833
491.000000	54.169497
490.000000	54.262509
489.000000	54.385995
488.000000	54.650367
487.000000	55.116035
486.000000	55.779289
485.000000	56.560670
484.000000	57.303688
483.000000	57.834685
482.000000	58.071976
481.000000	58.072754
480.000000	57.968964
479.000000	57.892744
478.000000	57.954756
477.000000	58.216730
476.000000	58.642285
475.000000	59.098010
474.000000	59.434778
473.000000	59.568994
472.000000	59.508343
471.000000	59.330848
470.000000	59.170423
469.000000	59.181904
468.000000	59.461987
467.000000	59.985470
466.000000	60.615495
465.000000	61.184998
464.000000	61.552228
463.000000	61.627677
462.000000	61.446452
461.000000	61.184200
460.000000	61.031882
459.000000	61.096920
458.000000	61.421901
457.000000	61.966847
456.000000	62.551143
455.000000	62.965928
454.000000	63.119757
453.000000	63.027435
452.000000	62.763457
451.000000	62.445967
450.000000	62.226823
449.000000	62.246970
448.000000	62.558266
447.000000	63.078010
446.000000	63.641654
445.000000	64.099343
444.000000	64.339291
443.000000	64.309002
442.000000	64.095907
441.000000	63.900899
440.000000	63.872293
439.000000	64.033506
438.000000	64.351691
437.000000	64.780042
436.000000	65.206179
435.000000	65.461627
434.000000	65.481677
433.000000	65.372176
432.000000	65.271315
431.000000	65.248015
430.000000	65.344850
429.000000	65.591564
428.000000	65.917360
427.000000	66.145958
426.000000	66.164754
425.000000	66.024043
424.000000	65.828572
423.000000	65.653817
422.000000	65.596410
421.000000	65.740197
420.000000	65.996041
419.000000	66.120898
418.000000	65.971382
417.000000	65.610698
416.000000	65.178363
415.000000	64.758967
414.000000	64.432385
413.000000	64.354429
412.000000	64.622764
411.000000	65.142900
410.000000	65.735456
409.000000	66.276447
408.000000	66.639516
407.000000	66.655547
406.000000	66.345532
405.000000	66.005942
404.000000	65.930940
403.000000	66.127400
402.000000	66.542542
401.000000	67.185663
400.000000	67.960532
