PE IR       SUBTECH     SPECTRUM    ASCII       PEDS        4.00        
   -1
23ms030_nitrito.asc
24/09/03
16:08:06.00
24/09/03
16:08:06.00
Administrator
Sample 1093 By Administrator Date Tuesday, September 03 2024
400.000000
#HDR
-1
-1
#GR
cm-1
%T
1.0
0.0
4000.000000
-1.000000
3601
8
77.761895
2.619562
#DATA
4000.000000	54.805806
3999.000000	54.861602
3998.000000	54.917963
3997.000000	54.974943
3996.000000	55.032350
3995.000000	55.089512
3994.000000	55.145747
3993.000000	55.201278
3992.000000	55.257344
3991.000000	55.314940
3990.000000	55.373420
3989.000000	55.431115
3988.000000	55.487330
3987.000000	55.543037
3986.000000	55.599489
3985.000000	55.656639
3984.000000	55.713323
3983.000000	55.768573
3982.000000	55.822443
3981.000000	55.875809
3980.000000	55.929645
3979.000000	55.984548
3978.000000	56.040474
3977.000000	56.096489
3976.000000	56.151123
3975.000000	56.203333
3974.000000	56.253444
3973.000000	56.302911
3972.000000	56.353104
3971.000000	56.404402
3970.000000	56.455932
3969.000000	56.506294
3968.000000	56.554835
3967.000000	56.602131
3966.000000	56.649375
3965.000000	56.697597
3964.000000	56.747269
3963.000000	56.797870
3962.000000	56.847976
3961.000000	56.895873
3960.000000	56.941072
3959.000000	56.985452
3958.000000	57.031477
3957.000000	57.079692
3956.000000	57.128696
3955.000000	57.177135
3954.000000	57.224984
3953.000000	57.272869
3952.000000	57.321317
3951.000000	57.370720
3950.000000	57.420889
3949.000000	57.470719
3948.000000	57.519052
3947.000000	57.566035
3946.000000	57.613834
3945.000000	57.666048
3944.000000	57.724765
3943.000000	57.786548
3942.000000	57.844581
3941.000000	57.895793
3940.000000	57.943934
3939.000000	57.995501
3938.000000	58.052213
3937.000000	58.109412
3936.000000	58.162467
3935.000000	58.212414
3934.000000	58.264621
3933.000000	58.321256
3932.000000	58.378553
3931.000000	58.431570
3930.000000	58.479111
3929.000000	58.524864
3928.000000	58.573474
3927.000000	58.627938
3926.000000	58.688396
3925.000000	58.749928
3924.000000	58.804835
3923.000000	58.849760
3922.000000	58.888974
3921.000000	58.930125
3920.000000	58.977396
3919.000000	59.029808
3918.000000	59.084804
3917.000000	59.140448
3916.000000	59.194747
3915.000000	59.245807
3914.000000	59.295606
3913.000000	59.349083
3912.000000	59.407927
3911.000000	59.468594
3910.000000	59.525449
3909.000000	59.576217
3908.000000	59.623415
3907.000000	59.669827
3906.000000	59.715612
3905.000000	59.757637
3904.000000	59.792185
3903.000000	59.820571
3902.000000	59.850094
3901.000000	59.889810
3900.000000	59.943394
3899.000000	60.004018
3898.000000	60.061666
3897.000000	60.113595
3896.000000	60.164521
3895.000000	60.220733
3894.000000	60.284129
3893.000000	60.351466
3892.000000	60.415714
3891.000000	60.469498
3890.000000	60.508449
3889.000000	60.535280
3888.000000	60.564510
3887.000000	60.615316
3886.000000	60.688605
3885.000000	60.759741
3884.000000	60.806199
3883.000000	60.833652
3882.000000	60.866051
3881.000000	60.916598
3880.000000	60.975281
3879.000000	61.025714
3878.000000	61.065065
3877.000000	61.104349
3876.000000	61.156452
3875.000000	61.222175
3874.000000	61.285360
3873.000000	61.328707
3872.000000	61.356031
3871.000000	61.390037
3870.000000	61.442529
3869.000000	61.498156
3868.000000	61.537303
3867.000000	61.564566
3866.000000	61.603613
3865.000000	61.664080
3864.000000	61.729557
3863.000000	61.783874
3862.000000	61.830311
3861.000000	61.880036
3860.000000	61.936845
3859.000000	61.998906
3858.000000	62.064330
3857.000000	62.128831
3856.000000	62.184735
3855.000000	62.227882
3854.000000	62.262552
3853.000000	62.296192
3852.000000	62.333080
3851.000000	62.374028
3850.000000	62.420868
3849.000000	62.476064
3848.000000	62.535994
3847.000000	62.596551
3846.000000	62.658139
3845.000000	62.721116
3844.000000	62.782383
3843.000000	62.837625
3842.000000	62.884749
3841.000000	62.927658
3840.000000	62.971901
3839.000000	63.019316
3838.000000	63.069300
3837.000000	63.120611
3836.000000	63.171972
3835.000000	63.222664
3834.000000	63.274515
3833.000000	63.331780
3832.000000	63.395248
3831.000000	63.459592
3830.000000	63.519777
3829.000000	63.576499
3828.000000	63.635413
3827.000000	63.700457
3826.000000	63.764495
3825.000000	63.814601
3824.000000	63.848682
3823.000000	63.884257
3822.000000	63.940930
3821.000000	64.010711
3820.000000	64.066810
3819.000000	64.101306
3818.000000	64.133959
3817.000000	64.189955
3816.000000	64.271551
3815.000000	64.355898
3814.000000	64.425519
3813.000000	64.483552
3812.000000	64.539695
3811.000000	64.596100
3810.000000	64.649063
3809.000000	64.698912
3808.000000	64.753872
3807.000000	64.816793
3806.000000	64.874747
3805.000000	64.914563
3804.000000	64.940913
3803.000000	64.977273
3802.000000	65.037413
3801.000000	65.105657
3800.000000	65.161753
3799.000000	65.208502
3798.000000	65.263252
3797.000000	65.333853
3796.000000	65.410527
3795.000000	65.480358
3794.000000	65.542966
3793.000000	65.606791
3792.000000	65.676623
3791.000000	65.749900
3790.000000	65.821108
3789.000000	65.886729
3788.000000	65.946927
3787.000000	66.003666
3786.000000	66.058550
3785.000000	66.111292
3784.000000	66.160196
3783.000000	66.205724
3782.000000	66.253632
3781.000000	66.311521
3780.000000	66.379700
3779.000000	66.448352
3778.000000	66.507153
3777.000000	66.555662
3776.000000	66.601987
3775.000000	66.653597
3774.000000	66.709715
3773.000000	66.764173
3772.000000	66.816515
3771.000000	66.873328
3770.000000	66.934244
3769.000000	66.988686
3768.000000	67.032197
3767.000000	67.075350
3766.000000	67.131604
3765.000000	67.199309
3764.000000	67.264658
3763.000000	67.320307
3762.000000	67.373070
3761.000000	67.432990
3760.000000	67.497346
3759.000000	67.556010
3758.000000	67.607568
3757.000000	67.657561
3756.000000	67.707200
3755.000000	67.753114
3754.000000	67.795644
3753.000000	67.838773
3752.000000	67.881316
3751.000000	67.920011
3750.000000	67.961899
3749.000000	68.015038
3748.000000	68.071822
3747.000000	68.123904
3746.000000	68.181812
3745.000000	68.261797
3744.000000	68.356936
3743.000000	68.444421
3742.000000	68.515377
3741.000000	68.578663
3740.000000	68.641378
3739.000000	68.700597
3738.000000	68.757023
3737.000000	68.822120
3736.000000	68.902166
3735.000000	68.980582
3734.000000	69.041348
3733.000000	69.094668
3732.000000	69.158391
3731.000000	69.233647
3730.000000	69.309012
3729.000000	69.379421
3728.000000	69.452215
3727.000000	69.532338
3726.000000	69.610735
3725.000000	69.675175
3724.000000	69.728422
3723.000000	69.782991
3722.000000	69.845010
3721.000000	69.913711
3720.000000	69.986493
3719.000000	70.061963
3718.000000	70.137568
3717.000000	70.206228
3716.000000	70.260219
3715.000000	70.297556
3714.000000	70.326071
3713.000000	70.358000
3712.000000	70.401074
3711.000000	70.457262
3710.000000	70.527511
3709.000000	70.610056
3708.000000	70.697525
3707.000000	70.781444
3706.000000	70.856116
3705.000000	70.921458
3704.000000	70.982892
3703.000000	71.047929
3702.000000	71.118384
3701.000000	71.189369
3700.000000	71.254646
3699.000000	71.312806
3698.000000	71.368926
3697.000000	71.427170
3696.000000	71.483834
3695.000000	71.532178
3694.000000	71.573578
3693.000000	71.617519
3692.000000	71.670814
3691.000000	71.729453
3690.000000	71.783640
3689.000000	71.830081
3688.000000	71.874922
3687.000000	71.922154
3686.000000	71.970823
3685.000000	72.022175
3684.000000	72.076118
3683.000000	72.128451
3682.000000	72.174660
3681.000000	72.214593
3680.000000	72.249298
3679.000000	72.271062
3678.000000	72.271627
3677.000000	72.263528
3676.000000	72.273207
3675.000000	72.307278
3674.000000	72.344319
3673.000000	72.364436
3672.000000	72.371847
3671.000000	72.388512
3670.000000	72.423383
3669.000000	72.466757
3668.000000	72.515297
3667.000000	72.570714
3666.000000	72.625842
3665.000000	72.670522
3664.000000	72.700493
3663.000000	72.720218
3662.000000	72.735889
3661.000000	72.747104
3660.000000	72.748143
3659.000000	72.733245
3658.000000	72.703043
3657.000000	72.666362
3656.000000	72.633439
3655.000000	72.606603
3654.000000	72.577567
3653.000000	72.538215
3652.000000	72.489487
3651.000000	72.434044
3650.000000	72.366882
3649.000000	72.290886
3648.000000	72.232944
3647.000000	72.211280
3646.000000	72.210267
3645.000000	72.205457
3644.000000	72.189262
3643.000000	72.167935
3642.000000	72.144867
3641.000000	72.115911
3640.000000	72.078659
3639.000000	72.036223
3638.000000	71.988921
3637.000000	71.930499
3636.000000	71.858471
3635.000000	71.782157
3634.000000	71.711903
3633.000000	71.644317
3632.000000	71.564599
3631.000000	71.463543
3630.000000	71.349457
3629.000000	71.241310
3628.000000	71.155599
3627.000000	71.099742
3626.000000	71.066021
3625.000000	71.039596
3624.000000	71.009337
3623.000000	70.968004
3622.000000	70.909553
3621.000000	70.830614
3620.000000	70.732741
3619.000000	70.624810
3618.000000	70.521318
3617.000000	70.431882
3616.000000	70.355870
3615.000000	70.288380
3614.000000	70.223286
3613.000000	70.153548
3612.000000	70.075446
3611.000000	69.990954
3610.000000	69.906576
3609.000000	69.830882
3608.000000	69.768621
3607.000000	69.719544
3606.000000	69.679835
3605.000000	69.642645
3604.000000	69.600514
3603.000000	69.548050
3602.000000	69.483394
3601.000000	69.409389
3600.000000	69.330546
3599.000000	69.249214
3598.000000	69.166316
3597.000000	69.082232
3596.000000	68.999106
3595.000000	68.919609
3594.000000	68.844147
3593.000000	68.770794
3592.000000	68.696521
3591.000000	68.617953
3590.000000	68.535459
3589.000000	68.456176
3588.000000	68.388044
3587.000000	68.331598
3586.000000	68.280577
3585.000000	68.227657
3584.000000	68.167750
3583.000000	68.099439
3582.000000	68.023742
3581.000000	67.943117
3580.000000	67.861470
3579.000000	67.781964
3578.000000	67.704813
3577.000000	67.627589
3576.000000	67.548368
3575.000000	67.467564
3574.000000	67.387054
3573.000000	67.308373
3572.000000	67.231393
3571.000000	67.151132
3570.000000	67.058955
3569.000000	66.950887
3568.000000	66.833077
3567.000000	66.717158
3566.000000	66.613072
3565.000000	66.526044
3564.000000	66.455616
3563.000000	66.396308
3562.000000	66.338252
3561.000000	66.270982
3560.000000	66.189653
3559.000000	66.096129
3558.000000	65.994726
3557.000000	65.888944
3556.000000	65.781768
3555.000000	65.675693
3554.000000	65.571604
3553.000000	65.468835
3552.000000	65.366929
3551.000000	65.265416
3550.000000	65.162656
3549.000000	65.058786
3548.000000	64.957631
3547.000000	64.862388
3546.000000	64.770127
3545.000000	64.674936
3544.000000	64.574767
3543.000000	64.471420
3542.000000	64.365741
3541.000000	64.257963
3540.000000	64.151484
3539.000000	64.051544
3538.000000	63.959936
3537.000000	63.873044
3536.000000	63.786269
3535.000000	63.697672
3534.000000	63.607323
3533.000000	63.515900
3532.000000	63.424120
3531.000000	63.332101
3530.000000	63.239034
3529.000000	63.146256
3528.000000	63.059302
3527.000000	62.983546
3526.000000	62.918144
3525.000000	62.856420
3524.000000	62.791116
3523.000000	62.718008
3522.000000	62.636994
3521.000000	62.552438
3520.000000	62.471110
3519.000000	62.396669
3518.000000	62.326805
3517.000000	62.257073
3516.000000	62.185680
3515.000000	62.112091
3514.000000	62.033205
3513.000000	61.945604
3512.000000	61.851039
3511.000000	61.755756
3510.000000	61.664305
3509.000000	61.577122
3508.000000	61.492927
3507.000000	61.410156
3506.000000	61.326321
3505.000000	61.239024
3504.000000	61.147336
3503.000000	61.050951
3502.000000	60.949698
3501.000000	60.845680
3500.000000	60.743581
3499.000000	60.645524
3498.000000	60.547261
3497.000000	60.442385
3496.000000	60.329555
3495.000000	60.212861
3494.000000	60.096186
3493.000000	59.980601
3492.000000	59.866329
3491.000000	59.753086
3490.000000	59.638435
3489.000000	59.519376
3488.000000	59.395383
3487.000000	59.267667
3486.000000	59.136888
3485.000000	59.004389
3484.000000	58.874541
3483.000000	58.751929
3482.000000	58.635729
3481.000000	58.519552
3480.000000	58.396458
3479.000000	58.262751
3478.000000	58.118664
3477.000000	57.968608
3476.000000	57.819525
3475.000000	57.675856
3474.000000	57.537122
3473.000000	57.401683
3472.000000	57.270397
3471.000000	57.143512
3470.000000	57.016068
3469.000000	56.880603
3468.000000	56.733626
3467.000000	56.576639
3466.000000	56.412625
3465.000000	56.244848
3464.000000	56.077586
3463.000000	55.913668
3462.000000	55.751376
3461.000000	55.586814
3460.000000	55.418812
3459.000000	55.249387
3458.000000	55.080612
3457.000000	54.913427
3456.000000	54.748353
3455.000000	54.583964
3454.000000	54.416124
3453.000000	54.241681
3452.000000	54.061975
3451.000000	53.880574
3450.000000	53.698654
3449.000000	53.515131
3448.000000	53.329546
3447.000000	53.141849
3446.000000	52.950956
3445.000000	52.756339
3444.000000	52.559765
3443.000000	52.363313
3442.000000	52.167214
3441.000000	51.971937
3440.000000	51.780024
3439.000000	51.592420
3438.000000	51.404277
3437.000000	51.207451
3436.000000	50.996739
3435.000000	50.771682
3434.000000	50.535049
3433.000000	50.292860
3432.000000	50.052790
3431.000000	49.818498
3430.000000	49.585713
3429.000000	49.346776
3428.000000	49.098202
3427.000000	48.841328
3426.000000	48.578455
3425.000000	48.311712
3424.000000	48.043749
3423.000000	47.775717
3422.000000	47.505016
3421.000000	47.228032
3420.000000	46.944140
3419.000000	46.654639
3418.000000	46.359981
3417.000000	46.060777
3416.000000	45.759563
3415.000000	45.458128
3414.000000	45.154101
3413.000000	44.843250
3412.000000	44.523469
3411.000000	44.194331
3410.000000	43.854702
3409.000000	43.503826
3408.000000	43.143947
3407.000000	42.779145
3406.000000	42.412872
3405.000000	42.048015
3404.000000	41.686427
3403.000000	41.325622
3402.000000	40.957536
3401.000000	40.573623
3400.000000	40.170760
3399.000000	39.751394
3398.000000	39.320832
3397.000000	38.885880
3396.000000	38.452544
3395.000000	38.021878
3394.000000	37.588944
3393.000000	37.147769
3392.000000	36.695715
3391.000000	36.232353
3390.000000	35.758405
3389.000000	35.277297
3388.000000	34.794392
3387.000000	34.311731
3386.000000	33.825800
3385.000000	33.332733
3384.000000	32.832369
3383.000000	32.325949
3382.000000	31.813492
3381.000000	31.295793
3380.000000	30.775880
3379.000000	30.255607
3378.000000	29.733414
3377.000000	29.207378
3376.000000	28.677548
3375.000000	28.144053
3374.000000	27.606215
3373.000000	27.065327
3372.000000	26.525033
3371.000000	25.986740
3370.000000	25.448025
3369.000000	24.906835
3368.000000	24.363926
3367.000000	23.819894
3366.000000	23.273793
3365.000000	22.726570
3364.000000	22.182137
3363.000000	21.643232
3362.000000	21.109438
3361.000000	20.580385
3360.000000	20.056976
3359.000000	19.538233
3358.000000	19.021094
3357.000000	18.505003
3356.000000	17.993240
3355.000000	17.488357
3354.000000	16.990308
3353.000000	16.499911
3352.000000	16.019577
3351.000000	15.549463
3350.000000	15.086616
3349.000000	14.629331
3348.000000	14.178899
3347.000000	13.735882
3346.000000	13.299495
3345.000000	12.871164
3344.000000	12.454258
3343.000000	12.049388
3342.000000	11.653680
3341.000000	11.266080
3340.000000	10.888905
3339.000000	10.523246
3338.000000	10.167540
3337.000000	9.821218
3336.000000	9.486027
3335.000000	9.162486
3334.000000	8.848894
3333.000000	8.544967
3332.000000	8.251812
3331.000000	7.968380
3330.000000	7.691990
3329.000000	7.422666
3328.000000	7.163563
3327.000000	6.916112
3326.000000	6.679252
3325.000000	6.453160
3324.000000	6.238881
3323.000000	6.034727
3322.000000	5.837173
3321.000000	5.645889
3320.000000	5.463811
3319.000000	5.291482
3318.000000	5.126620
3317.000000	4.968608
3316.000000	4.819020
3315.000000	4.677505
3314.000000	4.541230
3313.000000	4.409209
3312.000000	4.282757
3311.000000	4.161596
3310.000000	4.044176
3309.000000	3.931570
3308.000000	3.827179
3307.000000	3.732197
3306.000000	3.645159
3305.000000	3.565836
3304.000000	3.494609
3303.000000	3.428901
3302.000000	3.364659
3301.000000	3.301263
3300.000000	3.241059
3299.000000	3.184269
3298.000000	3.129032
3297.000000	3.076009
3296.000000	3.027953
3295.000000	2.985056
3294.000000	2.945097
3293.000000	2.908195
3292.000000	2.876864
3291.000000	2.850985
3290.000000	2.827548
3289.000000	2.805129
3288.000000	2.784602
3287.000000	2.765652
3286.000000	2.746669
3285.000000	2.728307
3284.000000	2.712764
3283.000000	2.699835
3282.000000	2.687556
3281.000000	2.676207
3280.000000	2.667680
3279.000000	2.661156
3278.000000	2.653807
3277.000000	2.645469
3276.000000	2.638421
3275.000000	2.632950
3274.000000	2.627304
3273.000000	2.621930
3272.000000	2.619562
3271.000000	2.621080
3270.000000	2.625064
3269.000000	2.630990
3268.000000	2.639060
3267.000000	2.647443
3266.000000	2.653662
3265.000000	2.658382
3264.000000	2.664280
3263.000000	2.671646
3262.000000	2.678785
3261.000000	2.685704
3260.000000	2.693481
3259.000000	2.700979
3258.000000	2.706338
3257.000000	2.711050
3256.000000	2.718352
3255.000000	2.728294
3254.000000	2.738260
3253.000000	2.747597
3252.000000	2.757502
3251.000000	2.767189
3250.000000	2.774617
3249.000000	2.780649
3248.000000	2.788399
3247.000000	2.798673
3246.000000	2.809769
3245.000000	2.821168
3244.000000	2.833630
3243.000000	2.846164
3242.000000	2.856907
3241.000000	2.866510
3240.000000	2.877038
3239.000000	2.888044
3238.000000	2.897316
3237.000000	2.904799
3236.000000	2.912306
3235.000000	2.920197
3234.000000	2.927879
3233.000000	2.936596
3232.000000	2.947894
3231.000000	2.960202
3230.000000	2.970693
3229.000000	2.979631
3228.000000	2.989185
3227.000000	2.999066
3226.000000	3.007167
3225.000000	3.013649
3224.000000	3.020380
3223.000000	3.027215
3222.000000	3.032631
3221.000000	3.037271
3220.000000	3.043069
3219.000000	3.049553
3218.000000	3.054678
3217.000000	3.058509
3216.000000	3.062483
3215.000000	3.066004
3214.000000	3.067429
3213.000000	3.067585
3212.000000	3.068626
3211.000000	3.070267
3210.000000	3.070630
3209.000000	3.069778
3208.000000	3.068905
3207.000000	3.067133
3206.000000	3.062797
3205.000000	3.056962
3204.000000	3.052028
3203.000000	3.047844
3202.000000	3.042634
3201.000000	3.036576
3200.000000	3.030878
3199.000000	3.024463
3198.000000	3.015380
3197.000000	3.004531
3196.000000	2.994336
3195.000000	2.984715
3194.000000	2.973932
3193.000000	2.962312
3192.000000	2.951537
3191.000000	2.941242
3190.000000	2.929925
3189.000000	2.918149
3188.000000	2.907384
3187.000000	2.896723
3186.000000	2.884293
3185.000000	2.870845
3184.000000	2.858500
3183.000000	2.847063
3182.000000	2.834989
3181.000000	2.822778
3180.000000	2.811866
3179.000000	2.801384
3178.000000	2.789597
3177.000000	2.777484
3176.000000	2.767325
3175.000000	2.758782
3174.000000	2.749805
3173.000000	2.740283
3172.000000	2.731412
3171.000000	2.722691
3170.000000	2.713021
3169.000000	2.703690
3168.000000	2.696840
3167.000000	2.691882
3166.000000	2.686683
3165.000000	2.681159
3164.000000	2.676582
3163.000000	2.672577
3162.000000	2.668058
3161.000000	2.664005
3160.000000	2.662121
3159.000000	2.661843
3158.000000	2.661610
3157.000000	2.661640
3156.000000	2.662622
3155.000000	2.663326
3154.000000	2.662735
3153.000000	2.663053
3152.000000	2.667205
3151.000000	2.674789
3150.000000	2.683470
3149.000000	2.692762
3148.000000	2.703280
3147.000000	2.713933
3146.000000	2.723320
3145.000000	2.732440
3144.000000	2.742810
3143.000000	2.753442
3142.000000	2.762891
3141.000000	2.772759
3140.000000	2.785862
3139.000000	2.802254
3138.000000	2.820201
3137.000000	2.839472
3136.000000	2.860487
3135.000000	2.881814
3134.000000	2.901780
3133.000000	2.921430
3132.000000	2.942843
3131.000000	2.965923
3130.000000	2.989587
3129.000000	3.014330
3128.000000	3.040793
3127.000000	3.067532
3126.000000	3.093184
3125.000000	3.119043
3124.000000	3.146584
3123.000000	3.174555
3122.000000	3.201559
3121.000000	3.229354
3120.000000	3.260254
3119.000000	3.293193
3118.000000	3.325969
3117.000000	3.359489
3116.000000	3.396172
3115.000000	3.435729
3114.000000	3.475906
3113.000000	3.515973
3112.000000	3.556247
3111.000000	3.595874
3110.000000	3.634410
3109.000000	3.674035
3108.000000	3.716969
3107.000000	3.762076
3106.000000	3.806964
3105.000000	3.851758
3104.000000	3.897692
3103.000000	3.943873
3102.000000	3.988866
3101.000000	4.033947
3100.000000	4.081526
3099.000000	4.131501
3098.000000	4.182285
3097.000000	4.233930
3096.000000	4.287145
3095.000000	4.340721
3094.000000	4.392986
3093.000000	4.444624
3092.000000	4.497352
3091.000000	4.551180
3090.000000	4.605558
3089.000000	4.661467
3088.000000	4.719612
3087.000000	4.778271
3086.000000	4.835708
3085.000000	4.893102
3084.000000	4.952305
3083.000000	5.012519
3082.000000	5.072120
3081.000000	5.131991
3080.000000	5.194152
3079.000000	5.258643
3078.000000	5.324544
3077.000000	5.392334
3076.000000	5.462293
3075.000000	5.532350
3074.000000	5.600460
3073.000000	5.667552
3072.000000	5.735451
3071.000000	5.803640
3070.000000	5.871028
3069.000000	5.939088
3068.000000	6.010010
3067.000000	6.083210
3066.000000	6.156598
3065.000000	6.229987
3064.000000	6.304377
3063.000000	6.379283
3062.000000	6.453642
3061.000000	6.528048
3060.000000	6.603443
3059.000000	6.678952
3058.000000	6.753519
3057.000000	6.828293
3056.000000	6.904825
3055.000000	6.982369
3054.000000	7.059497
3053.000000	7.136890
3052.000000	7.215988
3051.000000	7.296252
3050.000000	7.376190
3049.000000	7.455682
3048.000000	7.535010
3047.000000	7.613213
3046.000000	7.689826
3045.000000	7.766722
3044.000000	7.845885
3043.000000	7.926874
3042.000000	8.008554
3041.000000	8.091434
3040.000000	8.175865
3039.000000	8.259804
3038.000000	8.341106
3037.000000	8.420593
3036.000000	8.500582
3035.000000	8.581915
3034.000000	8.664540
3033.000000	8.749096
3032.000000	8.835419
3031.000000	8.921190
3030.000000	9.004546
3029.000000	9.086454
3028.000000	9.168503
3027.000000	9.250356
3026.000000	9.331635
3025.000000	9.414034
3024.000000	9.498801
3023.000000	9.584055
3022.000000	9.667368
3021.000000	9.749310
3020.000000	9.831822
3019.000000	9.914786
3018.000000	9.996945
3017.000000	10.078587
3016.000000	10.160659
3015.000000	10.242739
3014.000000	10.324549
3013.000000	10.407999
3012.000000	10.495013
3011.000000	10.584563
3010.000000	10.674134
3009.000000	10.762821
3008.000000	10.850816
3007.000000	10.937532
3006.000000	11.022599
3005.000000	11.107298
3004.000000	11.192763
3003.000000	11.278055
3002.000000	11.362036
3001.000000	11.445570
3000.000000	11.529930
2999.000000	11.614714
2998.000000	11.699336
2997.000000	11.784672
2996.000000	11.871046
2995.000000	11.956594
2994.000000	12.040101
2993.000000	12.123671
2992.000000	12.209976
2991.000000	12.298471
2990.000000	12.386763
2989.000000	12.474100
2988.000000	12.560972
2987.000000	12.646929
2986.000000	12.731436
2985.000000	12.815606
2984.000000	12.900639
2983.000000	12.985805
2982.000000	13.070222
2981.000000	13.155094
2980.000000	13.241783
2979.000000	13.329114
2978.000000	13.415155
2977.000000	13.500381
2976.000000	13.586664
2975.000000	13.674320
2974.000000	13.762428
2973.000000	13.850775
2972.000000	13.939198
2971.000000	14.026315
2970.000000	14.111296
2969.000000	14.195744
2968.000000	14.281539
2967.000000	14.368080
2966.000000	14.453761
2965.000000	14.538795
2964.000000	14.624234
2963.000000	14.709610
2962.000000	14.794029
2961.000000	14.878271
2960.000000	14.963419
2959.000000	15.048681
2958.000000	15.132691
2957.000000	15.215601
2956.000000	15.297857
2955.000000	15.378751
2954.000000	15.458412
2953.000000	15.539257
2952.000000	15.622882
2951.000000	15.707216
2950.000000	15.789378
2949.000000	15.869642
2948.000000	15.950089
2947.000000	16.031069
2946.000000	16.111837
2945.000000	16.193150
2944.000000	16.276247
2943.000000	16.360325
2942.000000	16.443682
2941.000000	16.526355
2940.000000	16.609086
2939.000000	16.690822
2938.000000	16.769880
2937.000000	16.846681
2936.000000	16.922911
2935.000000	16.998903
2934.000000	17.074287
2933.000000	17.150123
2932.000000	17.227784
2931.000000	17.306495
2930.000000	17.384295
2929.000000	17.460677
2928.000000	17.536170
2927.000000	17.610549
2926.000000	17.683741
2925.000000	17.757316
2924.000000	17.832715
2923.000000	17.909111
2922.000000	17.985182
2921.000000	18.061529
2920.000000	18.139081
2919.000000	18.216696
2918.000000	18.292856
2917.000000	18.368365
2916.000000	18.444807
2915.000000	18.521401
2914.000000	18.595745
2913.000000	18.666777
2912.000000	18.734941
2911.000000	18.800542
2910.000000	18.864151
2909.000000	18.927721
2908.000000	18.993182
2907.000000	19.060503
2906.000000	19.128594
2905.000000	19.196998
2904.000000	19.265101
2903.000000	19.330955
2902.000000	19.393374
2901.000000	19.453819
2900.000000	19.514845
2899.000000	19.577360
2898.000000	19.640720
2897.000000	19.704296
2896.000000	19.767048
2895.000000	19.826962
2894.000000	19.882952
2893.000000	19.936479
2892.000000	19.989690
2891.000000	20.043073
2890.000000	20.096358
2889.000000	20.150120
2888.000000	20.204446
2887.000000	20.257266
2886.000000	20.306128
2885.000000	20.350730
2884.000000	20.392076
2883.000000	20.430452
2882.000000	20.466062
2881.000000	20.500321
2880.000000	20.534344
2879.000000	20.567199
2878.000000	20.597642
2877.000000	20.626503
2876.000000	20.655381
2875.000000	20.684093
2874.000000	20.711789
2873.000000	20.739738
2872.000000	20.770898
2871.000000	20.807381
2870.000000	20.850074
2869.000000	20.899810
2868.000000	20.956738
2867.000000	21.019405
2866.000000	21.086485
2865.000000	21.158767
2864.000000	21.237788
2863.000000	21.323276
2862.000000	21.413514
2861.000000	21.507009
2860.000000	21.602133
2859.000000	21.696394
2858.000000	21.788253
2857.000000	21.878894
2856.000000	21.970394
2855.000000	22.063110
2854.000000	22.156335
2853.000000	22.250082
2852.000000	22.344192
2851.000000	22.436811
2850.000000	22.525843
2849.000000	22.611126
2848.000000	22.693639
2847.000000	22.773836
2846.000000	22.852537
2845.000000	22.931980
2844.000000	23.013688
2843.000000	23.096141
2842.000000	23.176542
2841.000000	23.253976
2840.000000	23.329029
2839.000000	23.401586
2838.000000	23.471373
2837.000000	23.539931
2836.000000	23.609604
2835.000000	23.680720
2834.000000	23.751517
2833.000000	23.820489
2832.000000	23.887250
2831.000000	23.951781
2830.000000	24.014719
2829.000000	24.077992
2828.000000	24.143372
2827.000000	24.210559
2826.000000	24.277870
2825.000000	24.344095
2824.000000	24.408394
2823.000000	24.469535
2822.000000	24.527265
2821.000000	24.583878
2820.000000	24.642471
2819.000000	24.703948
2818.000000	24.767080
2817.000000	24.830657
2816.000000	24.893725
2815.000000	24.954551
2814.000000	25.011745
2813.000000	25.066440
2812.000000	25.121612
2811.000000	25.179303
2810.000000	25.239750
2809.000000	25.302527
2808.000000	25.366615
2807.000000	25.429774
2806.000000	25.489861
2805.000000	25.546997
2804.000000	25.603129
2803.000000	25.659777
2802.000000	25.717553
2801.000000	25.777156
2800.000000	25.838850
2799.000000	25.901062
2798.000000	25.961153
2797.000000	26.017751
2796.000000	26.071298
2795.000000	26.122895
2794.000000	26.174123
2793.000000	26.227398
2792.000000	26.284441
2791.000000	26.344191
2790.000000	26.403518
2789.000000	26.459971
2788.000000	26.512816
2787.000000	26.562179
2786.000000	26.609059
2785.000000	26.655956
2784.000000	26.705571
2783.000000	26.758439
2782.000000	26.812776
2781.000000	26.866439
2780.000000	26.917871
2779.000000	26.965846
2778.000000	27.010240
2777.000000	27.053177
2776.000000	27.097906
2775.000000	27.146162
2774.000000	27.197327
2773.000000	27.249593
2772.000000	27.300687
2771.000000	27.348136
2770.000000	27.390757
2769.000000	27.430140
2768.000000	27.469597
2767.000000	27.511618
2766.000000	27.557006
2765.000000	27.605507
2764.000000	27.655573
2763.000000	27.704028
2762.000000	27.747988
2761.000000	27.787436
2760.000000	27.824917
2759.000000	27.862975
2758.000000	27.903022
2757.000000	27.945935
2756.000000	27.991738
2755.000000	28.038597
2754.000000	28.083665
2753.000000	28.125333
2752.000000	28.163836
2751.000000	28.200192
2750.000000	28.235998
2749.000000	28.273693
2748.000000	28.315037
2747.000000	28.358956
2746.000000	28.402156
2745.000000	28.442002
2744.000000	28.477875
2743.000000	28.510433
2742.000000	28.541314
2741.000000	28.573418
2740.000000	28.609564
2739.000000	28.650120
2738.000000	28.692756
2737.000000	28.734406
2736.000000	28.772603
2735.000000	28.805736
2734.000000	28.833951
2733.000000	28.860028
2732.000000	28.887864
2731.000000	28.919577
2730.000000	28.954662
2729.000000	28.991351
2728.000000	29.027468
2727.000000	29.060543
2726.000000	29.089175
2725.000000	29.114816
2724.000000	29.140892
2723.000000	29.169919
2722.000000	29.202241
2721.000000	29.236955
2720.000000	29.272363
2719.000000	29.305669
2718.000000	29.334287
2717.000000	29.358234
2716.000000	29.380287
2715.000000	29.403624
2714.000000	29.430166
2713.000000	29.460667
2712.000000	29.494485
2711.000000	29.528868
2710.000000	29.560005
2709.000000	29.585576
2708.000000	29.605877
2707.000000	29.622846
2706.000000	29.639006
2705.000000	29.656895
2704.000000	29.677680
2703.000000	29.699874
2702.000000	29.720441
2701.000000	29.737209
2700.000000	29.749608
2699.000000	29.757843
2698.000000	29.763073
2697.000000	29.768172
2696.000000	29.776165
2695.000000	29.787351
2694.000000	29.798997
2693.000000	29.807880
2692.000000	29.812111
2691.000000	29.810898
2690.000000	29.804731
2689.000000	29.796395
2688.000000	29.790051
2687.000000	29.788325
2686.000000	29.790710
2685.000000	29.794764
2684.000000	29.797761
2683.000000	29.797342
2682.000000	29.792369
2681.000000	29.783938
2680.000000	29.774733
2679.000000	29.767047
2678.000000	29.761870
2677.000000	29.759359
2676.000000	29.758835
2675.000000	29.758416
2674.000000	29.756219
2673.000000	29.752507
2672.000000	29.749874
2671.000000	29.751563
2670.000000	29.760289
2669.000000	29.777922
2668.000000	29.804688
2667.000000	29.838132
2666.000000	29.874395
2665.000000	29.911113
2664.000000	29.948569
2663.000000	29.988861
2662.000000	30.034698
2661.000000	30.088629
2660.000000	30.151656
2659.000000	30.221752
2658.000000	30.294767
2657.000000	30.366849
2656.000000	30.435773
2655.000000	30.500945
2654.000000	30.563433
2653.000000	30.625878
2652.000000	30.690759
2651.000000	30.758252
2650.000000	30.826332
2649.000000	30.892554
2648.000000	30.954793
2647.000000	31.011255
2646.000000	31.061760
2645.000000	31.109047
2644.000000	31.157280
2643.000000	31.208659
2642.000000	31.262289
2641.000000	31.315754
2640.000000	31.366118
2639.000000	31.410010
2638.000000	31.445130
2637.000000	31.472766
2636.000000	31.497643
2635.000000	31.524403
2634.000000	31.554980
2633.000000	31.588855
2632.000000	31.624034
2631.000000	31.657387
2630.000000	31.685737
2629.000000	31.708054
2628.000000	31.726043
2627.000000	31.742329
2626.000000	31.758884
2625.000000	31.776854
2624.000000	31.796334
2623.000000	31.815638
2622.000000	31.831999
2621.000000	31.843891
2620.000000	31.852103
2619.000000	31.858749
2618.000000	31.866313
2617.000000	31.877374
2616.000000	31.893389
2615.000000	31.912757
2614.000000	31.931078
2613.000000	31.944006
2612.000000	31.949457
2611.000000	31.947725
2610.000000	31.940951
2609.000000	31.932808
2608.000000	31.926933
2607.000000	31.924298
2606.000000	31.922633
2605.000000	31.918312
2604.000000	31.908236
2603.000000	31.890475
2602.000000	31.864737
2601.000000	31.833166
2600.000000	31.799403
2599.000000	31.766216
2598.000000	31.734508
2597.000000	31.704202
2596.000000	31.675020
2595.000000	31.646613
2594.000000	31.619591
2593.000000	31.596962
2592.000000	31.583745
2591.000000	31.584294
2590.000000	31.600579
2589.000000	31.632401
2588.000000	31.677278
2587.000000	31.730934
2586.000000	31.789066
2585.000000	31.849889
2584.000000	31.914752
2583.000000	31.985950
2582.000000	32.065490
2581.000000	32.154713
2580.000000	32.253244
2579.000000	32.357896
2578.000000	32.463539
2577.000000	32.566289
2576.000000	32.665221
2575.000000	32.761463
2574.000000	32.856997
2573.000000	32.954077
2572.000000	33.054072
2571.000000	33.155874
2570.000000	33.256335
2569.000000	33.352812
2568.000000	33.444778
2567.000000	33.533165
2566.000000	33.619684
2565.000000	33.707104
2564.000000	33.798298
2563.000000	33.893775
2562.000000	33.990618
2561.000000	34.084458
2560.000000	34.171947
2559.000000	34.251415
2558.000000	34.323100
2557.000000	34.389689
2556.000000	34.455564
2555.000000	34.524316
2554.000000	34.596870
2553.000000	34.672012
2552.000000	34.747390
2551.000000	34.819772
2550.000000	34.886210
2549.000000	34.946078
2548.000000	35.001579
2547.000000	35.055533
2546.000000	35.109205
2545.000000	35.162418
2544.000000	35.213954
2543.000000	35.261401
2542.000000	35.302003
2541.000000	35.334846
2540.000000	35.361926
2539.000000	35.386088
2538.000000	35.408901
2537.000000	35.430439
2536.000000	35.449168
2535.000000	35.461562
2534.000000	35.462661
2533.000000	35.448895
2532.000000	35.420278
2531.000000	35.379393
2530.000000	35.330039
2529.000000	35.276516
2528.000000	35.222665
2527.000000	35.170363
2526.000000	35.119470
2525.000000	35.070112
2524.000000	35.023924
2523.000000	34.983026
2522.000000	34.949377
2521.000000	34.925992
2520.000000	34.916511
2519.000000	34.922738
2518.000000	34.943501
2517.000000	34.976095
2516.000000	35.018548
2515.000000	35.069180
2514.000000	35.126341
2513.000000	35.189865
2512.000000	35.261060
2511.000000	35.340788
2510.000000	35.427428
2509.000000	35.517528
2508.000000	35.607523
2507.000000	35.693969
2506.000000	35.773997
2505.000000	35.846903
2504.000000	35.914857
2503.000000	35.981050
2502.000000	36.047611
2501.000000	36.115296
2500.000000	36.183794
2499.000000	36.251349
2498.000000	36.315189
2497.000000	36.373739
2496.000000	36.427636
2495.000000	36.478241
2494.000000	36.526275
2493.000000	36.572311
2492.000000	36.617247
2491.000000	36.660866
2490.000000	36.701294
2489.000000	36.737201
2488.000000	36.769484
2487.000000	36.800163
2486.000000	36.830643
2485.000000	36.862015
2484.000000	36.895575
2483.000000	36.931321
2482.000000	36.966961
2481.000000	36.999553
2480.000000	37.027571
2479.000000	37.050839
2478.000000	37.069770
2477.000000	37.086039
2476.000000	37.102691
2475.000000	37.122024
2474.000000	37.144004
2473.000000	37.167470
2472.000000	37.191717
2471.000000	37.215960
2470.000000	37.238659
2469.000000	37.258995
2468.000000	37.278099
2467.000000	37.297561
2466.000000	37.317525
2465.000000	37.337194
2464.000000	37.356139
2463.000000	37.373931
2462.000000	37.389726
2461.000000	37.403642
2460.000000	37.417679
2459.000000	37.434037
2458.000000	37.453277
2457.000000	37.474939
2456.000000	37.498673
2455.000000	37.523457
2454.000000	37.546863
2453.000000	37.566688
2452.000000	37.582787
2451.000000	37.596451
2450.000000	37.608973
2449.000000	37.621827
2448.000000	37.636971
2447.000000	37.655443
2446.000000	37.676398
2445.000000	37.698526
2444.000000	37.721433
2443.000000	37.744794
2442.000000	37.767464
2441.000000	37.788747
2440.000000	37.809488
2439.000000	37.830566
2438.000000	37.851334
2437.000000	37.870709
2436.000000	37.888787
2435.000000	37.906220
2434.000000	37.923157
2433.000000	37.940121
2432.000000	37.958823
2431.000000	37.980672
2430.000000	38.005272
2429.000000	38.031380
2428.000000	38.058287
2427.000000	38.085142
2426.000000	38.110140
2425.000000	38.131916
2424.000000	38.150997
2423.000000	38.168913
2422.000000	38.186913
2421.000000	38.206411
2420.000000	38.229184
2419.000000	38.255636
2418.000000	38.283896
2417.000000	38.311884
2416.000000	38.339219
2415.000000	38.366122
2414.000000	38.391865
2413.000000	38.415695
2412.000000	38.438068
2411.000000	38.459653
2410.000000	38.480305
2409.000000	38.500248
2408.000000	38.520926
2407.000000	38.543365
2406.000000	38.566983
2405.000000	38.591293
2404.000000	38.617339
2403.000000	38.645998
2402.000000	38.676299
2401.000000	38.706805
2400.000000	38.737172
2399.000000	38.766893
2398.000000	38.794120
2397.000000	38.817739
2396.000000	38.839448
2395.000000	38.862189
2394.000000	38.887675
2393.000000	38.916856
2392.000000	38.950959
2391.000000	38.990009
2390.000000	39.031540
2389.000000	39.072548
2388.000000	39.112247
2387.000000	39.151184
2386.000000	39.189444
2385.000000	39.227660
2384.000000	39.267880
2383.000000	39.312503
2382.000000	39.362063
2381.000000	39.416267
2380.000000	39.475905
2379.000000	39.541232
2378.000000	39.610860
2377.000000	39.683458
2376.000000	39.759094
2375.000000	39.836940
2374.000000	39.913479
2373.000000	39.984874
2372.000000	40.050129
2371.000000	40.109949
2370.000000	40.163640
2369.000000	40.212007
2368.000000	40.260020
2367.000000	40.313326
2366.000000	40.373051
2365.000000	40.437667
2364.000000	40.509901
2363.000000	40.587072
2362.000000	40.660751
2361.000000	40.729315
2360.000000	40.791925
2359.000000	40.853049
2358.000000	40.913999
2357.000000	40.973182
2356.000000	41.035759
2355.000000	41.098585
2354.000000	41.158912
2353.000000	41.215362
2352.000000	41.277172
2351.000000	41.353379
2350.000000	41.428089
2349.000000	41.489623
2348.000000	41.539083
2347.000000	41.598614
2346.000000	41.683011
2345.000000	41.776308
2344.000000	41.858922
2343.000000	41.914247
2342.000000	41.954381
2341.000000	41.994797
2340.000000	42.042470
2339.000000	42.100431
2338.000000	42.166599
2337.000000	42.238470
2336.000000	42.312972
2335.000000	42.386068
2334.000000	42.454792
2333.000000	42.517047
2332.000000	42.574740
2331.000000	42.636773
2330.000000	42.699987
2329.000000	42.768263
2328.000000	42.836489
2327.000000	42.904578
2326.000000	42.972021
2325.000000	43.034847
2324.000000	43.100238
2323.000000	43.166236
2322.000000	43.235833
2321.000000	43.304642
2320.000000	43.372667
2319.000000	43.439378
2318.000000	43.500433
2317.000000	43.554010
2316.000000	43.599985
2315.000000	43.645746
2314.000000	43.694771
2313.000000	43.750605
2312.000000	43.813256
2311.000000	43.882919
2310.000000	43.954580
2309.000000	44.021699
2308.000000	44.080861
2307.000000	44.132972
2306.000000	44.181605
2305.000000	44.229499
2304.000000	44.281413
2303.000000	44.340379
2302.000000	44.405390
2301.000000	44.471936
2300.000000	44.535751
2299.000000	44.595971
2298.000000	44.652344
2297.000000	44.706908
2296.000000	44.763522
2295.000000	44.826311
2294.000000	44.894842
2293.000000	44.964057
2292.000000	45.029131
2291.000000	45.086689
2290.000000	45.135695
2289.000000	45.177611
2288.000000	45.219029
2287.000000	45.267119
2286.000000	45.324943
2285.000000	45.389995
2284.000000	45.458437
2283.000000	45.525760
2282.000000	45.586645
2281.000000	45.637446
2280.000000	45.680414
2279.000000	45.722020
2278.000000	45.767299
2277.000000	45.817991
2276.000000	45.873916
2275.000000	45.933257
2274.000000	45.990617
2273.000000	46.040454
2272.000000	46.082224
2271.000000	46.120460
2270.000000	46.160050
2269.000000	46.203844
2268.000000	46.253595
2267.000000	46.308448
2266.000000	46.362562
2265.000000	46.408510
2264.000000	46.443260
2263.000000	46.469497
2262.000000	46.491891
2261.000000	46.515135
2260.000000	46.544869
2259.000000	46.584290
2258.000000	46.630451
2257.000000	46.675617
2256.000000	46.713358
2255.000000	46.740990
2254.000000	46.758001
2253.000000	46.767123
2252.000000	46.775283
2251.000000	46.790053
2250.000000	46.812578
2249.000000	46.838096
2248.000000	46.860768
2247.000000	46.876057
2246.000000	46.880880
2245.000000	46.875258
2244.000000	46.865169
2243.000000	46.858832
2242.000000	46.859950
2241.000000	46.866412
2240.000000	46.874088
2239.000000	46.878025
2238.000000	46.871731
2237.000000	46.850754
2236.000000	46.818071
2235.000000	46.782415
2234.000000	46.751239
2233.000000	46.727596
2232.000000	46.711623
2231.000000	46.700300
2230.000000	46.686185
2229.000000	46.661546
2228.000000	46.624986
2227.000000	46.581666
2226.000000	46.537879
2225.000000	46.498417
2224.000000	46.467200
2223.000000	46.445089
2222.000000	46.426595
2221.000000	46.402900
2220.000000	46.369239
2219.000000	46.327330
2218.000000	46.282036
2217.000000	46.239344
2216.000000	46.206184
2215.000000	46.186846
2214.000000	46.178362
2213.000000	46.172243
2212.000000	46.161121
2211.000000	46.141864
2210.000000	46.114442
2209.000000	46.082401
2208.000000	46.053803
2207.000000	46.036984
2206.000000	46.034051
2205.000000	46.040507
2204.000000	46.050141
2203.000000	46.057509
2202.000000	46.057942
2201.000000	46.050458
2200.000000	46.040889
2199.000000	46.038257
2198.000000	46.047383
2197.000000	46.066980
2196.000000	46.092952
2195.000000	46.119563
2194.000000	46.139216
2193.000000	46.146884
2192.000000	46.145877
2191.000000	46.145799
2190.000000	46.154659
2189.000000	46.175250
2188.000000	46.206782
2187.000000	46.244843
2186.000000	46.280171
2185.000000	46.303057
2184.000000	46.310813
2183.000000	46.308623
2182.000000	46.303773
2181.000000	46.302358
2180.000000	46.309581
2179.000000	46.327219
2178.000000	46.349855
2177.000000	46.367747
2176.000000	46.374812
2175.000000	46.371672
2174.000000	46.362478
2173.000000	46.352989
2172.000000	46.350425
2171.000000	46.359487
2170.000000	46.377060
2169.000000	46.393951
2168.000000	46.402419
2167.000000	46.399863
2166.000000	46.387321
2165.000000	46.369393
2164.000000	46.355221
2163.000000	46.354166
2162.000000	46.368680
2161.000000	46.393368
2160.000000	46.420111
2159.000000	46.441380
2158.000000	46.450863
2157.000000	46.446894
2156.000000	46.436025
2155.000000	46.429047
2154.000000	46.432520
2153.000000	46.446176
2152.000000	46.466473
2151.000000	46.488205
2150.000000	46.503937
2149.000000	46.507793
2148.000000	46.501490
2147.000000	46.493327
2146.000000	46.490945
2145.000000	46.497731
2144.000000	46.513861
2143.000000	46.535382
2142.000000	46.553059
2141.000000	46.557788
2140.000000	46.548503
2139.000000	46.531897
2138.000000	46.515661
2137.000000	46.505812
2136.000000	46.508047
2135.000000	46.524780
2134.000000	46.550039
2133.000000	46.572205
2132.000000	46.583022
2131.000000	46.581620
2130.000000	46.571397
2129.000000	46.558227
2128.000000	46.550787
2127.000000	46.556198
2126.000000	46.573252
2125.000000	46.593276
2124.000000	46.608195
2123.000000	46.614603
2122.000000	46.612039
2121.000000	46.603319
2120.000000	46.596842
2119.000000	46.602723
2118.000000	46.624324
2117.000000	46.656126
2116.000000	46.689490
2115.000000	46.717172
2114.000000	46.733933
2113.000000	46.739171
2112.000000	46.740365
2111.000000	46.749415
2110.000000	46.774126
2109.000000	46.815350
2108.000000	46.870163
2107.000000	46.933063
2106.000000	46.995274
2105.000000	47.048980
2104.000000	47.094635
2103.000000	47.140475
2102.000000	47.194697
2101.000000	47.261414
2100.000000	47.341529
2099.000000	47.432408
2098.000000	47.525669
2097.000000	47.610550
2096.000000	47.682657
2095.000000	47.747016
2094.000000	47.813007
2093.000000	47.889117
2092.000000	47.980690
2091.000000	48.086726
2090.000000	48.197595
2089.000000	48.300023
2088.000000	48.385880
2087.000000	48.454281
2086.000000	48.507946
2085.000000	48.552701
2084.000000	48.598652
2083.000000	48.654805
2082.000000	48.720682
2081.000000	48.787110
2080.000000	48.844272
2079.000000	48.886579
2078.000000	48.911749
2077.000000	48.921492
2076.000000	48.924245
2075.000000	48.929827
2074.000000	48.941420
2073.000000	48.954933
2072.000000	48.963183
2071.000000	48.958351
2070.000000	48.935093
2069.000000	48.897950
2068.000000	48.862771
2067.000000	48.844496
2066.000000	48.845411
2065.000000	48.859740
2064.000000	48.883892
2063.000000	48.914828
2062.000000	48.942678
2061.000000	48.955551
2060.000000	48.952692
2059.000000	48.945860
2058.000000	48.947539
2057.000000	48.964235
2056.000000	48.999560
2055.000000	49.053261
2054.000000	49.117088
2053.000000	49.179560
2052.000000	49.235617
2051.000000	49.288125
2050.000000	49.342230
2049.000000	49.402770
2048.000000	49.474289
2047.000000	49.557823
2046.000000	49.648384
2045.000000	49.740061
2044.000000	49.832209
2043.000000	49.926769
2042.000000	50.023636
2041.000000	50.125258
2040.000000	50.241428
2039.000000	50.381236
2038.000000	50.541339
2037.000000	50.708123
2036.000000	50.870315
2035.000000	51.023621
2034.000000	51.165252
2033.000000	51.294803
2032.000000	51.420706
2031.000000	51.556179
2030.000000	51.708144
2029.000000	51.873775
2028.000000	52.048260
2027.000000	52.226657
2026.000000	52.400914
2025.000000	52.563981
2024.000000	52.714831
2023.000000	52.857421
2022.000000	52.996591
2021.000000	53.140181
2020.000000	53.298569
2019.000000	53.472057
2018.000000	53.643416
2017.000000	53.794694
2016.000000	53.927778
2015.000000	54.058994
2014.000000	54.198790
2013.000000	54.347199
2012.000000	54.504200
2011.000000	54.669953
2010.000000	54.835195
2009.000000	54.983062
2008.000000	55.106293
2007.000000	55.210769
2006.000000	55.303825
2005.000000	55.391161
2004.000000	55.481296
2003.000000	55.585380
2002.000000	55.702447
2001.000000	55.821193
2000.000000	55.935391
1999.000000	56.039754
1998.000000	56.121480
1997.000000	56.175198
1996.000000	56.223559
1995.000000	56.299446
1994.000000	56.404281
1993.000000	56.506002
1992.000000	56.585555
1991.000000	56.656118
1990.000000	56.732229
1989.000000	56.809244
1988.000000	56.881795
1987.000000	56.959658
1986.000000	57.052897
1985.000000	57.156239
1984.000000	57.257019
1983.000000	57.349188
1982.000000	57.425860
1981.000000	57.478375
1980.000000	57.511269
1979.000000	57.541330
1978.000000	57.579814
1977.000000	57.626032
1976.000000	57.681124
1975.000000	57.747842
1974.000000	57.814317
1973.000000	57.857260
1972.000000	57.870796
1971.000000	57.878479
1970.000000	57.909677
1969.000000	57.971063
1968.000000	58.047068
1967.000000	58.120883
1966.000000	58.183365
1965.000000	58.229905
1964.000000	58.262813
1963.000000	58.290022
1962.000000	58.316317
1961.000000	58.344008
1960.000000	58.380122
1959.000000	58.433700
1958.000000	58.502792
1957.000000	58.572045
1956.000000	58.628464
1955.000000	58.667941
1954.000000	58.691554
1953.000000	58.700001
1952.000000	58.696151
1951.000000	58.693280
1950.000000	58.701671
1949.000000	58.713223
1948.000000	58.712021
1947.000000	58.698753
1946.000000	58.698161
1945.000000	58.735457
1944.000000	58.803625
1943.000000	58.872254
1942.000000	58.927433
1941.000000	58.977603
1940.000000	59.029744
1939.000000	59.074760
1938.000000	59.094751
1937.000000	59.087085
1936.000000	59.072629
1935.000000	59.071250
1934.000000	59.088725
1933.000000	59.119850
1932.000000	59.157779
1931.000000	59.203403
1930.000000	59.242724
1929.000000	59.247691
1928.000000	59.199375
1927.000000	59.116711
1926.000000	59.054790
1925.000000	59.044296
1924.000000	59.062447
1923.000000	59.078783
1922.000000	59.097727
1921.000000	59.141271
1920.000000	59.201716
1919.000000	59.230950
1918.000000	59.208309
1917.000000	59.172197
1916.000000	59.160501
1915.000000	59.162089
1914.000000	59.144268
1913.000000	59.099916
1912.000000	59.053635
1911.000000	59.027155
1910.000000	59.009840
1909.000000	58.991116
1908.000000	58.979249
1907.000000	58.984705
1906.000000	59.008519
1905.000000	59.035251
1904.000000	59.054024
1903.000000	59.066334
1902.000000	59.064940
1901.000000	59.036183
1900.000000	58.979506
1899.000000	58.915366
1898.000000	58.876220
1897.000000	58.872598
1896.000000	58.881058
1895.000000	58.872054
1894.000000	58.842538
1893.000000	58.822286
1892.000000	58.846917
1891.000000	58.906088
1890.000000	58.951990
1889.000000	58.969097
1888.000000	58.985425
1887.000000	59.021402
1886.000000	59.061689
1885.000000	59.076731
1884.000000	59.063744
1883.000000	59.048417
1882.000000	59.044381
1881.000000	59.048419
1880.000000	59.063138
1879.000000	59.091465
1878.000000	59.126345
1877.000000	59.154491
1876.000000	59.162352
1875.000000	59.138205
1874.000000	59.070243
1873.000000	58.958933
1872.000000	58.842043
1871.000000	58.771136
1870.000000	58.744864
1869.000000	58.732954
1868.000000	58.745781
1867.000000	58.801394
1866.000000	58.876977
1865.000000	58.934646
1864.000000	58.963060
1863.000000	58.975377
1862.000000	58.978835
1861.000000	58.968938
1860.000000	58.947756
1859.000000	58.923643
1858.000000	58.893969
1857.000000	58.853426
1856.000000	58.809285
1855.000000	58.778765
1854.000000	58.752288
1853.000000	58.706072
1852.000000	58.649651
1851.000000	58.606879
1850.000000	58.584450
1849.000000	58.573145
1848.000000	58.580848
1847.000000	58.624811
1846.000000	58.657989
1845.000000	58.574580
1844.000000	58.387169
1843.000000	58.231442
1842.000000	58.167324
1841.000000	58.156641
1840.000000	58.152619
1839.000000	58.144859
1838.000000	58.141977
1837.000000	58.130517
1836.000000	58.085289
1835.000000	57.994719
1834.000000	57.859269
1833.000000	57.720921
1832.000000	57.639881
1831.000000	57.577983
1830.000000	57.466669
1829.000000	57.337880
1828.000000	57.272755
1827.000000	57.291078
1826.000000	57.318458
1825.000000	57.293669
1824.000000	57.251208
1823.000000	57.236365
1822.000000	57.226765
1821.000000	57.182716
1820.000000	57.104489
1819.000000	57.015797
1818.000000	56.920940
1817.000000	56.798494
1816.000000	56.653283
1815.000000	56.515258
1814.000000	56.408182
1813.000000	56.342714
1812.000000	56.303376
1811.000000	56.271582
1810.000000	56.239771
1809.000000	56.198438
1808.000000	56.138002
1807.000000	56.051052
1806.000000	55.933491
1805.000000	55.786332
1804.000000	55.641741
1803.000000	55.535338
1802.000000	55.456939
1801.000000	55.378303
1800.000000	55.295005
1799.000000	55.233158
1798.000000	55.206760
1797.000000	55.196076
1796.000000	55.180241
1795.000000	55.161904
1794.000000	55.127760
1793.000000	55.024745
1792.000000	54.860207
1791.000000	54.728604
1790.000000	54.673150
1789.000000	54.662120
1788.000000	54.659194
1787.000000	54.640122
1786.000000	54.575663
1785.000000	54.445079
1784.000000	54.300291
1783.000000	54.217079
1782.000000	54.183786
1781.000000	54.129760
1780.000000	54.028402
1779.000000	53.934896
1778.000000	53.882558
1777.000000	53.842213
1776.000000	53.789215
1775.000000	53.754992
1774.000000	53.733042
1773.000000	53.632887
1772.000000	53.475174
1771.000000	53.387220
1770.000000	53.393809
1769.000000	53.393974
1768.000000	53.314645
1767.000000	53.194081
1766.000000	53.091043
1765.000000	53.019010
1764.000000	52.964679
1763.000000	52.871161
1762.000000	52.709766
1761.000000	52.546133
1760.000000	52.456634
1759.000000	52.467347
1758.000000	52.488997
1757.000000	52.423303
1756.000000	52.304143
1755.000000	52.201461
1754.000000	52.087060
1753.000000	51.880424
1752.000000	51.564851
1751.000000	51.251308
1750.000000	51.059821
1749.000000	50.958630
1748.000000	50.875733
1747.000000	50.803340
1746.000000	50.758696
1745.000000	50.734385
1744.000000	50.707033
1743.000000	50.674425
1742.000000	50.641429
1741.000000	50.563199
1740.000000	50.409127
1739.000000	50.270873
1738.000000	50.214314
1737.000000	50.213069
1736.000000	50.175462
1735.000000	49.869424
1734.000000	49.311313
1733.000000	48.844446
1732.000000	48.624793
1731.000000	48.568726
1730.000000	48.512102
1729.000000	48.358242
1728.000000	48.137977
1727.000000	47.912963
1726.000000	47.699489
1725.000000	47.478495
1724.000000	47.238487
1723.000000	47.009004
1722.000000	46.797605
1721.000000	46.581696
1720.000000	46.365030
1719.000000	46.087432
1718.000000	45.676307
1717.000000	45.233627
1716.000000	44.887631
1715.000000	44.631634
1714.000000	44.398255
1713.000000	44.144044
1712.000000	43.867047
1711.000000	43.570362
1710.000000	43.235367
1709.000000	42.871763
1708.000000	42.547465
1707.000000	42.290606
1706.000000	42.061058
1705.000000	41.873426
1704.000000	41.761228
1703.000000	41.701163
1702.000000	41.534785
1701.000000	40.999939
1700.000000	40.262029
1699.000000	39.780860
1698.000000	39.635518
1697.000000	39.470942
1696.000000	38.999630
1695.000000	38.398692
1694.000000	37.915698
1693.000000	37.558172
1692.000000	37.240632
1691.000000	36.932425
1690.000000	36.645193
1689.000000	36.389632
1688.000000	36.131358
1687.000000	35.854847
1686.000000	35.570463
1685.000000	35.047383
1684.000000	34.280651
1683.000000	33.675697
1682.000000	33.353981
1681.000000	33.155519
1680.000000	32.954329
1679.000000	32.734789
1678.000000	32.507606
1677.000000	32.205856
1676.000000	31.733006
1675.000000	31.151726
1674.000000	30.638653
1673.000000	30.262335
1672.000000	29.982493
1671.000000	29.713935
1670.000000	29.357620
1669.000000	28.919652
1668.000000	28.503638
1667.000000	28.170077
1666.000000	27.898177
1665.000000	27.636229
1664.000000	27.328177
1663.000000	26.960505
1662.000000	26.580823
1661.000000	26.226640
1660.000000	25.907063
1659.000000	25.636537
1658.000000	25.429206
1657.000000	25.253659
1656.000000	25.129088
1655.000000	25.083559
1654.000000	24.750224
1653.000000	24.011432
1652.000000	23.335482
1651.000000	22.930070
1650.000000	22.722536
1649.000000	22.619789
1648.000000	22.487823
1647.000000	22.214851
1646.000000	21.873996
1645.000000	21.572581
1644.000000	21.328344
1643.000000	21.122980
1642.000000	20.918819
1641.000000	20.692664
1640.000000	20.463640
1639.000000	20.279626
1638.000000	20.173750
1637.000000	20.054491
1636.000000	19.794511
1635.000000	19.469428
1634.000000	19.215526
1633.000000	19.031692
1632.000000	18.869798
1631.000000	18.714410
1630.000000	18.569076
1629.000000	18.420187
1628.000000	18.260663
1627.000000	18.113748
1626.000000	17.996506
1625.000000	17.891819
1624.000000	17.761607
1623.000000	17.614129
1622.000000	17.501943
1621.000000	17.445525
1620.000000	17.427669
1619.000000	17.430040
1618.000000	17.404845
1617.000000	17.292385
1616.000000	17.132754
1615.000000	17.019075
1614.000000	16.972727
1613.000000	16.952576
1612.000000	16.930246
1611.000000	16.917964
1610.000000	16.929865
1609.000000	16.949757
1608.000000	16.959433
1607.000000	16.966498
1606.000000	16.979101
1605.000000	16.993377
1604.000000	17.011724
1603.000000	17.047762
1602.000000	17.103909
1601.000000	17.162208
1600.000000	17.210316
1599.000000	17.254171
1598.000000	17.300350
1597.000000	17.345680
1596.000000	17.389754
1595.000000	17.442470
1594.000000	17.508324
1593.000000	17.578247
1592.000000	17.645578
1591.000000	17.714143
1590.000000	17.781898
1589.000000	17.837949
1588.000000	17.880499
1587.000000	17.924807
1586.000000	17.981156
1585.000000	18.042298
1584.000000	18.103037
1583.000000	18.167092
1582.000000	18.235005
1581.000000	18.302441
1580.000000	18.372196
1579.000000	18.456475
1578.000000	18.552618
1577.000000	18.600610
1576.000000	18.579584
1575.000000	18.567054
1574.000000	18.603826
1573.000000	18.664183
1572.000000	18.729727
1571.000000	18.796388
1570.000000	18.840819
1569.000000	18.860336
1568.000000	18.889787
1567.000000	18.958219
1566.000000	19.068366
1565.000000	19.207953
1564.000000	19.364483
1563.000000	19.506013
1562.000000	19.561757
1561.000000	19.630164
1560.000000	19.730805
1559.000000	19.722919
1558.000000	19.736029
1557.000000	19.835578
1556.000000	19.967642
1555.000000	20.091331
1554.000000	20.176234
1553.000000	20.248097
1552.000000	20.349883
1551.000000	20.501649
1550.000000	20.682626
1549.000000	20.859445
1548.000000	21.013811
1547.000000	21.157573
1546.000000	21.318546
1545.000000	21.503695
1544.000000	21.697946
1543.000000	21.907308
1542.000000	22.208508
1541.000000	22.576441
1540.000000	22.886009
1539.000000	23.138619
1538.000000	23.369452
1537.000000	23.579537
1536.000000	23.803205
1535.000000	24.087138
1534.000000	24.418576
1533.000000	24.764181
1532.000000	25.110928
1531.000000	25.453388
1530.000000	25.801653
1529.000000	26.164429
1528.000000	26.543276
1527.000000	26.934913
1526.000000	27.329776
1525.000000	27.715201
1524.000000	28.117004
1523.000000	28.579394
1522.000000	29.050859
1521.000000	29.452551
1520.000000	29.793297
1519.000000	30.159446
1518.000000	30.623959
1517.000000	31.148897
1516.000000	31.672671
1515.000000	32.172278
1514.000000	32.626608
1513.000000	33.028131
1512.000000	33.381974
1511.000000	33.707170
1510.000000	34.030710
1509.000000	34.530072
1508.000000	35.255140
1507.000000	35.929787
1506.000000	36.473251
1505.000000	36.936116
1504.000000	37.352981
1503.000000	37.795332
1502.000000	38.273980
1501.000000	38.762569
1500.000000	39.259644
1499.000000	39.793458
1498.000000	40.359552
1497.000000	40.899234
1496.000000	41.381656
1495.000000	41.822417
1494.000000	42.205329
1493.000000	42.505547
1492.000000	42.786683
1491.000000	43.157652
1490.000000	43.646878
1489.000000	44.207727
1488.000000	44.774377
1487.000000	45.309275
1486.000000	45.777141
1485.000000	46.130960
1484.000000	46.393072
1483.000000	46.625732
1482.000000	46.838067
1481.000000	46.987145
1480.000000	47.065204
1479.000000	47.103275
1478.000000	47.096270
1477.000000	46.987227
1476.000000	46.743163
1475.000000	46.401408
1474.000000	45.895095
1473.000000	45.007407
1472.000000	43.755767
1471.000000	42.412057
1470.000000	41.055390
1469.000000	39.555101
1468.000000	37.795939
1467.000000	35.698635
1466.000000	33.100380
1465.000000	29.926453
1464.000000	26.540279
1463.000000	23.446351
1462.000000	20.771750
1461.000000	18.379365
1460.000000	16.185621
1459.000000	14.151112
1458.000000	12.098239
1457.000000	10.023785
1456.000000	8.390848
1455.000000	7.445477
1454.000000	6.931940
1453.000000	6.596810
1452.000000	6.398197
1451.000000	6.370022
1450.000000	6.491311
1449.000000	6.734374
1448.000000	7.129580
1447.000000	7.681202
1446.000000	8.316449
1445.000000	8.990788
1444.000000	9.738965
1443.000000	10.585338
1442.000000	11.486666
1441.000000	12.391585
1440.000000	13.298150
1439.000000	14.245368
1438.000000	15.294061
1437.000000	16.489975
1436.000000	17.785393
1435.000000	19.044436
1434.000000	20.208721
1433.000000	21.345971
1432.000000	22.535070
1431.000000	23.778201
1430.000000	25.007028
1429.000000	26.149248
1428.000000	27.160890
1427.000000	28.043091
1426.000000	28.850432
1425.000000	29.650800
1424.000000	30.452888
1423.000000	31.193548
1422.000000	31.813742
1421.000000	32.344285
1420.000000	32.872077
1419.000000	33.433705
1418.000000	34.034408
1417.000000	34.680743
1416.000000	35.360256
1415.000000	36.048798
1414.000000	36.742249
1413.000000	37.466621
1412.000000	38.240442
1411.000000	39.045615
1410.000000	39.855435
1409.000000	40.659248
1408.000000	41.446214
1407.000000	42.218261
1406.000000	42.991139
1405.000000	43.758488
1404.000000	44.471190
1403.000000	45.072675
1402.000000	45.570372
1401.000000	46.032362
1400.000000	46.500433
1399.000000	46.961062
1398.000000	47.419071
1397.000000	47.910597
1396.000000	48.423216
1395.000000	48.883380
1394.000000	49.254738
1393.000000	49.571660
1392.000000	49.850023
1391.000000	50.060463
1390.000000	50.188385
1389.000000	50.250215
1388.000000	50.238368
1387.000000	50.142334
1386.000000	50.022330
1385.000000	49.955853
1384.000000	49.948468
1383.000000	49.952056
1382.000000	49.935680
1381.000000	49.882956
1380.000000	49.748526
1379.000000	49.487486
1378.000000	49.122414
1377.000000	48.732452
1376.000000	48.382390
1375.000000	48.081935
1374.000000	47.816798
1373.000000	47.584400
1372.000000	47.362171
1371.000000	47.119695
1370.000000	46.849696
1369.000000	46.543545
1368.000000	46.174291
1367.000000	45.720994
1366.000000	45.197531
1365.000000	44.639951
1364.000000	44.061071
1363.000000	43.442090
1362.000000	42.793751
1361.000000	42.160332
1360.000000	41.562125
1359.000000	41.008549
1358.000000	40.541548
1357.000000	40.218514
1356.000000	40.070551
1355.000000	40.092128
1354.000000	40.254447
1353.000000	40.504105
1352.000000	40.757269
1351.000000	40.934925
1350.000000	40.985554
1349.000000	40.870407
1348.000000	40.550432
1347.000000	40.000966
1346.000000	39.221212
1345.000000	38.215923
1344.000000	36.992819
1343.000000	35.578337
1342.000000	34.019125
1341.000000	32.346578
1340.000000	30.565345
1339.000000	28.698944
1338.000000	26.796364
1337.000000	24.878848
1336.000000	22.931429
1335.000000	20.953782
1334.000000	18.981444
1333.000000	17.056326
1332.000000	15.214180
1331.000000	13.503952
1330.000000	11.981087
1329.000000	10.670066
1328.000000	9.560504
1327.000000	8.631609
1326.000000	7.853995
1325.000000	7.183072
1324.000000	6.576420
1323.000000	6.021048
1322.000000	5.522892
1321.000000	5.079588
1320.000000	4.688965
1319.000000	4.368647
1318.000000	4.147102
1317.000000	4.038443
1316.000000	4.043587
1315.000000	4.169501
1314.000000	4.421022
1313.000000	4.785265
1312.000000	5.240941
1311.000000	5.775020
1310.000000	6.381875
1309.000000	7.049345
1308.000000	7.761398
1307.000000	8.508730
1306.000000	9.283076
1305.000000	10.068780
1304.000000	10.848314
1303.000000	11.612894
1302.000000	12.360307
1301.000000	13.085479
1300.000000	13.780792
1299.000000	14.442200
1298.000000	15.066305
1297.000000	15.644104
1296.000000	16.169980
1295.000000	16.659019
1294.000000	17.148482
1293.000000	17.681559
1292.000000	18.294205
1291.000000	19.012045
1290.000000	19.848961
1289.000000	20.800766
1288.000000	21.844028
1287.000000	22.946466
1286.000000	24.075727
1285.000000	25.200792
1284.000000	26.291127
1283.000000	27.322427
1282.000000	28.283167
1281.000000	29.169382
1280.000000	29.973893
1279.000000	30.689092
1278.000000	31.317394
1277.000000	31.867685
1276.000000	32.350370
1275.000000	32.785831
1274.000000	33.212809
1273.000000	33.676463
1272.000000	34.206053
1271.000000	34.811180
1270.000000	35.491516
1269.000000	36.236691
1268.000000	37.021807
1267.000000	37.819436
1266.000000	38.616624
1265.000000	39.412252
1264.000000	40.202396
1263.000000	40.981105
1262.000000	41.749932
1261.000000	42.507077
1260.000000	43.228893
1259.000000	43.880783
1258.000000	44.448540
1257.000000	44.940424
1256.000000	45.365874
1255.000000	45.731622
1254.000000	46.050088
1253.000000	46.332124
1252.000000	46.567103
1251.000000	46.731040
1250.000000	46.812522
1249.000000	46.813262
1248.000000	46.735577
1247.000000	46.583161
1246.000000	46.369899
1245.000000	46.108253
1244.000000	45.786887
1243.000000	45.381893
1242.000000	44.882185
1241.000000	44.292359
1240.000000	43.622589
1239.000000	42.891012
1238.000000	42.132621
1237.000000	41.383701
1236.000000	40.659995
1235.000000	39.961193
1234.000000	39.287712
1233.000000	38.642261
1232.000000	38.025569
1231.000000	37.446152
1230.000000	36.927730
1229.000000	36.498778
1228.000000	36.173698
1227.000000	35.952329
1226.000000	35.829935
1225.000000	35.793675
1224.000000	35.822745
1223.000000	35.900108
1222.000000	36.025180
1221.000000	36.210057
1220.000000	36.461947
1219.000000	36.780068
1218.000000	37.158635
1217.000000	37.582331
1216.000000	38.024467
1215.000000	38.459462
1214.000000	38.881251
1213.000000	39.301489
1212.000000	39.733857
1211.000000	40.189608
1210.000000	40.679668
1209.000000	41.206080
1208.000000	41.750538
1207.000000	42.283133
1206.000000	42.784795
1205.000000	43.254322
1204.000000	43.698850
1203.000000	44.131436
1202.000000	44.573919
1201.000000	45.043570
1200.000000	45.534571
1199.000000	46.022602
1198.000000	46.486653
1197.000000	46.918127
1196.000000	47.315150
1195.000000	47.686579
1194.000000	48.058885
1193.000000	48.459795
1192.000000	48.891961
1191.000000	49.331684
1190.000000	49.751658
1189.000000	50.132048
1188.000000	50.457013
1187.000000	50.724615
1186.000000	50.960963
1185.000000	51.207075
1184.000000	51.487266
1183.000000	51.798667
1182.000000	52.125127
1181.000000	52.442236
1180.000000	52.716091
1179.000000	52.922607
1178.000000	53.072310
1177.000000	53.201753
1176.000000	53.340360
1175.000000	53.498536
1174.000000	53.676804
1173.000000	53.862298
1172.000000	54.022130
1171.000000	54.122376
1170.000000	54.159622
1169.000000	54.161536
1168.000000	54.159702
1167.000000	54.177407
1166.000000	54.232555
1165.000000	54.326439
1164.000000	54.428641
1163.000000	54.492798
1162.000000	54.494050
1161.000000	54.439938
1160.000000	54.352798
1159.000000	54.261973
1158.000000	54.205493
1157.000000	54.211853
1156.000000	54.273852
1155.000000	54.354298
1154.000000	54.418075
1153.000000	54.448463
1152.000000	54.441926
1151.000000	54.411113
1150.000000	54.391803
1149.000000	54.422231
1148.000000	54.510542
1147.000000	54.632848
1146.000000	54.758695
1145.000000	54.864684
1144.000000	54.933060
1143.000000	54.964046
1142.000000	54.990141
1141.000000	55.057650
1140.000000	55.189930
1139.000000	55.377261
1138.000000	55.593585
1137.000000	55.804790
1136.000000	55.969164
1135.000000	56.058592
1134.000000	56.086176
1133.000000	56.097331
1132.000000	56.133130
1131.000000	56.213189
1130.000000	56.340367
1129.000000	56.497388
1128.000000	56.640262
1127.000000	56.720612
1126.000000	56.723051
1125.000000	56.667742
1124.000000	56.583250
1123.000000	56.492497
1122.000000	56.413861
1121.000000	56.349115
1120.000000	56.265348
1119.000000	56.113586
1118.000000	55.868560
1117.000000	55.538623
1116.000000	55.147359
1115.000000	54.721775
1114.000000	54.292142
1113.000000	53.872933
1112.000000	53.436420
1111.000000	52.926857
1110.000000	52.295625
1109.000000	51.519738
1108.000000	50.598785
1107.000000	49.552712
1106.000000	48.424880
1105.000000	47.254365
1104.000000	46.045106
1103.000000	44.769178
1102.000000	43.387723
1101.000000	41.868201
1100.000000	40.187843
1099.000000	38.347355
1098.000000	36.378523
1097.000000	34.322018
1096.000000	32.206353
1095.000000	30.045470
1094.000000	27.847051
1093.000000	25.617799
1092.000000	23.370196
1091.000000	21.134461
1090.000000	18.957561
1089.000000	16.888601
1088.000000	14.965593
1087.000000	13.217927
1086.000000	11.659178
1085.000000	10.284978
1084.000000	9.086635
1083.000000	8.053650
1082.000000	7.174532
1081.000000	6.431285
1080.000000	5.806596
1079.000000	5.290963
1078.000000	4.868269
1077.000000	4.516765
1076.000000	4.218906
1075.000000	3.964827
1074.000000	3.745963
1073.000000	3.550388
1072.000000	3.374228
1071.000000	3.222860
1070.000000	3.097850
1069.000000	2.993604
1068.000000	2.906352
1067.000000	2.838466
1066.000000	2.789628
1065.000000	2.754171
1064.000000	2.731861
1063.000000	2.729050
1062.000000	2.748426
1061.000000	2.786403
1060.000000	2.842109
1059.000000	2.919593
1058.000000	3.017136
1057.000000	3.126201
1056.000000	3.243335
1055.000000	3.373067
1054.000000	3.518652
1053.000000	3.678619
1052.000000	3.855418
1051.000000	4.056782
1050.000000	4.284081
1049.000000	4.530962
1048.000000	4.794015
1047.000000	5.076748
1046.000000	5.382257
1045.000000	5.710427
1044.000000	6.066104
1043.000000	6.457914
1042.000000	6.887832
1041.000000	7.349852
1040.000000	7.837627
1039.000000	8.349199
1038.000000	8.882341
1037.000000	9.434268
1036.000000	10.008698
1035.000000	10.613607
1034.000000	11.252902
1033.000000	11.922716
1032.000000	12.615528
1031.000000	13.323827
1030.000000	14.038775
1029.000000	14.753378
1028.000000	15.467914
1027.000000	16.189286
1026.000000	16.924642
1025.000000	17.675825
1024.000000	18.438303
1023.000000	19.202132
1022.000000	19.955057
1021.000000	20.688267
1020.000000	21.401730
1019.000000	22.105364
1018.000000	22.814682
1017.000000	23.542477
1016.000000	24.291026
1015.000000	25.050549
1014.000000	25.803876
1013.000000	26.532743
1012.000000	27.223766
1011.000000	27.875134
1010.000000	28.500858
1009.000000	29.124223
1008.000000	29.763219
1007.000000	30.422513
1006.000000	31.095376
1005.000000	31.768043
1004.000000	32.423487
1003.000000	33.049852
1002.000000	33.649676
1001.000000	34.236743
1000.000000	34.823279
999.000000	35.413019
998.000000	36.002834
997.000000	36.583667
996.000000	37.139689
995.000000	37.658195
994.000000	38.144500
993.000000	38.620887
992.000000	39.111082
991.000000	39.630238
990.000000	40.183989
989.000000	40.763896
988.000000	41.341571
987.000000	41.880623
986.000000	42.359546
985.000000	42.780417
984.000000	43.159618
983.000000	43.521064
982.000000	43.895845
981.000000	44.309692
980.000000	44.764124
979.000000	45.238477
978.000000	45.710498
977.000000	46.167365
976.000000	46.600673
975.000000	47.006747
974.000000	47.394559
973.000000	47.778170
972.000000	48.158423
971.000000	48.521283
970.000000	48.855117
969.000000	49.160459
968.000000	49.444231
967.000000	49.720528
966.000000	50.016184
965.000000	50.358185
964.000000	50.750150
963.000000	51.168703
962.000000	51.580917
961.000000	51.955427
960.000000	52.262934
959.000000	52.489499
958.000000	52.653547
957.000000	52.796840
956.000000	52.955408
955.000000	53.147795
954.000000	53.384663
953.000000	53.667092
952.000000	53.975116
951.000000	54.277042
950.000000	54.555072
949.000000	54.809161
948.000000	55.038452
947.000000	55.236324
946.000000	55.404113
945.000000	55.549845
944.000000	55.674155
943.000000	55.774401
942.000000	55.864784
941.000000	55.974901
940.000000	56.125818
939.000000	56.321541
938.000000	56.558878
937.000000	56.824670
936.000000	57.083100
935.000000	57.287050
934.000000	57.410255
933.000000	57.457567
932.000000	57.446813
931.000000	57.401393
930.000000	57.356857
929.000000	57.350654
928.000000	57.396923
927.000000	57.483639
926.000000	57.594126
925.000000	57.713458
924.000000	57.817589
923.000000	57.878494
922.000000	57.883949
921.000000	57.837271
920.000000	57.737775
919.000000	57.581543
918.000000	57.381828
917.000000	57.167485
916.000000	56.961723
915.000000	56.776720
914.000000	56.625174
913.000000	56.514373
912.000000	56.424725
911.000000	56.314309
910.000000	56.146755
909.000000	55.902953
908.000000	55.572054
907.000000	55.153062
906.000000	54.669772
905.000000	54.161882
904.000000	53.656521
903.000000	53.162199
902.000000	52.682779
901.000000	52.218486
900.000000	51.752340
899.000000	51.255174
898.000000	50.708231
897.000000	50.104852
896.000000	49.434632
895.000000	48.684389
894.000000	47.854891
893.000000	46.963150
892.000000	46.025231
891.000000	45.054384
890.000000	44.071427
889.000000	43.096885
888.000000	42.131638
887.000000	41.154252
886.000000	40.138403
885.000000	39.063476
884.000000	37.912622
883.000000	36.679871
882.000000	35.380088
881.000000	34.042132
880.000000	32.690236
879.000000	31.337194
878.000000	29.991327
877.000000	28.656873
876.000000	27.329541
875.000000	26.001242
874.000000	24.671539
873.000000	23.348970
872.000000	22.044054
871.000000	20.765466
870.000000	19.519536
869.000000	18.310189
868.000000	17.137449
867.000000	16.000697
866.000000	14.904030
865.000000	13.855659
864.000000	12.865507
863.000000	11.939382
862.000000	11.076225
861.000000	10.271528
860.000000	9.520503
859.000000	8.822452
858.000000	8.180499
857.000000	7.602671
856.000000	7.103665
855.000000	6.696467
854.000000	6.386543
853.000000	6.169874
852.000000	6.034773
851.000000	5.963081
850.000000	5.929095
849.000000	5.908776
848.000000	5.888286
847.000000	5.863768
846.000000	5.836957
845.000000	5.812446
844.000000	5.797657
843.000000	5.799034
842.000000	5.818522
841.000000	5.856501
840.000000	5.915040
839.000000	5.997460
838.000000	6.107379
837.000000	6.249889
836.000000	6.431383
835.000000	6.653140
834.000000	6.908805
833.000000	7.189611
832.000000	7.489153
831.000000	7.804214
830.000000	8.134724
829.000000	8.486459
828.000000	8.869039
827.000000	9.287818
826.000000	9.741001
825.000000	10.222486
824.000000	10.723734
823.000000	11.234490
822.000000	11.748229
821.000000	12.268669
820.000000	12.804933
819.000000	13.361643
818.000000	13.936634
817.000000	14.523459
816.000000	15.109694
815.000000	15.676557
814.000000	16.209338
813.000000	16.708537
812.000000	17.187347
811.000000	17.662283
810.000000	18.149500
809.000000	18.661685
808.000000	19.198668
807.000000	19.744345
806.000000	20.279900
805.000000	20.799000
804.000000	21.307452
803.000000	21.816356
802.000000	22.340901
801.000000	22.895829
800.000000	23.480656
799.000000	24.073570
798.000000	24.646740
797.000000	25.184605
796.000000	25.686470
795.000000	26.164927
794.000000	26.648620
793.000000	27.174129
792.000000	27.761677
791.000000	28.400631
790.000000	29.059102
789.000000	29.699331
788.000000	30.285225
787.000000	30.796342
786.000000	31.247867
785.000000	31.685478
784.000000	32.150663
783.000000	32.655902
782.000000	33.190773
781.000000	33.733625
780.000000	34.252628
779.000000	34.717620
778.000000	35.127907
777.000000	35.519334
776.000000	35.934763
775.000000	36.394856
774.000000	36.896197
773.000000	37.415513
772.000000	37.907424
771.000000	38.320633
770.000000	38.637561
769.000000	38.893311
768.000000	39.150323
767.000000	39.464948
766.000000	39.874133
765.000000	40.383381
764.000000	40.949087
763.000000	41.488327
762.000000	41.928486
761.000000	42.248190
760.000000	42.473285
759.000000	42.654814
758.000000	42.855913
757.000000	43.129193
756.000000	43.482087
755.000000	43.868667
754.000000	44.226746
753.000000	44.517701
752.000000	44.736049
751.000000	44.906245
750.000000	45.080406
749.000000	45.313190
748.000000	45.616867
747.000000	45.944773
746.000000	46.224445
745.000000	46.398170
744.000000	46.440839
743.000000	46.372278
742.000000	46.267561
741.000000	46.229493
740.000000	46.326823
739.000000	46.557873
738.000000	46.866891
737.000000	47.173318
736.000000	47.390083
735.000000	47.457598
734.000000	47.390895
733.000000	47.278488
732.000000	47.221244
731.000000	47.278975
730.000000	47.464696
729.000000	47.750621
728.000000	48.067106
727.000000	48.332791
726.000000	48.517209
725.000000	48.665104
724.000000	48.850218
723.000000	49.123531
722.000000	49.501891
721.000000	49.964523
720.000000	50.437844
719.000000	50.817247
718.000000	51.040152
717.000000	51.133739
716.000000	51.187259
715.000000	51.301862
714.000000	51.564464
713.000000	52.018044
712.000000	52.618806
711.000000	53.239449
710.000000	53.744559
709.000000	54.064030
708.000000	54.204873
707.000000	54.234985
706.000000	54.267272
705.000000	54.415513
704.000000	54.722861
703.000000	55.134688
702.000000	55.552165
701.000000	55.899174
700.000000	56.140160
699.000000	56.286678
698.000000	56.411373
697.000000	56.618303
696.000000	56.961191
695.000000	57.397822
694.000000	57.829667
693.000000	58.160241
692.000000	58.317589
691.000000	58.285360
690.000000	58.148596
689.000000	58.074681
688.000000	58.204654
687.000000	58.565107
686.000000	59.089425
685.000000	59.669339
684.000000	60.163553
683.000000	60.434329
682.000000	60.446522
681.000000	60.306681
680.000000	60.173945
679.000000	60.156701
678.000000	60.302465
677.000000	60.604753
676.000000	60.973580
675.000000	61.275069
674.000000	61.435187
673.000000	61.493088
672.000000	61.554345
671.000000	61.724151
670.000000	62.081778
669.000000	62.638004
668.000000	63.199387
667.000000	63.452673
666.000000	63.341436
665.000000	63.038458
664.000000	62.703412
663.000000	62.466649
662.000000	62.447866
661.000000	62.711285
660.000000	63.213565
659.000000	63.809366
658.000000	64.315852
657.000000	64.590257
656.000000	64.583640
655.000000	64.373841
654.000000	64.127728
653.000000	64.003558
652.000000	64.082133
651.000000	64.350821
650.000000	64.716184
649.000000	65.042850
648.000000	65.223645
647.000000	65.245123
646.000000	65.194302
645.000000	65.196694
644.000000	65.334493
643.000000	65.605969
642.000000	65.932895
641.000000	66.192259
640.000000	66.267284
639.000000	66.116934
638.000000	65.819611
637.000000	65.541410
636.000000	65.448627
635.000000	65.631692
634.000000	66.069599
633.000000	66.630782
632.000000	67.116699
631.000000	67.351733
630.000000	67.279172
629.000000	66.984121
628.000000	66.632013
627.000000	66.392730
626.000000	66.382797
625.000000	66.615245
624.000000	66.982075
623.000000	67.314217
622.000000	67.492449
621.000000	67.507058
620.000000	67.428687
619.000000	67.357607
618.000000	67.390952
617.000000	67.576887
616.000000	67.863395
615.000000	68.112734
614.000000	68.194214
613.000000	68.070297
612.000000	67.808204
611.000000	67.544757
610.000000	67.440106
609.000000	67.606235
608.000000	68.031780
607.000000	68.574475
606.000000	69.038853
605.000000	69.268845
604.000000	69.196923
603.000000	68.869036
602.000000	68.448417
601.000000	68.142702
600.000000	68.077684
599.000000	68.230273
598.000000	68.472910
597.000000	68.656771
596.000000	68.666548
595.000000	68.468246
594.000000	68.156569
593.000000	67.918086
592.000000	67.905528
591.000000	68.140124
590.000000	68.520860
589.000000	68.895023
588.000000	69.120995
587.000000	69.128707
586.000000	68.973008
585.000000	68.810143
584.000000	68.792816
583.000000	68.994588
582.000000	69.409706
581.000000	69.955004
580.000000	70.456329
579.000000	70.712564
578.000000	70.641510
577.000000	70.340077
576.000000	69.998543
575.000000	69.784201
574.000000	69.788678
573.000000	70.013784
572.000000	70.363997
571.000000	70.681175
570.000000	70.841461
569.000000	70.828036
568.000000	70.704223
567.000000	70.561192
566.000000	70.495388
565.000000	70.568796
564.000000	70.746162
563.000000	70.903873
562.000000	70.925839
561.000000	70.784090
560.000000	70.530687
559.000000	70.264140
558.000000	70.112765
557.000000	70.182870
556.000000	70.476209
555.000000	70.868137
554.000000	71.185879
553.000000	71.303836
552.000000	71.178655
551.000000	70.860605
550.000000	70.499516
549.000000	70.280485
548.000000	70.310819
547.000000	70.575216
546.000000	70.976552
545.000000	71.385861
544.000000	71.668957
543.000000	71.743275
542.000000	71.648436
541.000000	71.523905
540.000000	71.486807
539.000000	71.562355
538.000000	71.716530
537.000000	71.895307
536.000000	72.019007
535.000000	72.012679
534.000000	71.887356
533.000000	71.756021
532.000000	71.738683
531.000000	71.878837
530.000000	72.147447
529.000000	72.468876
528.000000	72.724621
527.000000	72.796340
526.000000	72.660435
525.000000	72.406152
524.000000	72.143554
523.000000	71.940426
522.000000	71.845765
521.000000	71.892623
520.000000	72.040865
519.000000	72.171199
518.000000	72.179724
517.000000	72.046815
516.000000	71.794718
515.000000	71.448135
514.000000	71.059947
513.000000	70.699274
512.000000	70.372046
511.000000	69.992134
510.000000	69.466479
509.000000	68.780181
508.000000	67.980970
507.000000	67.140863
506.000000	66.350148
505.000000	65.678445
504.000000	65.119748
503.000000	64.613526
502.000000	64.118727
501.000000	63.628755
500.000000	63.134490
499.000000	62.638604
498.000000	62.224781
497.000000	62.034556
496.000000	62.148633
495.000000	62.529803
494.000000	63.090610
493.000000	63.768208
492.000000	64.494554
491.000000	65.178451
490.000000	65.774299
489.000000	66.318730
488.000000	66.865217
487.000000	67.427838
486.000000	68.008385
485.000000	68.605955
484.000000	69.162844
483.000000	69.563390
482.000000	69.754042
481.000000	69.803673
480.000000	69.806938
479.000000	69.806355
478.000000	69.822705
477.000000	69.873665
476.000000	69.920177
475.000000	69.872316
474.000000	69.718834
473.000000	69.599911
472.000000	69.655861
471.000000	69.877759
470.000000	70.209855
469.000000	70.660387
468.000000	71.227162
467.000000	71.797128
466.000000	72.215622
465.000000	72.435724
464.000000	72.508493
463.000000	72.504273
462.000000	72.509768
461.000000	72.603881
460.000000	72.767045
459.000000	72.904239
458.000000	72.997619
457.000000	73.106152
456.000000	73.214396
455.000000	73.248706
454.000000	73.219825
453.000000	73.254611
452.000000	73.444441
451.000000	73.708239
450.000000	73.906289
449.000000	74.004294
448.000000	74.038844
447.000000	74.016856
446.000000	73.953110
445.000000	73.941462
444.000000	74.082560
443.000000	74.388445
442.000000	74.801607
441.000000	75.247920
440.000000	75.613866
439.000000	75.760762
438.000000	75.664079
437.000000	75.489806
436.000000	75.425849
435.000000	75.502033
434.000000	75.670162
433.000000	75.937042
432.000000	76.280052
431.000000	76.563454
430.000000	76.685331
429.000000	76.701084
428.000000	76.682045
427.000000	76.603808
426.000000	76.477772
425.000000	76.435597
424.000000	76.557080
423.000000	76.726563
422.000000	76.783364
421.000000	76.661887
420.000000	76.389642
419.000000	76.193538
418.000000	76.286451
417.000000	76.645567
416.000000	77.117138
415.000000	77.455440
414.000000	77.507129
413.000000	77.391689
412.000000	77.268998
411.000000	77.104820
410.000000	76.899811
409.000000	76.874419
408.000000	77.140244
407.000000	77.476804
406.000000	77.657515
405.000000	77.734086
404.000000	77.761895
403.000000	77.576978
402.000000	77.134366
401.000000	76.745669
400.000000	76.591772
