PE IR       SUBTECH     SPECTRUM    ASCII       PEDS        4.00        
   -1
23MS018_nitrito.asc
24/09/03
16:26:46.00
24/09/03
16:26:46.00
Administrator
Sample 1096 By Administrator Date Tuesday, September 03 2024
400.000000
#HDR
-1
-1
#GR
cm-1
%T
1.0
0.0
4000.000000
-1.000000
3601
8
71.150930
0.891409
#DATA
4000.000000	43.706118
3999.000000	43.767271
3998.000000	43.829382
3997.000000	43.891951
3996.000000	43.954571
3995.000000	44.017169
3994.000000	44.079821
3993.000000	44.142430
3992.000000	44.204542
3991.000000	44.265395
3990.000000	44.324285
3989.000000	44.381222
3988.000000	44.437393
3987.000000	44.494547
3986.000000	44.553551
3985.000000	44.613649
3984.000000	44.673422
3983.000000	44.732215
3982.000000	44.790383
3981.000000	44.848504
3980.000000	44.906803
3979.000000	44.965270
3978.000000	45.023941
3977.000000	45.082721
3976.000000	45.141012
3975.000000	45.197866
3974.000000	45.252759
3973.000000	45.306146
3972.000000	45.359149
3971.000000	45.412971
3970.000000	45.468233
3969.000000	45.524344
3968.000000	45.579682
3967.000000	45.632834
3966.000000	45.683685
3965.000000	45.733628
3964.000000	45.784566
3963.000000	45.837207
3962.000000	45.890463
3961.000000	45.942509
3960.000000	45.992481
3959.000000	46.041515
3958.000000	46.091671
3957.000000	46.143715
3956.000000	46.196501
3955.000000	46.248446
3954.000000	46.298995
3953.000000	46.348795
3952.000000	46.399188
3951.000000	46.451833
3950.000000	46.507408
3949.000000	46.563777
3948.000000	46.617452
3947.000000	46.667460
3946.000000	46.717218
3945.000000	46.772567
3944.000000	46.836946
3943.000000	46.906874
3942.000000	46.973478
3941.000000	47.030875
3940.000000	47.081447
3939.000000	47.132235
3938.000000	47.187388
3937.000000	47.245049
3936.000000	47.301391
3935.000000	47.356200
3934.000000	47.413678
3933.000000	47.476942
3932.000000	47.542992
3931.000000	47.604801
3930.000000	47.657871
3929.000000	47.704620
3928.000000	47.752068
3927.000000	47.806627
3926.000000	47.870153
3925.000000	47.938063
3924.000000	48.001259
3923.000000	48.053378
3922.000000	48.096503
3921.000000	48.138975
3920.000000	48.188279
3919.000000	48.245854
3918.000000	48.307975
3917.000000	48.370129
3916.000000	48.429203
3915.000000	48.484085
3914.000000	48.536553
3913.000000	48.591064
3912.000000	48.650112
3911.000000	48.711300
3910.000000	48.769631
3909.000000	48.822886
3908.000000	48.873683
3907.000000	48.925814
3906.000000	48.979756
3905.000000	49.031596
3904.000000	49.075430
3903.000000	49.109280
3902.000000	49.139415
3901.000000	49.176227
3900.000000	49.226270
3899.000000	49.286873
3898.000000	49.348730
3897.000000	49.406374
3896.000000	49.462019
3895.000000	49.522466
3894.000000	49.592608
3893.000000	49.670738
3892.000000	49.746459
3891.000000	49.807901
3890.000000	49.851735
3889.000000	49.884153
3888.000000	49.916459
3887.000000	49.962496
3886.000000	50.027724
3885.000000	50.098485
3884.000000	50.154785
3883.000000	50.194465
3882.000000	50.234498
3881.000000	50.289692
3880.000000	50.354470
3879.000000	50.412630
3878.000000	50.458455
3877.000000	50.499545
3876.000000	50.547741
3875.000000	50.609808
3874.000000	50.679220
3873.000000	50.740156
3872.000000	50.784015
3871.000000	50.819303
3870.000000	50.859485
3869.000000	50.904919
3868.000000	50.946304
3867.000000	50.981924
3866.000000	51.024475
3865.000000	51.087680
3864.000000	51.165496
3863.000000	51.238397
3862.000000	51.296959
3861.000000	51.347140
3860.000000	51.398370
3859.000000	51.457433
3858.000000	51.526181
3857.000000	51.598840
3856.000000	51.663238
3855.000000	51.712587
3854.000000	51.753859
3853.000000	51.791143
3852.000000	51.824265
3851.000000	51.861159
3850.000000	51.908653
3849.000000	51.968407
3848.000000	52.038005
3847.000000	52.112376
3846.000000	52.187463
3845.000000	52.260687
3844.000000	52.328679
3843.000000	52.390174
3842.000000	52.446319
3841.000000	52.499272
3840.000000	52.551187
3839.000000	52.602947
3838.000000	52.653290
3837.000000	52.702341
3836.000000	52.752798
3835.000000	52.807030
3834.000000	52.865441
3833.000000	52.928411
3832.000000	52.996627
3831.000000	53.068263
3830.000000	53.139204
3829.000000	53.207455
3828.000000	53.274403
3827.000000	53.342985
3826.000000	53.411834
3825.000000	53.473684
3824.000000	53.522067
3823.000000	53.563047
3822.000000	53.613514
3821.000000	53.678181
3820.000000	53.741373
3819.000000	53.791200
3818.000000	53.832907
3817.000000	53.882150
3816.000000	53.951716
3815.000000	54.036569
3814.000000	54.119714
3813.000000	54.191011
3812.000000	54.254137
3811.000000	54.317413
3810.000000	54.383326
3809.000000	54.447958
3808.000000	54.509210
3807.000000	54.569800
3806.000000	54.629811
3805.000000	54.683607
3804.000000	54.726879
3803.000000	54.767474
3802.000000	54.819797
3801.000000	54.885005
3800.000000	54.951054
3799.000000	55.012380
3798.000000	55.074680
3797.000000	55.145158
3796.000000	55.223819
3795.000000	55.303950
3794.000000	55.380633
3793.000000	55.455220
3792.000000	55.531851
3791.000000	55.611479
3790.000000	55.690237
3789.000000	55.763368
3788.000000	55.830097
3787.000000	55.893100
3786.000000	55.954621
3785.000000	56.014387
3784.000000	56.071383
3783.000000	56.126461
3782.000000	56.183263
3781.000000	56.247228
3780.000000	56.320210
3779.000000	56.395627
3778.000000	56.463537
3777.000000	56.520730
3776.000000	56.572280
3775.000000	56.626385
3774.000000	56.687132
3773.000000	56.751369
3772.000000	56.814063
3771.000000	56.875664
3770.000000	56.937990
3769.000000	56.997836
3768.000000	57.052552
3767.000000	57.106767
3766.000000	57.168299
3765.000000	57.238982
3764.000000	57.311730
3763.000000	57.377880
3762.000000	57.436397
3761.000000	57.496299
3760.000000	57.564820
3759.000000	57.636128
3758.000000	57.700735
3757.000000	57.759100
3756.000000	57.816103
3755.000000	57.871089
3754.000000	57.921142
3753.000000	57.968994
3752.000000	58.018998
3751.000000	58.065598
3750.000000	58.102871
3749.000000	58.143352
3748.000000	58.199792
3747.000000	58.265551
3746.000000	58.332273
3745.000000	58.407885
3744.000000	58.500606
3743.000000	58.602825
3742.000000	58.699880
3741.000000	58.783973
3740.000000	58.856833
3739.000000	58.922007
3738.000000	58.984170
3737.000000	59.055280
3736.000000	59.146767
3735.000000	59.247518
3734.000000	59.330510
3733.000000	59.388414
3732.000000	59.441260
3731.000000	59.510036
3730.000000	59.596566
3729.000000	59.688411
3728.000000	59.778052
3727.000000	59.868613
3726.000000	59.961014
3725.000000	60.046065
3724.000000	60.117298
3723.000000	60.181498
3722.000000	60.249005
3721.000000	60.323903
3720.000000	60.404403
3719.000000	60.486736
3718.000000	60.567859
3717.000000	60.645384
3716.000000	60.714540
3715.000000	60.769232
3714.000000	60.809569
3713.000000	60.846501
3712.000000	60.895308
3711.000000	60.960799
3710.000000	61.038207
3709.000000	61.122282
3708.000000	61.209272
3707.000000	61.297111
3706.000000	61.382487
3705.000000	61.462387
3704.000000	61.537469
3703.000000	61.614023
3702.000000	61.695517
3701.000000	61.777392
3700.000000	61.853509
3699.000000	61.922735
3698.000000	61.987595
3697.000000	62.051640
3696.000000	62.115255
3695.000000	62.173811
3694.000000	62.225054
3693.000000	62.274954
3692.000000	62.333375
3691.000000	62.400583
3690.000000	62.462901
3689.000000	62.506517
3688.000000	62.539137
3687.000000	62.583147
3686.000000	62.646078
3685.000000	62.718517
3684.000000	62.789875
3683.000000	62.855344
3682.000000	62.912872
3681.000000	62.962230
3680.000000	63.006037
3679.000000	63.042219
3678.000000	63.058557
3677.000000	63.051540
3676.000000	63.044937
3675.000000	63.063499
3674.000000	63.103395
3673.000000	63.141665
3672.000000	63.160013
3671.000000	63.169406
3670.000000	63.198358
3669.000000	63.252486
3668.000000	63.318017
3667.000000	63.385206
3666.000000	63.446984
3665.000000	63.498453
3664.000000	63.539157
3663.000000	63.571415
3662.000000	63.598139
3661.000000	63.619183
3660.000000	63.629950
3659.000000	63.622469
3658.000000	63.591898
3657.000000	63.545203
3656.000000	63.499832
3655.000000	63.469388
3654.000000	63.449709
3653.000000	63.422109
3652.000000	63.372017
3651.000000	63.302051
3650.000000	63.224256
3649.000000	63.146367
3648.000000	63.082085
3647.000000	63.048785
3646.000000	63.043992
3645.000000	63.047795
3644.000000	63.045282
3643.000000	63.034724
3642.000000	63.019517
3641.000000	62.998261
3640.000000	62.966218
3639.000000	62.923378
3638.000000	62.873043
3637.000000	62.814654
3636.000000	62.744771
3635.000000	62.667328
3634.000000	62.594233
3633.000000	62.529452
3632.000000	62.457245
3631.000000	62.353943
3630.000000	62.218186
3629.000000	62.081068
3628.000000	61.974458
3627.000000	61.909229
3626.000000	61.874740
3625.000000	61.850506
3624.000000	61.823513
3623.000000	61.788398
3622.000000	61.736197
3621.000000	61.656981
3620.000000	61.552699
3619.000000	61.439465
3618.000000	61.335572
3617.000000	61.250272
3616.000000	61.179000
3615.000000	61.111706
3614.000000	61.042149
3613.000000	60.967307
3612.000000	60.885046
3611.000000	60.794957
3610.000000	60.701245
3609.000000	60.615716
3608.000000	60.550731
3607.000000	60.507666
3606.000000	60.476457
3605.000000	60.444034
3604.000000	60.401592
3603.000000	60.346949
3602.000000	60.280257
3601.000000	60.202833
3600.000000	60.118522
3599.000000	60.031198
3598.000000	59.943245
3597.000000	59.855971
3596.000000	59.771459
3595.000000	59.691966
3594.000000	59.617253
3593.000000	59.543495
3592.000000	59.466757
3591.000000	59.382545
3590.000000	59.288706
3589.000000	59.192283
3588.000000	59.107244
3587.000000	59.038220
3586.000000	58.976940
3585.000000	58.915004
3584.000000	58.849527
3583.000000	58.780919
3582.000000	58.709436
3581.000000	58.634555
3580.000000	58.556801
3579.000000	58.477328
3578.000000	58.395542
3577.000000	58.308963
3576.000000	58.217335
3575.000000	58.123433
3574.000000	58.031241
3573.000000	57.943046
3572.000000	57.859059
3571.000000	57.774397
3570.000000	57.678510
3569.000000	57.564662
3568.000000	57.440479
3567.000000	57.321318
3566.000000	57.215325
3565.000000	57.123455
3564.000000	57.044115
3563.000000	56.973438
3562.000000	56.904542
3561.000000	56.829566
3560.000000	56.744250
3559.000000	56.649431
3558.000000	56.548242
3557.000000	56.443550
3556.000000	56.338485
3555.000000	56.235277
3554.000000	56.132878
3553.000000	56.027695
3552.000000	55.917813
3551.000000	55.804789
3550.000000	55.690782
3549.000000	55.577730
3548.000000	55.469467
3547.000000	55.369657
3546.000000	55.275910
3545.000000	55.180956
3544.000000	55.080569
3543.000000	54.975708
3542.000000	54.867937
3541.000000	54.758000
3540.000000	54.649032
3539.000000	54.545432
3538.000000	54.447754
3537.000000	54.351807
3536.000000	54.253969
3535.000000	54.155002
3534.000000	54.056926
3533.000000	53.959996
3532.000000	53.863312
3531.000000	53.766077
3530.000000	53.667099
3529.000000	53.566536
3528.000000	53.468841
3527.000000	53.380203
3526.000000	53.301635
3525.000000	53.227012
3524.000000	53.148683
3523.000000	53.062836
3522.000000	52.970592
3521.000000	52.876567
3520.000000	52.786473
3519.000000	52.703206
3518.000000	52.624537
3517.000000	52.545927
3516.000000	52.464623
3515.000000	52.379565
3514.000000	52.288570
3513.000000	52.189525
3512.000000	52.084563
3511.000000	51.979579
3510.000000	51.878522
3509.000000	51.781176
3508.000000	51.686070
3507.000000	51.592043
3506.000000	51.496602
3505.000000	51.396570
3504.000000	51.290887
3503.000000	51.180594
3502.000000	51.067235
3501.000000	50.953372
3500.000000	50.842946
3499.000000	50.737260
3498.000000	50.631747
3497.000000	50.519761
3496.000000	50.399301
3495.000000	50.273553
3494.000000	50.145775
3493.000000	50.016992
3492.000000	49.888203
3491.000000	49.760679
3490.000000	49.633503
3489.000000	49.504270
3488.000000	49.372389
3487.000000	49.238752
3486.000000	49.102971
3485.000000	48.964463
3484.000000	48.825750
3483.000000	48.690890
3482.000000	48.559632
3481.000000	48.426443
3480.000000	48.285832
3479.000000	48.136413
3478.000000	47.980213
3477.000000	47.821359
3476.000000	47.665255
3475.000000	47.515442
3474.000000	47.371245
3473.000000	47.230213
3472.000000	47.091408
3471.000000	46.953597
3470.000000	46.811710
3469.000000	46.659218
3468.000000	46.494244
3467.000000	46.320439
3466.000000	46.142646
3465.000000	45.964577
3464.000000	45.789537
3463.000000	45.619219
3462.000000	45.451239
3461.000000	45.281005
3460.000000	45.106252
3459.000000	44.927799
3458.000000	44.746971
3457.000000	44.564739
3456.000000	44.382443
3455.000000	44.200322
3454.000000	44.016036
3453.000000	43.827796
3452.000000	43.637812
3451.000000	43.449724
3450.000000	43.263300
3449.000000	43.074690
3448.000000	42.881190
3447.000000	42.682768
3446.000000	42.479870
3445.000000	42.272874
3444.000000	42.063220
3443.000000	41.852818
3442.000000	41.642847
3441.000000	41.434803
3440.000000	41.231033
3439.000000	41.031506
3438.000000	40.831009
3437.000000	40.622100
3436.000000	40.400597
3435.000000	40.166806
3434.000000	39.923383
3433.000000	39.674947
3432.000000	39.426961
3431.000000	39.181597
3430.000000	38.935285
3429.000000	38.682733
3428.000000	38.422624
3427.000000	38.156987
3426.000000	37.887631
3425.000000	37.615844
3424.000000	37.343344
3423.000000	37.070256
3422.000000	36.793195
3421.000000	36.508476
3420.000000	36.216135
3419.000000	35.918474
3418.000000	35.616803
3417.000000	35.312127
3416.000000	35.006771
3415.000000	34.701866
3414.000000	34.394462
3413.000000	34.080393
3412.000000	33.758242
3411.000000	33.428223
3410.000000	33.089282
3409.000000	32.740514
3408.000000	32.384409
3407.000000	32.025324
3406.000000	31.665947
3405.000000	31.307250
3404.000000	30.949558
3403.000000	30.590964
3402.000000	30.225932
3401.000000	29.848647
3400.000000	29.457380
3399.000000	29.054360
3398.000000	28.643614
3397.000000	28.230336
3396.000000	27.819340
3395.000000	27.411263
3394.000000	27.001332
3393.000000	26.583973
3392.000000	26.157369
3391.000000	25.722495
3390.000000	25.281246
3389.000000	24.836975
3388.000000	24.393775
3387.000000	23.952417
3386.000000	23.509152
3385.000000	23.060845
3384.000000	22.608446
3383.000000	22.154046
3382.000000	21.697718
3381.000000	21.239493
3380.000000	20.781385
3379.000000	20.324757
3378.000000	19.868215
3377.000000	19.410280
3376.000000	18.951677
3375.000000	18.493348
3374.000000	18.034984
3373.000000	17.577285
3372.000000	17.122845
3371.000000	16.672885
3370.000000	16.225843
3369.000000	15.780627
3368.000000	15.338240
3367.000000	14.898939
3366.000000	14.461375
3365.000000	14.025951
3364.000000	13.595747
3363.000000	13.172580
3362.000000	12.755414
3361.000000	12.344064
3360.000000	11.940582
3359.000000	11.545433
3358.000000	11.156117
3357.000000	10.771085
3356.000000	10.392121
3355.000000	10.020967
3354.000000	9.657406
3353.000000	9.301917
3352.000000	8.956426
3351.000000	8.621258
3350.000000	8.294407
3349.000000	7.974996
3348.000000	7.664454
3347.000000	7.362768
3346.000000	7.068005
3345.000000	6.780163
3344.000000	6.501757
3343.000000	6.233744
3342.000000	5.974145
3341.000000	5.722183
3340.000000	5.479746
3339.000000	5.247570
3338.000000	5.024117
3337.000000	4.808799
3336.000000	4.603031
3335.000000	4.406737
3334.000000	4.217469
3333.000000	4.034527
3332.000000	3.859768
3331.000000	3.693768
3330.000000	3.534573
3329.000000	3.380948
3328.000000	3.234028
3327.000000	3.094342
3326.000000	2.961073
3325.000000	2.834696
3324.000000	2.716578
3323.000000	2.605801
3322.000000	2.499548
3321.000000	2.397190
3320.000000	2.300726
3319.000000	2.210379
3318.000000	2.124217
3317.000000	2.041885
3316.000000	1.965010
3315.000000	1.893429
3314.000000	1.824601
3313.000000	1.757603
3312.000000	1.693949
3311.000000	1.633910
3310.000000	1.575966
3309.000000	1.520166
3308.000000	1.468641
3307.000000	1.422182
3306.000000	1.379685
3305.000000	1.341446
3304.000000	1.308885
3303.000000	1.280935
3302.000000	1.254192
3301.000000	1.226996
3300.000000	1.200188
3299.000000	1.173827
3298.000000	1.146987
3297.000000	1.120894
3296.000000	1.098214
3295.000000	1.079018
3294.000000	1.061029
3293.000000	1.044005
3292.000000	1.030092
3291.000000	1.019381
3290.000000	1.009328
3289.000000	0.998878
3288.000000	0.989485
3287.000000	0.981661
3286.000000	0.973978
3285.000000	0.966158
3284.000000	0.959481
3283.000000	0.953854
3282.000000	0.947838
3281.000000	0.941774
3280.000000	0.937564
3279.000000	0.935034
3278.000000	0.931988
3277.000000	0.928001
3276.000000	0.924666
3275.000000	0.922047
3274.000000	0.918439
3273.000000	0.914076
3272.000000	0.911496
3271.000000	0.911801
3270.000000	0.913795
3269.000000	0.916939
3268.000000	0.921809
3267.000000	0.927412
3266.000000	0.931429
3265.000000	0.933471
3264.000000	0.935234
3263.000000	0.937302
3262.000000	0.938872
3261.000000	0.940383
3260.000000	0.943115
3259.000000	0.946330
3258.000000	0.948095
3257.000000	0.948975
3256.000000	0.951537
3255.000000	0.956296
3254.000000	0.961253
3253.000000	0.965436
3252.000000	0.969543
3251.000000	0.973239
3250.000000	0.975302
3249.000000	0.976555
3248.000000	0.979428
3247.000000	0.984321
3246.000000	0.989429
3245.000000	0.994053
3244.000000	0.999148
3243.000000	1.004565
3242.000000	1.008976
3241.000000	1.012532
3240.000000	1.016684
3239.000000	1.021326
3238.000000	1.024932
3237.000000	1.027309
3236.000000	1.029586
3235.000000	1.031858
3234.000000	1.033681
3233.000000	1.036367
3232.000000	1.041689
3231.000000	1.048657
3230.000000	1.054572
3229.000000	1.058861
3228.000000	1.062937
3227.000000	1.066969
3226.000000	1.069882
3225.000000	1.072148
3224.000000	1.075300
3223.000000	1.079029
3222.000000	1.081729
3221.000000	1.083556
3220.000000	1.085951
3219.000000	1.088653
3218.000000	1.090206
3217.000000	1.090946
3216.000000	1.092375
3215.000000	1.094131
3214.000000	1.094588
3213.000000	1.094049
3212.000000	1.094215
3211.000000	1.095027
3210.000000	1.095014
3209.000000	1.094252
3208.000000	1.093908
3207.000000	1.093428
3206.000000	1.091264
3205.000000	1.087949
3204.000000	1.085398
3203.000000	1.083627
3202.000000	1.081109
3201.000000	1.077796
3200.000000	1.074854
3199.000000	1.071959
3198.000000	1.067893
3197.000000	1.063226
3196.000000	1.059442
3195.000000	1.055983
3194.000000	1.051141
3193.000000	1.045183
3192.000000	1.039732
3191.000000	1.034713
3190.000000	1.028970
3189.000000	1.023065
3188.000000	1.018410
3187.000000	1.014275
3186.000000	1.008823
3185.000000	1.002453
3184.000000	0.997008
3183.000000	0.992304
3182.000000	0.986618
3181.000000	0.980048
3180.000000	0.974233
3179.000000	0.969237
3178.000000	0.963713
3177.000000	0.957774
3176.000000	0.952715
3175.000000	0.948351
3174.000000	0.943485
3173.000000	0.938480
3172.000000	0.934581
3171.000000	0.931272
3170.000000	0.927110
3169.000000	0.922521
3168.000000	0.919053
3167.000000	0.916520
3166.000000	0.913675
3165.000000	0.910905
3164.000000	0.909401
3163.000000	0.908384
3162.000000	0.906071
3161.000000	0.902773
3160.000000	0.900280
3159.000000	0.898836
3158.000000	0.897358
3157.000000	0.895874
3156.000000	0.895058
3155.000000	0.894226
3154.000000	0.892538
3153.000000	0.891409
3152.000000	0.892899
3151.000000	0.896502
3150.000000	0.900108
3149.000000	0.903274
3148.000000	0.906908
3147.000000	0.910782
3146.000000	0.914134
3145.000000	0.917756
3144.000000	0.922645
3143.000000	0.927575
3142.000000	0.930785
3141.000000	0.933236
3140.000000	0.937400
3139.000000	0.943698
3138.000000	0.950829
3137.000000	0.958571
3136.000000	0.967432
3135.000000	0.976490
3134.000000	0.984395
3133.000000	0.991778
3132.000000	1.000078
3131.000000	1.008969
3130.000000	1.017539
3129.000000	1.026781
3128.000000	1.038146
3127.000000	1.050657
3126.000000	1.062214
3125.000000	1.072690
3124.000000	1.083142
3123.000000	1.093256
3122.000000	1.102479
3121.000000	1.112380
3120.000000	1.124870
3119.000000	1.139053
3118.000000	1.152855
3117.000000	1.166712
3116.000000	1.182645
3115.000000	1.200687
3114.000000	1.219141
3113.000000	1.237498
3112.000000	1.256152
3111.000000	1.274267
3110.000000	1.290871
3109.000000	1.307321
3108.000000	1.325826
3107.000000	1.346255
3106.000000	1.366957
3105.000000	1.387739
3104.000000	1.409306
3103.000000	1.430833
3102.000000	1.450993
3101.000000	1.470615
3100.000000	1.491664
3099.000000	1.514280
3098.000000	1.537421
3097.000000	1.561374
3096.000000	1.586906
3095.000000	1.612926
3094.000000	1.637694
3093.000000	1.661579
3092.000000	1.686123
3091.000000	1.711332
3090.000000	1.736436
3089.000000	1.762216
3088.000000	1.789920
3087.000000	1.818790
3086.000000	1.847270
3085.000000	1.875733
3084.000000	1.905472
3083.000000	1.935969
3082.000000	1.965870
3081.000000	1.995652
3080.000000	2.026873
3079.000000	2.059600
3078.000000	2.093055
3077.000000	2.127739
3076.000000	2.164327
3075.000000	2.201495
3074.000000	2.237412
3073.000000	2.272432
3072.000000	2.307924
3071.000000	2.343534
3070.000000	2.378249
3069.000000	2.413117
3068.000000	2.450147
3067.000000	2.489349
3066.000000	2.529286
3065.000000	2.569764
3064.000000	2.611478
3063.000000	2.653900
3062.000000	2.695942
3061.000000	2.737860
3060.000000	2.780272
3059.000000	2.822327
3058.000000	2.863139
3057.000000	2.904017
3056.000000	2.946804
3055.000000	2.990989
3054.000000	3.034835
3053.000000	3.078386
3052.000000	3.122994
3051.000000	3.168794
3050.000000	3.214910
3049.000000	3.261201
3048.000000	3.307616
3047.000000	3.352957
3046.000000	3.396578
3045.000000	3.440265
3044.000000	3.486231
3043.000000	3.534285
3042.000000	3.583132
3041.000000	3.633045
3040.000000	3.684682
3039.000000	3.736503
3038.000000	3.786093
3037.000000	3.833419
3036.000000	3.880547
3035.000000	3.928879
3034.000000	3.978713
3033.000000	4.030455
3032.000000	4.083992
3031.000000	4.137712
3030.000000	4.190223
3029.000000	4.242110
3028.000000	4.294258
3027.000000	4.345835
3026.000000	4.396054
3025.000000	4.446365
3024.000000	4.498483
3023.000000	4.551487
3022.000000	4.603367
3021.000000	4.654311
3020.000000	4.705989
3019.000000	4.758620
3018.000000	4.811147
3017.000000	4.863416
3016.000000	4.915902
3015.000000	4.968251
3014.000000	5.020316
3013.000000	5.073719
3012.000000	5.130129
3011.000000	5.188879
3010.000000	5.248148
3009.000000	5.307408
3008.000000	5.366694
3007.000000	5.424906
3006.000000	5.481147
3005.000000	5.536629
3004.000000	5.593024
3003.000000	5.649865
3002.000000	5.705719
3001.000000	5.760782
3000.000000	5.816231
2999.000000	5.872081
2998.000000	5.927814
2997.000000	5.983969
2996.000000	6.041025
2995.000000	6.097923
2994.000000	6.153942
2993.000000	6.210818
2992.000000	6.270594
2991.000000	6.332491
2990.000000	6.394180
2989.000000	6.455134
2988.000000	6.516252
2987.000000	6.577224
2986.000000	6.636767
2985.000000	6.694844
2984.000000	6.752404
2983.000000	6.809611
2982.000000	6.866431
2981.000000	6.924198
2980.000000	6.984403
2979.000000	7.046479
2978.000000	7.108711
2977.000000	7.170568
2976.000000	7.232414
2975.000000	7.293938
2974.000000	7.354926
2973.000000	7.416535
2972.000000	7.479745
2971.000000	7.543445
2970.000000	7.606080
2969.000000	7.668153
2968.000000	7.731012
2967.000000	7.794261
2966.000000	7.856605
2965.000000	7.918296
2964.000000	7.980404
2963.000000	8.042621
2962.000000	8.104094
2961.000000	8.165502
2960.000000	8.227944
2959.000000	8.290666
2958.000000	8.352089
2957.000000	8.412208
2956.000000	8.471833
2955.000000	8.530632
2954.000000	8.588253
2953.000000	8.646213
2952.000000	8.706190
2951.000000	8.767273
2950.000000	8.827340
2949.000000	8.886197
2948.000000	8.945146
2947.000000	9.004384
2946.000000	9.063296
2945.000000	9.122523
2944.000000	9.183333
2943.000000	9.245437
2942.000000	9.307529
2941.000000	9.369358
2940.000000	9.431203
2939.000000	9.492161
2938.000000	9.551142
2937.000000	9.608899
2936.000000	9.666966
2935.000000	9.725283
2934.000000	9.782984
2933.000000	9.840629
2932.000000	9.899363
2931.000000	9.958587
2930.000000	10.016735
2929.000000	10.073746
2928.000000	10.130592
2927.000000	10.187177
2926.000000	10.242945
2925.000000	10.298789
2924.000000	10.356056
2923.000000	10.414295
2922.000000	10.472164
2921.000000	10.529680
2920.000000	10.587561
2919.000000	10.645334
2918.000000	10.702292
2917.000000	10.759354
2916.000000	10.817674
2915.000000	10.876220
2914.000000	10.932832
2913.000000	10.987007
2912.000000	11.039662
2911.000000	11.091046
2910.000000	11.141008
2909.000000	11.190665
2908.000000	11.241620
2907.000000	11.293893
2906.000000	11.346264
2905.000000	11.398094
2904.000000	11.449198
2903.000000	11.498759
2902.000000	11.546219
2901.000000	11.592749
2900.000000	11.639811
2899.000000	11.687327
2898.000000	11.734468
2897.000000	11.781354
2896.000000	11.828206
2895.000000	11.873768
2894.000000	11.916635
2893.000000	11.957465
2892.000000	11.998038
2891.000000	12.038836
2890.000000	12.079283
2889.000000	12.119559
2888.000000	12.160164
2887.000000	12.200254
2886.000000	12.238226
2885.000000	12.273517
2884.000000	12.306280
2883.000000	12.336162
2882.000000	12.363154
2881.000000	12.388841
2880.000000	12.414871
2879.000000	12.440816
2878.000000	12.465378
2877.000000	12.488923
2876.000000	12.512923
2875.000000	12.537514
2874.000000	12.561907
2873.000000	12.586749
2872.000000	12.614078
2871.000000	12.645176
2870.000000	12.680240
2869.000000	12.719794
2868.000000	12.764451
2867.000000	12.813557
2866.000000	12.865910
2865.000000	12.921628
2864.000000	12.981823
2863.000000	13.046731
2862.000000	13.115566
2861.000000	13.187553
2860.000000	13.261585
2859.000000	13.335537
2858.000000	13.407803
2857.000000	13.479119
2856.000000	13.551319
2855.000000	13.624846
2854.000000	13.698882
2853.000000	13.773032
2852.000000	13.847078
2851.000000	13.919691
2850.000000	13.989304
2849.000000	14.055924
2848.000000	14.120653
2847.000000	14.184057
2846.000000	14.246545
2845.000000	14.309480
2844.000000	14.373998
2843.000000	14.439100
2842.000000	14.502578
2841.000000	14.563468
2840.000000	14.622158
2839.000000	14.678859
2838.000000	14.733724
2837.000000	14.788057
2836.000000	14.843464
2835.000000	14.899859
2834.000000	14.955696
2833.000000	15.009949
2832.000000	15.062552
2831.000000	15.113434
2830.000000	15.162744
2829.000000	15.211772
2828.000000	15.262043
2827.000000	15.313553
2826.000000	15.365066
2825.000000	15.415782
2824.000000	15.465471
2823.000000	15.513587
2822.000000	15.559855
2821.000000	15.605479
2820.000000	15.652258
2819.000000	15.700695
2818.000000	15.750078
2817.000000	15.799869
2816.000000	15.849506
2815.000000	15.897478
2814.000000	15.942474
2813.000000	15.985452
2812.000000	16.029037
2811.000000	16.074938
2810.000000	16.123066
2809.000000	16.172719
2808.000000	16.223001
2807.000000	16.272378
2806.000000	16.319469
2805.000000	16.364461
2804.000000	16.408590
2803.000000	16.452553
2802.000000	16.496635
2801.000000	16.541811
2800.000000	16.588982
2799.000000	16.637220
2798.000000	16.684274
2797.000000	16.728888
2796.000000	16.771458
2795.000000	16.812781
2794.000000	16.853656
2793.000000	16.895456
2792.000000	16.939357
2791.000000	16.984707
2790.000000	17.029368
2789.000000	17.071790
2788.000000	17.111817
2787.000000	17.149879
2786.000000	17.186816
2785.000000	17.224327
2784.000000	17.264056
2783.000000	17.305952
2782.000000	17.348420
2781.000000	17.389884
2780.000000	17.429221
2779.000000	17.465342
2778.000000	17.498059
2777.000000	17.529323
2776.000000	17.562134
2775.000000	17.597968
2774.000000	17.636154
2773.000000	17.675320
2772.000000	17.714108
2771.000000	17.750836
2770.000000	17.784295
2769.000000	17.815228
2768.000000	17.845911
2767.000000	17.878056
2766.000000	17.911932
2765.000000	17.947098
2764.000000	17.982655
2763.000000	18.016942
2762.000000	18.048491
2761.000000	18.077551
2760.000000	18.105813
2759.000000	18.134731
2758.000000	18.165005
2757.000000	18.197106
2756.000000	18.230827
2755.000000	18.264418
2754.000000	18.295556
2753.000000	18.323402
2752.000000	18.348846
2751.000000	18.373138
2750.000000	18.397499
2749.000000	18.423585
2748.000000	18.452608
2747.000000	18.483792
2746.000000	18.514837
2745.000000	18.543951
2744.000000	18.570546
2743.000000	18.594584
2742.000000	18.616790
2741.000000	18.639279
2740.000000	18.664263
2739.000000	18.691857
2738.000000	18.720238
2737.000000	18.747801
2736.000000	18.773920
2735.000000	18.798031
2734.000000	18.819783
2733.000000	18.840335
2732.000000	18.861950
2731.000000	18.885834
2730.000000	18.911307
2729.000000	18.937021
2728.000000	18.961779
2727.000000	18.984306
2726.000000	19.003836
2725.000000	19.021429
2724.000000	19.039555
2723.000000	19.060022
2722.000000	19.083026
2721.000000	19.107970
2720.000000	19.133846
2719.000000	19.158822
2718.000000	19.180945
2717.000000	19.199876
2716.000000	19.217166
2715.000000	19.234743
2714.000000	19.253872
2713.000000	19.275224
2712.000000	19.298548
2711.000000	19.322015
2710.000000	19.343091
2709.000000	19.360413
2708.000000	19.374319
2707.000000	19.385955
2706.000000	19.396822
2705.000000	19.408803
2704.000000	19.422979
2703.000000	19.438161
2702.000000	19.451642
2701.000000	19.461488
2700.000000	19.467463
2699.000000	19.470206
2698.000000	19.470904
2697.000000	19.471641
2696.000000	19.474340
2695.000000	19.479005
2694.000000	19.483801
2693.000000	19.486846
2692.000000	19.487092
2691.000000	19.483878
2690.000000	19.477275
2689.000000	19.469055
2688.000000	19.461958
2687.000000	19.457585
2686.000000	19.455611
2685.000000	19.454799
2684.000000	19.453642
2683.000000	19.450276
2682.000000	19.443396
2681.000000	19.433695
2680.000000	19.423540
2679.000000	19.415109
2678.000000	19.409445
2677.000000	19.406726
2676.000000	19.406108
2675.000000	19.405524
2674.000000	19.403097
2673.000000	19.399174
2672.000000	19.396143
2671.000000	19.396618
2670.000000	19.402607
2669.000000	19.415620
2668.000000	19.436032
2667.000000	19.462050
2666.000000	19.490840
2665.000000	19.520932
2664.000000	19.552640
2663.000000	19.586967
2662.000000	19.625115
2661.000000	19.668801
2660.000000	19.719211
2659.000000	19.775025
2658.000000	19.832825
2657.000000	19.889586
2656.000000	19.944041
2655.000000	19.996073
2654.000000	20.046247
2653.000000	20.096236
2652.000000	20.148166
2651.000000	20.202695
2650.000000	20.258285
2649.000000	20.312484
2648.000000	20.363298
2647.000000	20.409714
2646.000000	20.452137
2645.000000	20.492462
2644.000000	20.532802
2643.000000	20.573768
2642.000000	20.614525
2641.000000	20.654134
2640.000000	20.691681
2639.000000	20.725734
2638.000000	20.755159
2637.000000	20.780812
2636.000000	20.805331
2635.000000	20.830855
2634.000000	20.857866
2633.000000	20.885836
2632.000000	20.913620
2631.000000	20.939178
2630.000000	20.960319
2629.000000	20.976586
2628.000000	20.989709
2627.000000	21.002048
2626.000000	21.015311
2625.000000	21.030383
2624.000000	21.047095
2623.000000	21.063802
2622.000000	21.078197
2621.000000	21.089074
2620.000000	21.096780
2619.000000	21.102411
2618.000000	21.107514
2617.000000	21.114127
2616.000000	21.123543
2615.000000	21.134650
2614.000000	21.144555
2613.000000	21.151083
2612.000000	21.153910
2611.000000	21.153740
2610.000000	21.151614
2609.000000	21.148995
2608.000000	21.147071
2607.000000	21.145348
2606.000000	21.141895
2605.000000	21.134796
2604.000000	21.122722
2603.000000	21.104728
2602.000000	21.080925
2601.000000	21.053667
2600.000000	21.026523
2599.000000	21.001721
2598.000000	20.979424
2597.000000	20.959075
2596.000000	20.940229
2595.000000	20.922343
2594.000000	20.905511
2593.000000	20.891727
2592.000000	20.884510
2591.000000	20.886738
2590.000000	20.899804
2589.000000	20.924469
2588.000000	20.960446
2587.000000	21.005707
2586.000000	21.057216
2585.000000	21.113200
2584.000000	21.174091
2583.000000	21.240752
2582.000000	21.313580
2581.000000	21.392626
2580.000000	21.477217
2579.000000	21.565114
2578.000000	21.652906
2577.000000	21.738291
2576.000000	21.821192
2575.000000	21.902881
2574.000000	21.985097
2573.000000	22.069773
2572.000000	22.158124
2571.000000	22.249191
2570.000000	22.340083
2569.000000	22.428126
2568.000000	22.512254
2567.000000	22.592574
2566.000000	22.669942
2565.000000	22.746300
2564.000000	22.823937
2563.000000	22.903616
2562.000000	22.983933
2561.000000	23.062800
2560.000000	23.138820
2559.000000	23.211123
2558.000000	23.279431
2557.000000	23.344836
2556.000000	23.409491
2555.000000	23.474854
2554.000000	23.540623
2553.000000	23.605644
2552.000000	23.668726
2551.000000	23.728397
2550.000000	23.783437
2549.000000	23.834353
2548.000000	23.883546
2547.000000	23.933247
2546.000000	23.983811
2545.000000	24.034330
2544.000000	24.083295
2543.000000	24.128356
2542.000000	24.166770
2541.000000	24.197246
2540.000000	24.221144
2539.000000	24.240887
2538.000000	24.258064
2537.000000	24.273146
2536.000000	24.285444
2535.000000	24.292926
2534.000000	24.292413
2533.000000	24.281353
2532.000000	24.259278
2531.000000	24.227130
2530.000000	24.186794
2529.000000	24.141009
2528.000000	24.092764
2527.000000	24.044070
2526.000000	23.995653
2525.000000	23.948496
2524.000000	23.904492
2523.000000	23.865711
2522.000000	23.834074
2521.000000	23.812362
2520.000000	23.803627
2519.000000	23.809228
2518.000000	23.828248
2517.000000	23.858589
2516.000000	23.898521
2515.000000	23.946161
2514.000000	23.999605
2513.000000	24.058351
2512.000000	24.123049
2511.000000	24.193947
2510.000000	24.269615
2509.000000	24.347759
2508.000000	24.426261
2507.000000	24.502817
2506.000000	24.575174
2505.000000	24.642478
2504.000000	24.705868
2503.000000	24.767083
2502.000000	24.827258
2501.000000	24.886949
2500.000000	24.946119
2499.000000	25.003510
2498.000000	25.057047
2497.000000	25.105880
2496.000000	25.150950
2495.000000	25.193412
2494.000000	25.233678
2493.000000	25.272246
2492.000000	25.310150
2491.000000	25.347461
2490.000000	25.382644
2489.000000	25.414424
2488.000000	25.443161
2487.000000	25.469987
2486.000000	25.495612
2485.000000	25.520820
2484.000000	25.546835
2483.000000	25.573927
2482.000000	25.600684
2481.000000	25.625395
2480.000000	25.647383
2479.000000	25.666526
2478.000000	25.682790
2477.000000	25.697301
2476.000000	25.712570
2475.000000	25.730373
2474.000000	25.750179
2473.000000	25.770317
2472.000000	25.789668
2471.000000	25.807492
2470.000000	25.822927
2469.000000	25.836029
2468.000000	25.848420
2467.000000	25.861825
2466.000000	25.876579
2465.000000	25.892183
2464.000000	25.908348
2463.000000	25.924616
2462.000000	25.940095
2461.000000	25.954533
2460.000000	25.968850
2459.000000	25.983783
2458.000000	25.998986
2457.000000	26.014116
2456.000000	26.029671
2455.000000	26.045807
2454.000000	26.061486
2453.000000	26.075845
2452.000000	26.089465
2451.000000	26.103408
2450.000000	26.118040
2449.000000	26.133684
2448.000000	26.151239
2447.000000	26.170900
2446.000000	26.191125
2445.000000	26.210013
2444.000000	26.227023
2443.000000	26.242646
2442.000000	26.257415
2441.000000	26.272154
2440.000000	26.288201
2439.000000	26.306253
2438.000000	26.325698
2437.000000	26.345823
2436.000000	26.366696
2435.000000	26.388108
2434.000000	26.408803
2433.000000	26.427863
2432.000000	26.445973
2431.000000	26.464309
2430.000000	26.483096
2429.000000	26.502127
2428.000000	26.521734
2427.000000	26.542266
2426.000000	26.563407
2425.000000	26.584888
2424.000000	26.607010
2423.000000	26.629762
2422.000000	26.652469
2421.000000	26.675001
2420.000000	26.698198
2419.000000	26.722242
2418.000000	26.745809
2417.000000	26.767794
2416.000000	26.788740
2415.000000	26.809680
2414.000000	26.830806
2413.000000	26.852293
2412.000000	26.875166
2411.000000	26.900076
2410.000000	26.926216
2409.000000	26.952455
2408.000000	26.978506
2407.000000	27.004081
2406.000000	27.028194
2405.000000	27.050511
2404.000000	27.072340
2403.000000	27.095148
2402.000000	27.119185
2401.000000	27.144453
2400.000000	27.171674
2399.000000	27.201060
2398.000000	27.231254
2397.000000	27.260803
2396.000000	27.289720
2395.000000	27.318652
2394.000000	27.347785
2393.000000	27.377630
2392.000000	27.409486
2391.000000	27.443815
2390.000000	27.479313
2389.000000	27.514717
2388.000000	27.550529
2387.000000	27.587784
2386.000000	27.626702
2385.000000	27.667971
2384.000000	27.713315
2383.000000	27.763788
2382.000000	27.818100
2381.000000	27.874528
2380.000000	27.933446
2379.000000	27.995678
2378.000000	28.060558
2377.000000	28.127020
2376.000000	28.195607
2375.000000	28.266860
2374.000000	28.339318
2373.000000	28.410151
2372.000000	28.478086
2371.000000	28.542953
2370.000000	28.603633
2369.000000	28.659641
2368.000000	28.714105
2367.000000	28.770858
2366.000000	28.829986
2365.000000	28.890166
2364.000000	28.954964
2363.000000	29.023619
2362.000000	29.090653
2361.000000	29.155367
2360.000000	29.217501
2359.000000	29.280557
2358.000000	29.344925
2357.000000	29.406869
2356.000000	29.470383
2355.000000	29.531231
2354.000000	29.586627
2353.000000	29.635710
2352.000000	29.692689
2351.000000	29.770190
2350.000000	29.852690
2349.000000	29.922686
2348.000000	29.975525
2347.000000	30.029722
2346.000000	30.104856
2345.000000	30.191874
2344.000000	30.276320
2343.000000	30.337794
2342.000000	30.384846
2341.000000	30.429327
2340.000000	30.477768
2339.000000	30.533689
2338.000000	30.593889
2337.000000	30.659593
2336.000000	30.726497
2335.000000	30.795869
2334.000000	30.860483
2333.000000	30.922679
2332.000000	30.979193
2331.000000	31.043271
2330.000000	31.106249
2329.000000	31.176744
2328.000000	31.245238
2327.000000	31.314952
2326.000000	31.380344
2325.000000	31.440003
2324.000000	31.499818
2323.000000	31.560862
2322.000000	31.624982
2321.000000	31.689213
2320.000000	31.752079
2319.000000	31.816247
2318.000000	31.875662
2317.000000	31.932241
2316.000000	31.980808
2315.000000	32.031425
2314.000000	32.081333
2313.000000	32.138428
2312.000000	32.197329
2311.000000	32.263211
2310.000000	32.327352
2309.000000	32.389989
2308.000000	32.445266
2307.000000	32.498379
2306.000000	32.548335
2305.000000	32.600349
2304.000000	32.655075
2303.000000	32.717387
2302.000000	32.782741
2301.000000	32.849419
2300.000000	32.911710
2299.000000	32.971634
2298.000000	33.026821
2297.000000	33.080585
2296.000000	33.134516
2295.000000	33.193869
2294.000000	33.257418
2293.000000	33.322244
2292.000000	33.384454
2291.000000	33.442538
2290.000000	33.495509
2289.000000	33.543776
2288.000000	33.591514
2287.000000	33.643374
2286.000000	33.701347
2285.000000	33.762899
2284.000000	33.825403
2283.000000	33.885691
2282.000000	33.940574
2281.000000	33.987882
2280.000000	34.030278
2279.000000	34.073163
2278.000000	34.120354
2277.000000	34.172802
2276.000000	34.229873
2275.000000	34.289699
2274.000000	34.347141
2273.000000	34.397194
2272.000000	34.438980
2271.000000	34.476090
2270.000000	34.512386
2269.000000	34.550712
2268.000000	34.593622
2267.000000	34.641716
2266.000000	34.690897
2265.000000	34.735238
2264.000000	34.772160
2263.000000	34.803336
2262.000000	34.831462
2261.000000	34.858852
2260.000000	34.889288
2259.000000	34.925238
2258.000000	34.964654
2257.000000	35.001571
2256.000000	35.031396
2255.000000	35.053049
2254.000000	35.067297
2253.000000	35.077200
2252.000000	35.088142
2251.000000	35.105126
2250.000000	35.127635
2249.000000	35.150945
2248.000000	35.170594
2247.000000	35.183527
2246.000000	35.187058
2245.000000	35.180725
2244.000000	35.169086
2243.000000	35.159062
2242.000000	35.154067
2241.000000	35.152888
2240.000000	35.152849
2239.000000	35.150671
2238.000000	35.141604
2237.000000	35.122101
2236.000000	35.094098
2235.000000	35.063586
2234.000000	35.035283
2233.000000	35.010919
2232.000000	34.990889
2231.000000	34.973641
2230.000000	34.953905
2229.000000	34.925894
2228.000000	34.888835
2227.000000	34.847209
2226.000000	34.806215
2225.000000	34.769719
2224.000000	34.740724
2223.000000	34.719502
2222.000000	34.701083
2221.000000	34.678289
2220.000000	34.647749
2219.000000	34.611140
2218.000000	34.571851
2217.000000	34.533876
2216.000000	34.502542
2215.000000	34.481712
2214.000000	34.469548
2213.000000	34.459874
2212.000000	34.447631
2211.000000	34.430992
2210.000000	34.409779
2209.000000	34.386055
2208.000000	34.365550
2207.000000	34.354488
2206.000000	34.353958
2205.000000	34.359733
2204.000000	34.366751
2203.000000	34.371304
2202.000000	34.370483
2201.000000	34.364049
2200.000000	34.356962
2199.000000	34.356569
2198.000000	34.366603
2197.000000	34.385796
2196.000000	34.410820
2195.000000	34.437235
2194.000000	34.458856
2193.000000	34.471094
2192.000000	34.475872
2191.000000	34.480396
2190.000000	34.490919
2189.000000	34.509735
2188.000000	34.536381
2187.000000	34.567678
2186.000000	34.596926
2185.000000	34.617403
2184.000000	34.627694
2183.000000	34.631611
2182.000000	34.633719
2181.000000	34.637771
2180.000000	34.647661
2179.000000	34.664932
2178.000000	34.685113
2177.000000	34.700267
2176.000000	34.705981
2175.000000	34.703616
2174.000000	34.696972
2173.000000	34.690491
2172.000000	34.689665
2171.000000	34.698157
2170.000000	34.713600
2169.000000	34.728907
2168.000000	34.738174
2167.000000	34.739347
2166.000000	34.732987
2165.000000	34.722459
2164.000000	34.714768
2163.000000	34.716794
2162.000000	34.729727
2161.000000	34.749178
2160.000000	34.769693
2159.000000	34.786485
2158.000000	34.794944
2157.000000	34.793594
2156.000000	34.787728
2155.000000	34.786031
2154.000000	34.793205
2153.000000	34.808253
2152.000000	34.828227
2151.000000	34.849318
2150.000000	34.865677
2149.000000	34.872364
2148.000000	34.870727
2147.000000	34.867615
2146.000000	34.868871
2145.000000	34.876367
2144.000000	34.890261
2143.000000	34.908556
2142.000000	34.924870
2141.000000	34.931704
2140.000000	34.927727
2139.000000	34.918708
2138.000000	34.911570
2137.000000	34.910715
2136.000000	34.918953
2135.000000	34.936530
2134.000000	34.958252
2133.000000	34.975700
2132.000000	34.983639
2131.000000	34.982448
2130.000000	34.975304
2129.000000	34.966938
2128.000000	34.964235
2127.000000	34.972975
2126.000000	34.992356
2125.000000	35.015399
2124.000000	35.035310
2123.000000	35.048809
2122.000000	35.054608
2121.000000	35.053682
2120.000000	35.051690
2119.000000	35.056688
2118.000000	35.072665
2117.000000	35.097265
2116.000000	35.125375
2115.000000	35.152169
2114.000000	35.173742
2113.000000	35.189474
2112.000000	35.204540
2111.000000	35.226814
2110.000000	35.260655
2109.000000	35.305663
2108.000000	35.359474
2107.000000	35.417952
2106.000000	35.474251
2105.000000	35.523082
2104.000000	35.566418
2103.000000	35.612518
2102.000000	35.668464
2101.000000	35.737482
2100.000000	35.820304
2099.000000	35.914119
2098.000000	36.011268
2097.000000	36.102256
2096.000000	36.182212
2095.000000	36.252766
2094.000000	36.319141
2093.000000	36.388433
2092.000000	36.468084
2091.000000	36.560535
2090.000000	36.659180
2089.000000	36.753436
2088.000000	36.837388
2087.000000	36.910760
2086.000000	36.974307
2085.000000	37.030176
2084.000000	37.084484
2083.000000	37.143383
2082.000000	37.205427
2081.000000	37.262782
2080.000000	37.308949
2079.000000	37.341232
2078.000000	37.359710
2077.000000	37.367119
2076.000000	37.371436
2075.000000	37.381274
2074.000000	37.397517
2073.000000	37.415837
2072.000000	37.431593
2071.000000	37.438615
2070.000000	37.428224
2069.000000	37.398813
2068.000000	37.364013
2067.000000	37.342422
2066.000000	37.339964
2065.000000	37.349737
2064.000000	37.365986
2063.000000	37.388261
2062.000000	37.413157
2061.000000	37.432563
2060.000000	37.443589
2059.000000	37.452925
2058.000000	37.469038
2057.000000	37.495569
2056.000000	37.534198
2055.000000	37.585661
2054.000000	37.644797
2053.000000	37.703243
2052.000000	37.758168
2051.000000	37.813153
2050.000000	37.872129
2049.000000	37.938989
2048.000000	38.018595
2047.000000	38.111907
2046.000000	38.212035
2045.000000	38.311202
2044.000000	38.409983
2043.000000	38.513570
2042.000000	38.622318
2041.000000	38.734325
2040.000000	38.854535
2039.000000	38.991604
2038.000000	39.145905
2037.000000	39.307941
2036.000000	39.468660
2035.000000	39.624714
2034.000000	39.774473
2033.000000	39.917072
2032.000000	40.058997
2031.000000	40.211125
2030.000000	40.378297
2029.000000	40.556544
2028.000000	40.739572
2027.000000	40.923276
2026.000000	41.100438
2025.000000	41.266777
2024.000000	41.425429
2023.000000	41.580860
2022.000000	41.731827
2021.000000	41.879201
2020.000000	42.035474
2019.000000	42.212521
2018.000000	42.401394
2017.000000	42.578972
2016.000000	42.735389
2015.000000	42.881327
2014.000000	43.029507
2013.000000	43.182064
2012.000000	43.337383
2011.000000	43.495225
2010.000000	43.651291
2009.000000	43.795572
2008.000000	43.922417
2007.000000	44.038001
2006.000000	44.148322
2005.000000	44.257666
2004.000000	44.370591
2003.000000	44.492846
2002.000000	44.623914
2001.000000	44.750514
2000.000000	44.868158
1999.000000	44.980440
1998.000000	45.078791
1997.000000	45.145118
1996.000000	45.186293
1995.000000	45.241525
1994.000000	45.339965
1993.000000	45.463370
1992.000000	45.573678
1991.000000	45.661315
1990.000000	45.742987
1989.000000	45.829620
1988.000000	45.916848
1987.000000	46.001324
1986.000000	46.086578
1985.000000	46.174721
1984.000000	46.260493
1983.000000	46.338696
1982.000000	46.408182
1981.000000	46.464382
1980.000000	46.511579
1979.000000	46.562306
1978.000000	46.625054
1977.000000	46.695442
1976.000000	46.768605
1975.000000	46.845606
1974.000000	46.920729
1973.000000	46.974263
1972.000000	46.991717
1971.000000	46.985146
1970.000000	46.987930
1969.000000	47.028472
1968.000000	47.107040
1967.000000	47.199095
1966.000000	47.278846
1965.000000	47.337836
1964.000000	47.384615
1963.000000	47.430018
1962.000000	47.473610
1961.000000	47.510561
1960.000000	47.544359
1959.000000	47.583060
1958.000000	47.629242
1957.000000	47.677621
1956.000000	47.723655
1955.000000	47.764787
1954.000000	47.796941
1953.000000	47.824125
1952.000000	47.848839
1951.000000	47.872659
1950.000000	47.901330
1949.000000	47.936186
1948.000000	47.963037
1947.000000	47.960740
1946.000000	47.933554
1945.000000	47.925503
1944.000000	47.973166
1943.000000	48.054562
1942.000000	48.119925
1941.000000	48.155893
1940.000000	48.188195
1939.000000	48.234370
1938.000000	48.276818
1937.000000	48.293345
1936.000000	48.294287
1935.000000	48.301764
1934.000000	48.317311
1933.000000	48.337759
1932.000000	48.357546
1931.000000	48.380442
1930.000000	48.407767
1929.000000	48.421736
1928.000000	48.403066
1927.000000	48.337721
1926.000000	48.266986
1925.000000	48.259225
1924.000000	48.327316
1923.000000	48.407733
1922.000000	48.442086
1921.000000	48.444140
1920.000000	48.470245
1919.000000	48.512033
1918.000000	48.505994
1917.000000	48.442080
1916.000000	48.378220
1915.000000	48.349515
1914.000000	48.330041
1913.000000	48.291327
1912.000000	48.247357
1911.000000	48.232901
1910.000000	48.243410
1909.000000	48.244546
1908.000000	48.235831
1907.000000	48.226591
1906.000000	48.225350
1905.000000	48.226989
1904.000000	48.222154
1903.000000	48.215276
1902.000000	48.209356
1901.000000	48.191392
1900.000000	48.156958
1899.000000	48.109237
1898.000000	48.072082
1897.000000	48.076478
1896.000000	48.121276
1895.000000	48.159641
1894.000000	48.143294
1893.000000	48.081483
1892.000000	48.045901
1891.000000	48.083580
1890.000000	48.148295
1889.000000	48.174627
1888.000000	48.167665
1887.000000	48.174465
1886.000000	48.211579
1885.000000	48.252598
1884.000000	48.270249
1883.000000	48.273549
1882.000000	48.278370
1881.000000	48.279486
1880.000000	48.280213
1879.000000	48.289577
1878.000000	48.301179
1877.000000	48.311691
1876.000000	48.330009
1875.000000	48.352956
1874.000000	48.347508
1873.000000	48.276555
1872.000000	48.159099
1871.000000	48.076562
1870.000000	48.071290
1869.000000	48.094464
1868.000000	48.105331
1867.000000	48.116646
1866.000000	48.137204
1865.000000	48.151425
1864.000000	48.149390
1863.000000	48.140686
1862.000000	48.133726
1861.000000	48.123618
1860.000000	48.109472
1859.000000	48.098879
1858.000000	48.087489
1857.000000	48.062007
1856.000000	48.024226
1855.000000	47.993036
1854.000000	47.977537
1853.000000	47.937499
1852.000000	47.872503
1851.000000	47.828686
1850.000000	47.836325
1849.000000	47.868287
1848.000000	47.887985
1847.000000	47.913305
1846.000000	47.972865
1845.000000	47.984801
1844.000000	47.849377
1843.000000	47.636869
1842.000000	47.466003
1841.000000	47.369698
1840.000000	47.327212
1839.000000	47.300012
1838.000000	47.279329
1837.000000	47.269546
1836.000000	47.257230
1835.000000	47.209439
1834.000000	47.089270
1833.000000	46.909785
1832.000000	46.797299
1831.000000	46.805296
1830.000000	46.806019
1829.000000	46.704095
1828.000000	46.564774
1827.000000	46.503177
1826.000000	46.514523
1825.000000	46.493061
1824.000000	46.410395
1823.000000	46.330943
1822.000000	46.279612
1821.000000	46.221120
1820.000000	46.141693
1819.000000	46.057416
1818.000000	45.983808
1817.000000	45.902338
1816.000000	45.789877
1815.000000	45.659846
1814.000000	45.529255
1813.000000	45.430210
1812.000000	45.376209
1811.000000	45.337285
1810.000000	45.284861
1809.000000	45.216283
1808.000000	45.145782
1807.000000	45.079314
1806.000000	45.002974
1805.000000	44.897879
1804.000000	44.766596
1803.000000	44.660009
1802.000000	44.587884
1801.000000	44.525650
1800.000000	44.452106
1799.000000	44.383265
1798.000000	44.344660
1797.000000	44.328723
1796.000000	44.299471
1795.000000	44.259155
1794.000000	44.228104
1793.000000	44.176714
1792.000000	44.054259
1791.000000	43.908843
1790.000000	43.808113
1789.000000	43.757741
1788.000000	43.733187
1787.000000	43.712292
1786.000000	43.661741
1785.000000	43.535574
1784.000000	43.334276
1783.000000	43.171997
1782.000000	43.104491
1781.000000	43.082079
1780.000000	43.031295
1779.000000	42.976946
1778.000000	42.985830
1777.000000	43.032707
1776.000000	43.035647
1775.000000	42.996077
1774.000000	42.990239
1773.000000	42.961765
1772.000000	42.819932
1771.000000	42.633698
1770.000000	42.504522
1769.000000	42.438367
1768.000000	42.365235
1767.000000	42.262883
1766.000000	42.152541
1765.000000	42.061629
1764.000000	42.018476
1763.000000	42.009633
1762.000000	41.929413
1761.000000	41.759439
1760.000000	41.568863
1759.000000	41.464945
1758.000000	41.467269
1757.000000	41.462010
1756.000000	41.400483
1755.000000	41.332618
1754.000000	41.265015
1753.000000	41.128534
1752.000000	40.876371
1751.000000	40.552551
1750.000000	40.300045
1749.000000	40.154792
1748.000000	40.040670
1747.000000	39.926185
1746.000000	39.826684
1745.000000	39.767757
1744.000000	39.732224
1743.000000	39.684261
1742.000000	39.627685
1741.000000	39.601444
1740.000000	39.577961
1739.000000	39.557386
1738.000000	39.555049
1737.000000	39.540927
1736.000000	39.535516
1735.000000	39.386755
1734.000000	38.853916
1733.000000	38.180137
1732.000000	37.702484
1731.000000	37.487535
1730.000000	37.393520
1729.000000	37.252411
1728.000000	37.034053
1727.000000	36.806172
1726.000000	36.592095
1725.000000	36.395001
1724.000000	36.214952
1723.000000	36.063056
1722.000000	35.926836
1721.000000	35.760877
1720.000000	35.583340
1719.000000	35.384879
1718.000000	35.024326
1717.000000	34.511685
1716.000000	34.036894
1715.000000	33.679115
1714.000000	33.382196
1713.000000	33.088092
1712.000000	32.796958
1711.000000	32.524453
1710.000000	32.235295
1709.000000	31.883520
1708.000000	31.535433
1707.000000	31.296755
1706.000000	31.156838
1705.000000	31.057629
1704.000000	30.977881
1703.000000	30.896941
1702.000000	30.821144
1701.000000	30.529967
1700.000000	29.894482
1699.000000	29.286167
1698.000000	28.956028
1697.000000	28.768336
1696.000000	28.364897
1695.000000	27.732745
1694.000000	27.143678
1693.000000	26.708458
1692.000000	26.379323
1691.000000	26.112111
1690.000000	25.910900
1689.000000	25.762825
1688.000000	25.609243
1687.000000	25.363824
1686.000000	25.090206
1685.000000	24.710733
1684.000000	24.043663
1683.000000	23.375693
1682.000000	22.947387
1681.000000	22.704311
1680.000000	22.517586
1679.000000	22.321531
1678.000000	22.105771
1677.000000	21.859922
1676.000000	21.512332
1675.000000	21.049178
1674.000000	20.582864
1673.000000	20.205506
1672.000000	19.920828
1671.000000	19.688470
1670.000000	19.414031
1669.000000	19.049110
1668.000000	18.669425
1667.000000	18.351386
1666.000000	18.086517
1665.000000	17.845058
1664.000000	17.594254
1663.000000	17.306444
1662.000000	16.990747
1661.000000	16.683159
1660.000000	16.418662
1659.000000	16.232434
1658.000000	16.135278
1657.000000	16.072365
1656.000000	15.981357
1655.000000	15.944746
1654.000000	15.818775
1653.000000	15.278717
1652.000000	14.627983
1651.000000	14.180851
1650.000000	13.930805
1649.000000	13.802661
1648.000000	13.716858
1647.000000	13.549712
1646.000000	13.283398
1645.000000	13.004471
1644.000000	12.767499
1643.000000	12.585302
1642.000000	12.435598
1641.000000	12.285577
1640.000000	12.133259
1639.000000	11.994987
1638.000000	11.897842
1637.000000	11.818888
1636.000000	11.657169
1635.000000	11.407129
1634.000000	11.174713
1633.000000	10.999210
1632.000000	10.858874
1631.000000	10.736045
1630.000000	10.628922
1629.000000	10.530620
1628.000000	10.427168
1627.000000	10.322635
1626.000000	10.224623
1625.000000	10.136064
1624.000000	10.047653
1623.000000	9.955392
1622.000000	9.880734
1621.000000	9.837729
1620.000000	9.820047
1619.000000	9.818886
1618.000000	9.816514
1617.000000	9.757183
1616.000000	9.635868
1615.000000	9.524485
1614.000000	9.463386
1613.000000	9.435596
1612.000000	9.414930
1611.000000	9.401212
1610.000000	9.403314
1609.000000	9.414304
1608.000000	9.420404
1607.000000	9.426109
1606.000000	9.437273
1605.000000	9.448620
1604.000000	9.461774
1603.000000	9.487830
1602.000000	9.528548
1601.000000	9.569619
1600.000000	9.601853
1599.000000	9.630930
1598.000000	9.660946
1597.000000	9.689175
1596.000000	9.717138
1595.000000	9.753576
1594.000000	9.800045
1593.000000	9.847709
1592.000000	9.892475
1591.000000	9.940119
1590.000000	9.990441
1589.000000	10.033444
1588.000000	10.066685
1587.000000	10.099498
1586.000000	10.140622
1585.000000	10.181614
1584.000000	10.218380
1583.000000	10.260851
1582.000000	10.317210
1581.000000	10.381838
1580.000000	10.448989
1579.000000	10.519306
1578.000000	10.598934
1577.000000	10.662969
1576.000000	10.664737
1575.000000	10.636351
1574.000000	10.629052
1573.000000	10.643201
1572.000000	10.670111
1571.000000	10.718307
1570.000000	10.771265
1569.000000	10.791960
1568.000000	10.791633
1567.000000	10.812973
1566.000000	10.889262
1565.000000	11.018774
1564.000000	11.187509
1563.000000	11.357025
1562.000000	11.446901
1561.000000	11.476679
1560.000000	11.588879
1559.000000	11.657233
1558.000000	11.637857
1557.000000	11.620249
1556.000000	11.646311
1555.000000	11.711094
1554.000000	11.768599
1553.000000	11.801200
1552.000000	11.850610
1551.000000	11.956487
1550.000000	12.110345
1549.000000	12.267223
1548.000000	12.401723
1547.000000	12.528370
1546.000000	12.680538
1545.000000	12.863794
1544.000000	13.056156
1543.000000	13.235192
1542.000000	13.449337
1541.000000	13.752755
1540.000000	14.041432
1539.000000	14.227851
1538.000000	14.343800
1537.000000	14.443067
1536.000000	14.568556
1535.000000	14.782461
1534.000000	15.081433
1533.000000	15.386628
1532.000000	15.658095
1531.000000	15.913141
1530.000000	16.183018
1529.000000	16.483511
1528.000000	16.816810
1527.000000	17.184543
1526.000000	17.566766
1525.000000	17.928173
1524.000000	18.275598
1523.000000	18.686165
1522.000000	19.155429
1521.000000	19.541766
1520.000000	19.788104
1519.000000	20.013174
1518.000000	20.361311
1517.000000	20.827889
1516.000000	21.301461
1515.000000	21.735559
1514.000000	22.141855
1513.000000	22.542870
1512.000000	22.945947
1511.000000	23.338616
1510.000000	23.695391
1509.000000	24.107493
1508.000000	24.786389
1507.000000	25.557804
1506.000000	26.107621
1505.000000	26.413568
1504.000000	26.647809
1503.000000	26.961549
1502.000000	27.388011
1501.000000	27.877167
1500.000000	28.391887
1499.000000	28.938663
1498.000000	29.516932
1497.000000	30.079241
1496.000000	30.565687
1495.000000	30.978126
1494.000000	31.333794
1493.000000	31.631423
1492.000000	31.923467
1491.000000	32.310206
1490.000000	32.797592
1489.000000	33.321879
1488.000000	33.844392
1487.000000	34.340815
1486.000000	34.789435
1485.000000	35.138760
1484.000000	35.404026
1483.000000	35.663811
1482.000000	35.938703
1481.000000	36.166356
1480.000000	36.307019
1479.000000	36.392478
1478.000000	36.437163
1477.000000	36.399084
1476.000000	36.204531
1475.000000	35.842579
1474.000000	35.288446
1473.000000	34.379236
1472.000000	33.085195
1471.000000	31.659507
1470.000000	30.238495
1469.000000	28.739228
1468.000000	27.046785
1467.000000	25.081038
1466.000000	22.737254
1465.000000	19.978880
1464.000000	17.126986
1463.000000	14.623312
1462.000000	12.572797
1461.000000	10.831286
1460.000000	9.290338
1459.000000	7.909560
1458.000000	6.585233
1457.000000	5.273285
1456.000000	4.245100
1455.000000	3.664381
1454.000000	3.361688
1453.000000	3.165418
1452.000000	3.046097
1451.000000	3.026273
1450.000000	3.085516
1449.000000	3.199830
1448.000000	3.392926
1447.000000	3.679767
1446.000000	4.015933
1445.000000	4.369417
1444.000000	4.769924
1443.000000	5.245636
1442.000000	5.772127
1441.000000	6.311808
1440.000000	6.865844
1439.000000	7.462927
1438.000000	8.145776
1437.000000	8.940456
1436.000000	9.800850
1435.000000	10.633429
1434.000000	11.411158
1433.000000	12.186533
1432.000000	13.013078
1431.000000	13.890034
1430.000000	14.760014
1429.000000	15.558683
1428.000000	16.239378
1427.000000	16.797668
1426.000000	17.281162
1425.000000	17.747230
1424.000000	18.211757
1423.000000	18.637774
1422.000000	18.980986
1421.000000	19.244536
1420.000000	19.495910
1419.000000	19.774982
1418.000000	20.085086
1417.000000	20.455265
1416.000000	20.912831
1415.000000	21.451568
1414.000000	22.050042
1413.000000	22.707296
1412.000000	23.440786
1411.000000	24.246310
1410.000000	25.086469
1409.000000	25.934242
1408.000000	26.776724
1407.000000	27.620956
1406.000000	28.498290
1405.000000	29.411289
1404.000000	30.302187
1403.000000	31.093415
1402.000000	31.778059
1401.000000	32.433344
1400.000000	33.120781
1399.000000	33.802121
1398.000000	34.420952
1397.000000	35.005708
1396.000000	35.598368
1395.000000	36.166562
1394.000000	36.647373
1393.000000	37.047834
1392.000000	37.414962
1391.000000	37.753146
1390.000000	38.034525
1389.000000	38.247613
1388.000000	38.378160
1387.000000	38.397725
1386.000000	38.339706
1385.000000	38.285207
1384.000000	38.274450
1383.000000	38.280822
1382.000000	38.267881
1381.000000	38.221383
1380.000000	38.117028
1379.000000	37.921626
1378.000000	37.638206
1377.000000	37.317402
1376.000000	37.013116
1375.000000	36.747932
1374.000000	36.500669
1373.000000	36.244336
1372.000000	35.953745
1371.000000	35.617884
1370.000000	35.255659
1369.000000	34.875559
1368.000000	34.457945
1367.000000	33.980717
1366.000000	33.445513
1365.000000	32.869458
1364.000000	32.261546
1363.000000	31.612266
1362.000000	30.932594
1361.000000	30.268801
1360.000000	29.656877
1359.000000	29.121214
1358.000000	28.704287
1357.000000	28.453754
1356.000000	28.390960
1355.000000	28.504660
1354.000000	28.752670
1353.000000	29.070689
1352.000000	29.371590
1351.000000	29.575884
1350.000000	29.633053
1349.000000	29.502871
1348.000000	29.149302
1347.000000	28.557598
1346.000000	27.742520
1345.000000	26.725331
1344.000000	25.526643
1343.000000	24.176443
1342.000000	22.716995
1341.000000	21.180178
1340.000000	19.581887
1339.000000	17.955908
1338.000000	16.354381
1337.000000	14.800966
1336.000000	13.284707
1335.000000	11.804262
1334.000000	10.385013
1333.000000	9.055123
1332.000000	7.833394
1331.000000	6.742784
1330.000000	5.807544
1329.000000	5.028347
1328.000000	4.384094
1327.000000	3.853753
1326.000000	3.418002
1325.000000	3.050662
1324.000000	2.725963
1323.000000	2.436379
1322.000000	2.185902
1321.000000	1.971393
1320.000000	1.787933
1319.000000	1.642082
1318.000000	1.545725
1317.000000	1.500365
1316.000000	1.501006
1315.000000	1.550880
1314.000000	1.655257
1313.000000	1.808909
1312.000000	2.002427
1311.000000	2.234296
1310.000000	2.507882
1309.000000	2.819355
1308.000000	3.160894
1307.000000	3.530366
1306.000000	3.927051
1305.000000	4.343441
1304.000000	4.769098
1303.000000	5.199375
1302.000000	5.633132
1301.000000	6.064679
1300.000000	6.485675
1299.000000	6.891407
1298.000000	7.278159
1297.000000	7.637902
1296.000000	7.964904
1295.000000	8.268280
1294.000000	8.571759
1293.000000	8.902086
1292.000000	9.282888
1291.000000	9.734573
1290.000000	10.272093
1289.000000	10.898510
1288.000000	11.603919
1287.000000	12.372600
1286.000000	13.186110
1285.000000	14.023533
1284.000000	14.863004
1283.000000	15.686351
1282.000000	16.482670
1281.000000	17.243815
1280.000000	17.958909
1279.000000	18.618154
1278.000000	19.219678
1277.000000	19.766275
1276.000000	20.261713
1275.000000	20.717578
1274.000000	21.160553
1273.000000	21.624580
1272.000000	22.134589
1271.000000	22.702527
1270.000000	23.333369
1269.000000	24.024085
1268.000000	24.759001
1267.000000	25.518212
1266.000000	26.289863
1265.000000	27.068206
1264.000000	27.843396
1263.000000	28.603501
1262.000000	29.344871
1261.000000	30.065159
1260.000000	30.747228
1259.000000	31.366085
1258.000000	31.914119
1257.000000	32.402694
1256.000000	32.842859
1255.000000	33.239929
1254.000000	33.600008
1253.000000	33.926589
1252.000000	34.205193
1251.000000	34.410447
1250.000000	34.529667
1249.000000	34.564991
1248.000000	34.522276
1247.000000	34.408637
1246.000000	34.237603
1245.000000	34.020729
1244.000000	33.749791
1243.000000	33.406016
1242.000000	32.979483
1241.000000	32.471088
1240.000000	31.885751
1239.000000	31.235165
1238.000000	30.546576
1237.000000	29.850787
1236.000000	29.164779
1235.000000	28.494895
1234.000000	27.848391
1233.000000	27.233070
1232.000000	26.653367
1231.000000	26.118669
1230.000000	25.648053
1229.000000	25.262216
1228.000000	24.969904
1227.000000	24.769081
1226.000000	24.655609
1225.000000	24.619557
1224.000000	24.645805
1223.000000	24.722237
1222.000000	24.848023
1221.000000	25.031026
1220.000000	25.275062
1219.000000	25.579445
1218.000000	25.940611
1217.000000	26.347070
1216.000000	26.777745
1215.000000	27.211674
1214.000000	27.642789
1213.000000	28.078072
1212.000000	28.525205
1211.000000	28.990011
1210.000000	29.479188
1209.000000	29.994263
1208.000000	30.522148
1207.000000	31.041160
1206.000000	31.538015
1205.000000	32.012868
1204.000000	32.471328
1203.000000	32.922769
1202.000000	33.383485
1201.000000	33.866416
1200.000000	34.365813
1199.000000	34.860901
1198.000000	35.333932
1197.000000	35.777673
1196.000000	36.189959
1195.000000	36.576654
1194.000000	36.958537
1193.000000	37.358946
1192.000000	37.782205
1191.000000	38.211656
1190.000000	38.627739
1189.000000	39.016091
1188.000000	39.363389
1187.000000	39.665495
1186.000000	39.940536
1185.000000	40.219598
1184.000000	40.520895
1183.000000	40.840330
1182.000000	41.163396
1181.000000	41.470260
1180.000000	41.735696
1179.000000	41.945023
1178.000000	42.112692
1177.000000	42.272123
1176.000000	42.446917
1175.000000	42.642527
1174.000000	42.856686
1173.000000	43.076751
1172.000000	43.273061
1171.000000	43.414394
1170.000000	43.495609
1169.000000	43.538740
1168.000000	43.569860
1167.000000	43.609358
1166.000000	43.675037
1165.000000	43.771567
1164.000000	43.876522
1163.000000	43.953144
1162.000000	43.982214
1161.000000	43.970122
1160.000000	43.933079
1159.000000	43.892118
1158.000000	43.876950
1157.000000	43.910573
1156.000000	43.986023
1155.000000	44.071932
1154.000000	44.141040
1153.000000	44.182188
1152.000000	44.193048
1151.000000	44.183137
1150.000000	44.182825
1149.000000	44.226124
1148.000000	44.320891
1147.000000	44.446755
1146.000000	44.578520
1145.000000	44.697558
1144.000000	44.787872
1143.000000	44.846251
1142.000000	44.897236
1141.000000	44.978964
1140.000000	45.110727
1139.000000	45.284272
1138.000000	45.479880
1137.000000	45.673456
1136.000000	45.834002
1135.000000	45.939941
1134.000000	46.003225
1133.000000	46.062103
1132.000000	46.148503
1131.000000	46.273551
1130.000000	46.433745
1129.000000	46.609672
1128.000000	46.760454
1127.000000	46.843876
1126.000000	46.849926
1125.000000	46.800637
1124.000000	46.722691
1123.000000	46.635612
1122.000000	46.556755
1121.000000	46.492662
1120.000000	46.418294
1119.000000	46.288504
1118.000000	46.072808
1117.000000	45.767595
1116.000000	45.383839
1115.000000	44.938971
1114.000000	44.459055
1113.000000	43.963266
1112.000000	43.437497
1111.000000	42.844093
1110.000000	42.149532
1109.000000	41.337875
1108.000000	40.406968
1107.000000	39.365761
1106.000000	38.240169
1105.000000	37.053448
1104.000000	35.804028
1103.000000	34.471524
1102.000000	33.033268
1101.000000	31.476774
1100.000000	29.798551
1099.000000	28.012596
1098.000000	26.154135
1097.000000	24.260641
1096.000000	22.356646
1095.000000	20.454964
1094.000000	18.565612
1093.000000	16.698515
1092.000000	14.869579
1091.000000	13.106377
1090.000000	11.443863
1089.000000	9.913771
1088.000000	8.535209
1087.000000	7.321063
1086.000000	6.271817
1085.000000	5.374096
1084.000000	4.613148
1083.000000	3.974232
1082.000000	3.444187
1081.000000	3.006329
1080.000000	2.645580
1079.000000	2.353660
1078.000000	2.118176
1077.000000	1.923997
1076.000000	1.760339
1075.000000	1.622730
1074.000000	1.506878
1073.000000	1.404936
1072.000000	1.314064
1071.000000	1.237644
1070.000000	1.176130
1069.000000	1.124900
1068.000000	1.081362
1067.000000	1.047779
1066.000000	1.024264
1065.000000	1.006608
1064.000000	0.994140
1063.000000	0.990770
1062.000000	0.997437
1061.000000	1.010533
1060.000000	1.029288
1059.000000	1.057298
1058.000000	1.094359
1057.000000	1.135392
1056.000000	1.179267
1055.000000	1.230622
1054.000000	1.291721
1053.000000	1.359896
1052.000000	1.435324
1051.000000	1.523164
1050.000000	1.624670
1049.000000	1.735669
1048.000000	1.854896
1047.000000	1.986453
1046.000000	2.132545
1045.000000	2.291251
1044.000000	2.464635
1043.000000	2.659350
1042.000000	2.877853
1041.000000	3.116228
1040.000000	3.370841
1039.000000	3.642487
1038.000000	3.931492
1037.000000	4.235966
1036.000000	4.557932
1035.000000	4.902837
1034.000000	5.273551
1033.000000	5.667809
1032.000000	6.082004
1031.000000	6.513338
1030.000000	6.956484
1029.000000	7.406107
1028.000000	7.863039
1027.000000	8.333647
1026.000000	8.823114
1025.000000	9.331260
1024.000000	9.855059
1023.000000	10.390093
1022.000000	10.929016
1021.000000	11.463938
1020.000000	11.991899
1019.000000	12.517496
1018.000000	13.049280
1017.000000	13.593900
1016.000000	14.153110
1015.000000	14.723067
1014.000000	15.295507
1013.000000	15.860920
1012.000000	16.412635
1011.000000	16.950309
1010.000000	17.480388
1009.000000	18.012840
1008.000000	18.555684
1007.000000	19.110990
1006.000000	19.673621
1005.000000	20.232588
1004.000000	20.775647
1003.000000	21.296647
1002.000000	21.799560
1001.000000	22.294885
1000.000000	22.793530
999.000000	23.304761
998.000000	23.833918
997.000000	24.375763
996.000000	24.911556
995.000000	25.420926
994.000000	25.898891
993.000000	26.357461
992.000000	26.813080
991.000000	27.278545
990.000000	27.762227
989.000000	28.264100
988.000000	28.769787
987.000000	29.258385
986.000000	29.718440
985.000000	30.152948
984.000000	30.570826
983.000000	30.982588
982.000000	31.402728
981.000000	31.843097
980.000000	32.299761
979.000000	32.754935
978.000000	33.193014
977.000000	33.609078
976.000000	34.003900
975.000000	34.382456
974.000000	34.758686
973.000000	35.148483
972.000000	35.554298
971.000000	35.963029
970.000000	36.359790
969.000000	36.736639
968.000000	37.089271
967.000000	37.419516
966.000000	37.742570
965.000000	38.079273
964.000000	38.437691
963.000000	38.808621
962.000000	39.177415
961.000000	39.530567
960.000000	39.853142
959.000000	40.136815
958.000000	40.392549
957.000000	40.644707
956.000000	40.910294
955.000000	41.191921
954.000000	41.487739
953.000000	41.791670
952.000000	42.085822
951.000000	42.349544
950.000000	42.579881
949.000000	42.791942
948.000000	42.999771
947.000000	43.208903
946.000000	43.425641
945.000000	43.654786
944.000000	43.887832
943.000000	44.107825
942.000000	44.309613
941.000000	44.502694
940.000000	44.693932
939.000000	44.882630
938.000000	45.070847
937.000000	45.261482
936.000000	45.445170
935.000000	45.604328
934.000000	45.733738
933.000000	45.844138
932.000000	45.945564
931.000000	46.043047
930.000000	46.145836
929.000000	46.262691
928.000000	46.385046
927.000000	46.489451
926.000000	46.560699
925.000000	46.597724
924.000000	46.601188
923.000000	46.572680
922.000000	46.525927
921.000000	46.481182
920.000000	46.443680
919.000000	46.401384
918.000000	46.344079
917.000000	46.268216
916.000000	46.166199
915.000000	46.027649
914.000000	45.853804
913.000000	45.655714
912.000000	45.434831
911.000000	45.183194
910.000000	44.899939
909.000000	44.593248
908.000000	44.266378
907.000000	43.915486
906.000000	43.542753
905.000000	43.153914
904.000000	42.742104
903.000000	42.290657
902.000000	41.789676
901.000000	41.239853
900.000000	40.641359
899.000000	39.994871
898.000000	39.313825
897.000000	38.616959
896.000000	37.909069
895.000000	37.178805
894.000000	36.413404
893.000000	35.605888
892.000000	34.747780
891.000000	33.832710
890.000000	32.867745
889.000000	31.868951
888.000000	30.846960
887.000000	29.802817
886.000000	28.736611
885.000000	27.649829
884.000000	26.540052
883.000000	25.404461
882.000000	24.247706
881.000000	23.080609
880.000000	21.911159
879.000000	20.742826
878.000000	19.579716
877.000000	18.428620
876.000000	17.296220
875.000000	16.186074
874.000000	15.099942
873.000000	14.039498
872.000000	13.010550
871.000000	12.024552
870.000000	11.090839
869.000000	10.211208
868.000000	9.380813
867.000000	8.595526
866.000000	7.855938
865.000000	7.163821
864.000000	6.522121
863.000000	5.932708
862.000000	5.394084
861.000000	4.902452
860.000000	4.453605
859.000000	4.046470
858.000000	3.681290
857.000000	3.359302
856.000000	3.085506
855.000000	2.864756
854.000000	2.698225
853.000000	2.581909
852.000000	2.508710
851.000000	2.469441
850.000000	2.450684
849.000000	2.439414
848.000000	2.428517
847.000000	2.416745
846.000000	2.404926
845.000000	2.394234
844.000000	2.387572
843.000000	2.388165
842.000000	2.397150
841.000000	2.415103
840.000000	2.444232
839.000000	2.487254
838.000000	2.545519
837.000000	2.620141
836.000000	2.713695
835.000000	2.827085
834.000000	2.957426
833.000000	3.101188
832.000000	3.257348
831.000000	3.426259
830.000000	3.607143
829.000000	3.799864
828.000000	4.006718
827.000000	4.229567
826.000000	4.467935
825.000000	4.720660
824.000000	4.987533
823.000000	5.268296
822.000000	5.562310
821.000000	5.871101
820.000000	6.197187
819.000000	6.540332
818.000000	6.897246
817.000000	7.263427
816.000000	7.632430
815.000000	7.994623
814.000000	8.342256
813.000000	8.676343
812.000000	9.005253
811.000000	9.338238
810.000000	9.682608
809.000000	10.043390
808.000000	10.419648
807.000000	10.802264
806.000000	11.180236
805.000000	11.549331
804.000000	11.912461
803.000000	12.276183
802.000000	12.650491
801.000000	13.046868
800.000000	13.468890
799.000000	13.906330
798.000000	14.342919
797.000000	14.767812
796.000000	15.178003
795.000000	15.577474
794.000000	15.979394
793.000000	16.402876
792.000000	16.858741
791.000000	17.340065
790.000000	17.828295
789.000000	18.304115
788.000000	18.751987
787.000000	19.165472
786.000000	19.556132
785.000000	19.950443
784.000000	20.370903
783.000000	20.822206
782.000000	21.293683
781.000000	21.764881
780.000000	22.207653
779.000000	22.598357
778.000000	22.938752
777.000000	23.258619
776.000000	23.592819
775.000000	23.961376
774.000000	24.369274
773.000000	24.807877
772.000000	25.249638
771.000000	25.656689
770.000000	26.008853
769.000000	26.318997
768.000000	26.618305
767.000000	26.936736
766.000000	27.297463
765.000000	27.708825
764.000000	28.149097
763.000000	28.570215
762.000000	28.931147
761.000000	29.225090
760.000000	29.474769
759.000000	29.715967
758.000000	29.988576
757.000000	30.320188
756.000000	30.702214
755.000000	31.088202
754.000000	31.425976
753.000000	31.686515
752.000000	31.867286
751.000000	31.990690
750.000000	32.107973
749.000000	32.280315
748.000000	32.534654
747.000000	32.840519
746.000000	33.135682
745.000000	33.365525
744.000000	33.501069
743.000000	33.545542
742.000000	33.541802
741.000000	33.557324
740.000000	33.642391
739.000000	33.801412
738.000000	34.002654
737.000000	34.199860
736.000000	34.344385
735.000000	34.404549
734.000000	34.395908
733.000000	34.381221
732.000000	34.428342
731.000000	34.571458
730.000000	34.807689
729.000000	35.105344
728.000000	35.406782
727.000000	35.650539
726.000000	35.816006
725.000000	35.941703
724.000000	36.091919
723.000000	36.316932
722.000000	36.641147
721.000000	37.057550
720.000000	37.514170
719.000000	37.928632
718.000000	38.243056
717.000000	38.463132
716.000000	38.641553
715.000000	38.843538
714.000000	39.128543
713.000000	39.528121
712.000000	40.013658
711.000000	40.499387
710.000000	40.898658
709.000000	41.175933
708.000000	41.349848
707.000000	41.476583
706.000000	41.638064
705.000000	41.911264
704.000000	42.315129
703.000000	42.790752
702.000000	43.244350
701.000000	43.602730
700.000000	43.832486
699.000000	43.948908
698.000000	44.025923
697.000000	44.168054
696.000000	44.440147
695.000000	44.826875
694.000000	45.259625
693.000000	45.659730
692.000000	45.956236
691.000000	46.113109
690.000000	46.170689
689.000000	46.237433
688.000000	46.411057
687.000000	46.713113
686.000000	47.103007
685.000000	47.514252
684.000000	47.860694
683.000000	48.062533
682.000000	48.114401
681.000000	48.106538
680.000000	48.154673
679.000000	48.325412
678.000000	48.632136
677.000000	49.040464
676.000000	49.452072
675.000000	49.742439
674.000000	49.852783
673.000000	49.836330
672.000000	49.812039
671.000000	49.894210
670.000000	50.169786
669.000000	50.673297
668.000000	51.266090
667.000000	51.662561
666.000000	51.762194
665.000000	51.680300
664.000000	51.538420
663.000000	51.429453
662.000000	51.436286
661.000000	51.611063
660.000000	51.938953
659.000000	52.335286
658.000000	52.687018
657.000000	52.905658
656.000000	52.965521
655.000000	52.924000
654.000000	52.895526
653.000000	52.981871
652.000000	53.218568
651.000000	53.564643
650.000000	53.923319
649.000000	54.183023
648.000000	54.270582
647.000000	54.198566
646.000000	54.070854
645.000000	54.025913
644.000000	54.155219
643.000000	54.461300
642.000000	54.866782
641.000000	55.248141
640.000000	55.480765
639.000000	55.498674
638.000000	55.341324
637.000000	55.138766
636.000000	55.037794
635.000000	55.131223
634.000000	55.424749
633.000000	55.834806
632.000000	56.219043
631.000000	56.445036
630.000000	56.465820
629.000000	56.338730
628.000000	56.180005
627.000000	56.111466
626.000000	56.217222
625.000000	56.495947
624.000000	56.840804
623.000000	57.099302
622.000000	57.183552
621.000000	57.118802
620.000000	56.995469
619.000000	56.911173
618.000000	56.948542
617.000000	57.147301
616.000000	57.461093
615.000000	57.764613
614.000000	57.933386
613.000000	57.921374
612.000000	57.772954
611.000000	57.595657
610.000000	57.524989
609.000000	57.662381
608.000000	58.003883
607.000000	58.431112
606.000000	58.784922
605.000000	58.947674
604.000000	58.876330
603.000000	58.613317
602.000000	58.288900
601.000000	58.064611
600.000000	58.028092
599.000000	58.135848
598.000000	58.257176
597.000000	58.253338
596.000000	58.031818
595.000000	57.591348
594.000000	57.058478
593.000000	56.640673
592.000000	56.504381
591.000000	56.685605
590.000000	57.097842
589.000000	57.598684
588.000000	58.045735
587.000000	58.346730
586.000000	58.506874
585.000000	58.620023
584.000000	58.789514
583.000000	59.066262
582.000000	59.449390
581.000000	59.888940
580.000000	60.271137
579.000000	60.462126
578.000000	60.422535
577.000000	60.251327
576.000000	60.110228
575.000000	60.123903
574.000000	60.340088
573.000000	60.727039
572.000000	61.169821
571.000000	61.503183
570.000000	61.609783
569.000000	61.494134
568.000000	61.251195
567.000000	61.005694
566.000000	60.880658
565.000000	60.955633
564.000000	61.208605
563.000000	61.522133
562.000000	61.765026
561.000000	61.865782
560.000000	61.815883
559.000000	61.657624
558.000000	61.488368
557.000000	61.419759
556.000000	61.494072
555.000000	61.654677
554.000000	61.806193
553.000000	61.881536
552.000000	61.855157
551.000000	61.750313
550.000000	61.655722
549.000000	61.684515
548.000000	61.883544
547.000000	62.200686
546.000000	62.532780
545.000000	62.778820
544.000000	62.855288
543.000000	62.734569
542.000000	62.501563
541.000000	62.325435
540.000000	62.335394
539.000000	62.548816
538.000000	62.902547
537.000000	63.299160
536.000000	63.612925
535.000000	63.727993
534.000000	63.627578
533.000000	63.418820
532.000000	63.241279
531.000000	63.181157
530.000000	63.268600
529.000000	63.485670
528.000000	63.748872
527.000000	63.939082
526.000000	63.997024
525.000000	63.957085
524.000000	63.878187
523.000000	63.790595
522.000000	63.715351
521.000000	63.672346
520.000000	63.638450
519.000000	63.542018
518.000000	63.337761
517.000000	63.054564
516.000000	62.741123
515.000000	62.419250
514.000000	62.107779
513.000000	61.825099
512.000000	61.534045
511.000000	61.127768
510.000000	60.512166
509.000000	59.680142
508.000000	58.692715
507.000000	57.647227
506.000000	56.666290
505.000000	55.841028
504.000000	55.165961
503.000000	54.565575
502.000000	53.983260
501.000000	53.410576
500.000000	52.855762
499.000000	52.340211
498.000000	51.937421
497.000000	51.746620
496.000000	51.813841
495.000000	52.111186
494.000000	52.593782
493.000000	53.240417
492.000000	54.005869
491.000000	54.805445
490.000000	55.584318
489.000000	56.350707
488.000000	57.118462
487.000000	57.865640
486.000000	58.572161
485.000000	59.234477
484.000000	59.813682
483.000000	60.222085
482.000000	60.422504
481.000000	60.483575
480.000000	60.495858
479.000000	60.503570
478.000000	60.527550
477.000000	60.581996
476.000000	60.634065
475.000000	60.609746
474.000000	60.498512
473.000000	60.419995
472.000000	60.500887
471.000000	60.739525
470.000000	61.093627
469.000000	61.569680
468.000000	62.154459
467.000000	62.742498
466.000000	63.207752
465.000000	63.521487
464.000000	63.716498
463.000000	63.822582
462.000000	63.906270
461.000000	64.069126
460.000000	64.320969
459.000000	64.548903
458.000000	64.681044
457.000000	64.749200
456.000000	64.769879
455.000000	64.733786
454.000000	64.683139
453.000000	64.722037
452.000000	64.919274
451.000000	65.205964
450.000000	65.461647
449.000000	65.646462
448.000000	65.779938
447.000000	65.865980
446.000000	65.918571
445.000000	66.007031
444.000000	66.192818
443.000000	66.477206
442.000000	66.839767
441.000000	67.259263
440.000000	67.656721
439.000000	67.905044
438.000000	67.965453
437.000000	67.962401
436.000000	68.032032
435.000000	68.173285
434.000000	68.346580
433.000000	68.589615
432.000000	68.899858
431.000000	69.149208
430.000000	69.247151
429.000000	69.265559
428.000000	69.295867
427.000000	69.336759
426.000000	69.403363
425.000000	69.584739
424.000000	69.905350
423.000000	70.256635
422.000000	70.542079
421.000000	70.694942
420.000000	70.584047
419.000000	70.291645
418.000000	70.098907
417.000000	70.160285
416.000000	70.468966
415.000000	70.827343
414.000000	71.012463
413.000000	71.043099
412.000000	71.024561
411.000000	70.917784
410.000000	70.732882
409.000000	70.689999
408.000000	70.889088
407.000000	71.108110
406.000000	71.150930
405.000000	71.120196
404.000000	71.125949
403.000000	71.053977
402.000000	70.880059
401.000000	70.866386
400.000000	71.049596
