PE IR       SUBTECH     SPECTRUM    ASCII       PEDS        4.00        
   -1
23MS080_nitrito.asc
24/09/05
16:58:45.00
24/09/05
16:58:45.00
Administrator
Sample 1114 By Administrator Date Thursday, September 05 2024
400.000000
#HDR
-1
-1
#GR
cm-1
%T
1.0
0.0
4000.000000
-1.000000
3601
8
91.738249
6.251775
#DATA
4000.000000	78.107948
3999.000000	78.157279
3998.000000	78.202984
3997.000000	78.246150
3996.000000	78.287727
3995.000000	78.328422
3994.000000	78.369408
3993.000000	78.412987
3992.000000	78.461931
3991.000000	78.517535
3990.000000	78.578175
3989.000000	78.640481
3988.000000	78.702138
3987.000000	78.762801
3986.000000	78.822671
3985.000000	78.880794
3984.000000	78.935183
3983.000000	78.983947
3982.000000	79.026056
3981.000000	79.061844
3980.000000	79.093345
3979.000000	79.124409
3978.000000	79.159767
3977.000000	79.202705
3976.000000	79.253313
3975.000000	79.308759
3974.000000	79.365533
3973.000000	79.421677
3972.000000	79.476794
3971.000000	79.531058
3970.000000	79.583747
3969.000000	79.632527
3968.000000	79.674670
3967.000000	79.708982
3966.000000	79.737048
3965.000000	79.763097
3964.000000	79.792207
3963.000000	79.827265
3962.000000	79.867935
3961.000000	79.912007
3960.000000	79.958141
3959.000000	80.007764
3958.000000	80.062664
3957.000000	80.121606
3956.000000	80.180372
3955.000000	80.234570
3954.000000	80.282047
3953.000000	80.322792
3952.000000	80.358039
3951.000000	80.390039
3950.000000	80.420848
3949.000000	80.450942
3948.000000	80.480192
3947.000000	80.510148
3946.000000	80.545540
3945.000000	80.593258
3944.000000	80.657173
3943.000000	80.731196
3942.000000	80.801867
3941.000000	80.860543
3940.000000	80.909627
3939.000000	80.956915
3938.000000	81.004484
3937.000000	81.046185
3936.000000	81.077169
3935.000000	81.101849
3934.000000	81.132061
3933.000000	81.175012
3932.000000	81.226575
3931.000000	81.277411
3930.000000	81.322279
3929.000000	81.365182
3928.000000	81.413892
3927.000000	81.473631
3926.000000	81.544013
3925.000000	81.616293
3924.000000	81.677103
3923.000000	81.719161
3922.000000	81.746710
3921.000000	81.770669
3920.000000	81.799524
3919.000000	81.835359
3918.000000	81.876887
3917.000000	81.922274
3916.000000	81.969047
3915.000000	82.014415
3914.000000	82.059733
3913.000000	82.110420
3912.000000	82.168249
3911.000000	82.228676
3910.000000	82.284431
3909.000000	82.332133
3908.000000	82.374754
3907.000000	82.414866
3906.000000	82.450894
3905.000000	82.478165
3904.000000	82.493834
3903.000000	82.504127
3902.000000	82.522950
3901.000000	82.562695
3900.000000	82.624642
3899.000000	82.694864
3898.000000	82.756476
3897.000000	82.806022
3896.000000	82.852100
3895.000000	82.905845
3894.000000	82.971241
3893.000000	83.042807
3892.000000	83.107537
3891.000000	83.153045
3890.000000	83.175965
3889.000000	83.182381
3888.000000	83.188512
3887.000000	83.216577
3886.000000	83.272576
3885.000000	83.334737
3884.000000	83.380108
3883.000000	83.413999
3882.000000	83.459957
3881.000000	83.527509
3880.000000	83.597431
3879.000000	83.646173
3878.000000	83.673320
3877.000000	83.696443
3876.000000	83.732568
3875.000000	83.783826
3874.000000	83.833043
3873.000000	83.860718
3872.000000	83.870388
3871.000000	83.888516
3870.000000	83.931523
3869.000000	83.985541
3868.000000	84.029421
3867.000000	84.064636
3866.000000	84.113762
3865.000000	84.187377
3864.000000	84.265313
3863.000000	84.323703
3862.000000	84.361054
3861.000000	84.391055
3860.000000	84.424814
3859.000000	84.466847
3858.000000	84.518114
3857.000000	84.573791
3856.000000	84.625273
3855.000000	84.668780
3854.000000	84.708781
3853.000000	84.749493
3852.000000	84.793129
3851.000000	84.839639
3850.000000	84.886004
3849.000000	84.932684
3848.000000	84.978104
3847.000000	85.020443
3846.000000	85.060952
3845.000000	85.100463
3844.000000	85.137387
3843.000000	85.170550
3842.000000	85.199914
3841.000000	85.230719
3840.000000	85.269533
3839.000000	85.317221
3838.000000	85.371692
3837.000000	85.431846
3836.000000	85.496580
3835.000000	85.560908
3834.000000	85.618737
3833.000000	85.669595
3832.000000	85.716145
3831.000000	85.758804
3830.000000	85.797898
3829.000000	85.835596
3828.000000	85.874689
3827.000000	85.917253
3826.000000	85.958514
3825.000000	85.990342
3824.000000	86.013024
3823.000000	86.043310
3822.000000	86.100423
3821.000000	86.176091
3820.000000	86.241591
3819.000000	86.285142
3818.000000	86.319994
3817.000000	86.366659
3816.000000	86.429358
3815.000000	86.490878
3814.000000	86.537854
3813.000000	86.573988
3812.000000	86.609206
3811.000000	86.648023
3810.000000	86.687032
3809.000000	86.721707
3808.000000	86.755976
3807.000000	86.797148
3806.000000	86.843639
3805.000000	86.889190
3804.000000	86.932498
3803.000000	86.985425
3802.000000	87.053352
3801.000000	87.117844
3800.000000	87.163191
3799.000000	87.197046
3798.000000	87.235359
3797.000000	87.283617
3796.000000	87.333150
3795.000000	87.373922
3794.000000	87.408253
3793.000000	87.446056
3792.000000	87.492223
3791.000000	87.543587
3790.000000	87.594218
3789.000000	87.641224
3788.000000	87.686808
3787.000000	87.734562
3786.000000	87.785252
3785.000000	87.835718
3784.000000	87.881048
3783.000000	87.919516
3782.000000	87.955979
3781.000000	87.999020
3780.000000	88.051604
3779.000000	88.106171
3778.000000	88.152538
3777.000000	88.188846
3776.000000	88.221697
3775.000000	88.258952
3774.000000	88.302196
3773.000000	88.346351
3772.000000	88.389063
3771.000000	88.435378
3770.000000	88.486588
3769.000000	88.535353
3768.000000	88.577711
3767.000000	88.619330
3766.000000	88.667457
3765.000000	88.718155
3764.000000	88.759638
3763.000000	88.788012
3762.000000	88.813068
3761.000000	88.849329
3760.000000	88.897536
3759.000000	88.945554
3758.000000	88.987564
3757.000000	89.027512
3756.000000	89.067612
3755.000000	89.104303
3754.000000	89.137959
3753.000000	89.176590
3752.000000	89.222617
3751.000000	89.266920
3750.000000	89.306494
3749.000000	89.351720
3748.000000	89.403772
3747.000000	89.451331
3746.000000	89.493962
3745.000000	89.540994
3744.000000	89.588592
3743.000000	89.630332
3742.000000	89.668734
3741.000000	89.707535
3740.000000	89.745957
3739.000000	89.777797
3738.000000	89.804648
3737.000000	89.843039
3736.000000	89.908410
3735.000000	89.986098
3734.000000	90.047033
3733.000000	90.087057
3732.000000	90.121155
3731.000000	90.158465
3730.000000	90.194896
3729.000000	90.225040
3728.000000	90.255744
3727.000000	90.297390
3726.000000	90.348287
3725.000000	90.398667
3724.000000	90.448491
3723.000000	90.505573
3722.000000	90.569160
3721.000000	90.632758
3720.000000	90.691126
3719.000000	90.743307
3718.000000	90.791623
3717.000000	90.836133
3716.000000	90.874006
3715.000000	90.902096
3714.000000	90.922747
3713.000000	90.944338
3712.000000	90.973341
3711.000000	91.010354
3710.000000	91.054341
3709.000000	91.104274
3708.000000	91.157052
3707.000000	91.209237
3706.000000	91.257041
3705.000000	91.297918
3704.000000	91.332598
3703.000000	91.364381
3702.000000	91.393749
3701.000000	91.418178
3700.000000	91.436912
3699.000000	91.452031
3698.000000	91.468709
3697.000000	91.490890
3696.000000	91.515843
3695.000000	91.537128
3694.000000	91.554163
3693.000000	91.574290
3692.000000	91.603356
3691.000000	91.637500
3690.000000	91.666718
3689.000000	91.687298
3688.000000	91.705615
3687.000000	91.724859
3686.000000	91.737626
3685.000000	91.738249
3684.000000	91.727953
3683.000000	91.709862
3682.000000	91.686873
3681.000000	91.664185
3680.000000	91.649617
3679.000000	91.639403
3678.000000	91.618399
3677.000000	91.584438
3676.000000	91.554195
3675.000000	91.538173
3674.000000	91.526868
3673.000000	91.503493
3672.000000	91.461197
3671.000000	91.411822
3670.000000	91.362972
3669.000000	91.307380
3668.000000	91.247091
3667.000000	91.191373
3666.000000	91.138844
3665.000000	91.083303
3664.000000	91.020777
3663.000000	90.952877
3662.000000	90.884867
3661.000000	90.818646
3660.000000	90.750093
3659.000000	90.667380
3658.000000	90.557757
3657.000000	90.420425
3656.000000	90.271225
3655.000000	90.130728
3654.000000	90.003036
3653.000000	89.876065
3652.000000	89.738873
3651.000000	89.585375
3650.000000	89.406031
3649.000000	89.200360
3648.000000	88.998915
3647.000000	88.833756
3646.000000	88.700884
3645.000000	88.576017
3644.000000	88.443252
3643.000000	88.299358
3642.000000	88.142327
3641.000000	87.966737
3640.000000	87.772359
3639.000000	87.567904
3638.000000	87.361532
3637.000000	87.152543
3636.000000	86.938026
3635.000000	86.724448
3634.000000	86.523192
3633.000000	86.335513
3632.000000	86.145707
3631.000000	85.932056
3630.000000	85.685576
3629.000000	85.418881
3628.000000	85.160081
3627.000000	84.935761
3626.000000	84.745991
3625.000000	84.570974
3624.000000	84.394965
3623.000000	84.210099
3622.000000	84.009529
3621.000000	83.787939
3620.000000	83.546133
3619.000000	83.294413
3618.000000	83.051369
3617.000000	82.831798
3616.000000	82.635039
3615.000000	82.448874
3614.000000	82.258135
3613.000000	82.052318
3612.000000	81.830742
3611.000000	81.599049
3610.000000	81.363331
3609.000000	81.130899
3608.000000	80.907650
3607.000000	80.695925
3606.000000	80.495821
3605.000000	80.306106
3604.000000	80.124414
3603.000000	79.945022
3602.000000	79.760379
3601.000000	79.568555
3600.000000	79.374518
3599.000000	79.181974
3598.000000	78.989403
3597.000000	78.792055
3596.000000	78.588155
3595.000000	78.380313
3594.000000	78.172140
3593.000000	77.968360
3592.000000	77.772678
3591.000000	77.581957
3590.000000	77.388128
3589.000000	77.188656
3588.000000	76.990255
3587.000000	76.801952
3586.000000	76.629000
3585.000000	76.472064
3584.000000	76.326376
3583.000000	76.182678
3582.000000	76.030843
3581.000000	75.864551
3580.000000	75.684251
3579.000000	75.494120
3578.000000	75.298297
3577.000000	75.100563
3576.000000	74.905010
3575.000000	74.714416
3574.000000	74.529154
3573.000000	74.349434
3572.000000	74.177023
3571.000000	74.009923
3570.000000	73.839622
3569.000000	73.658938
3568.000000	73.469430
3567.000000	73.277492
3566.000000	73.088561
3565.000000	72.907937
3564.000000	72.738868
3563.000000	72.579247
3562.000000	72.421557
3561.000000	72.258019
3560.000000	72.086005
3559.000000	71.907900
3558.000000	71.727927
3557.000000	71.550453
3556.000000	71.378791
3555.000000	71.212258
3554.000000	71.046167
3553.000000	70.876349
3552.000000	70.702903
3551.000000	70.527280
3550.000000	70.347975
3549.000000	70.163746
3548.000000	69.978021
3547.000000	69.796212
3546.000000	69.619627
3545.000000	69.446580
3544.000000	69.277294
3543.000000	69.113193
3542.000000	68.953193
3541.000000	68.794935
3540.000000	68.638545
3539.000000	68.486004
3538.000000	68.338484
3537.000000	68.195050
3536.000000	68.053156
3535.000000	67.909194
3534.000000	67.760529
3533.000000	67.608888
3532.000000	67.458567
3531.000000	67.310728
3530.000000	67.161275
3529.000000	67.007255
3528.000000	66.852187
3527.000000	66.702659
3526.000000	66.562984
3525.000000	66.435070
3524.000000	66.318421
3523.000000	66.207283
3522.000000	66.092684
3521.000000	65.970762
3520.000000	65.845673
3519.000000	65.721701
3518.000000	65.597203
3517.000000	65.469084
3516.000000	65.338958
3515.000000	65.210718
3514.000000	65.084310
3513.000000	64.956436
3512.000000	64.825368
3511.000000	64.691749
3510.000000	64.556634
3509.000000	64.422489
3508.000000	64.293323
3507.000000	64.170599
3506.000000	64.051387
3505.000000	63.933132
3504.000000	63.816704
3503.000000	63.701931
3502.000000	63.584107
3501.000000	63.459141
3500.000000	63.329342
3499.000000	63.199980
3498.000000	63.072943
3497.000000	62.946593
3496.000000	62.819719
3495.000000	62.692475
3494.000000	62.564943
3493.000000	62.437644
3492.000000	62.312173
3491.000000	62.188983
3490.000000	62.066178
3489.000000	61.942703
3488.000000	61.820203
3487.000000	61.699396
3486.000000	61.577337
3485.000000	61.450618
3484.000000	61.319134
3483.000000	61.185177
3482.000000	61.051145
3481.000000	60.920170
3480.000000	60.795280
3479.000000	60.675391
3478.000000	60.555128
3477.000000	60.431067
3476.000000	60.305276
3475.000000	60.180509
3474.000000	60.055805
3473.000000	59.929580
3472.000000	59.803948
3471.000000	59.682504
3470.000000	59.565785
3469.000000	59.451544
3468.000000	59.337128
3467.000000	59.219245
3466.000000	59.094325
3465.000000	58.961947
3464.000000	58.826343
3463.000000	58.692654
3462.000000	58.563481
3461.000000	58.439886
3460.000000	58.322025
3459.000000	58.207071
3458.000000	58.089968
3457.000000	57.968546
3456.000000	57.845613
3455.000000	57.723939
3454.000000	57.602523
3453.000000	57.479900
3452.000000	57.357276
3451.000000	57.235931
3450.000000	57.114312
3449.000000	56.990593
3448.000000	56.865705
3447.000000	56.741365
3446.000000	56.617749
3445.000000	56.495281
3444.000000	56.375439
3443.000000	56.257560
3442.000000	56.137858
3441.000000	56.014116
3440.000000	55.888874
3439.000000	55.765747
3438.000000	55.645049
3437.000000	55.524939
3436.000000	55.404072
3435.000000	55.280359
3434.000000	55.150239
3433.000000	55.012779
3432.000000	54.872094
3431.000000	54.733313
3430.000000	54.597378
3429.000000	54.461839
3428.000000	54.324672
3427.000000	54.184857
3426.000000	54.041495
3425.000000	53.894622
3424.000000	53.745485
3423.000000	53.594362
3422.000000	53.439725
3421.000000	53.280931
3420.000000	53.119635
3419.000000	52.957053
3418.000000	52.792305
3417.000000	52.624945
3416.000000	52.456678
3415.000000	52.288856
3414.000000	52.120157
3413.000000	51.948316
3412.000000	51.772036
3411.000000	51.590358
3410.000000	51.402416
3409.000000	51.208716
3408.000000	51.010371
3407.000000	50.806009
3406.000000	50.592545
3405.000000	50.370085
3404.000000	50.143288
3403.000000	49.916775
3402.000000	49.691186
3401.000000	49.464089
3400.000000	49.231549
3399.000000	48.988370
3398.000000	48.730923
3397.000000	48.461271
3396.000000	48.185385
3395.000000	47.906646
3394.000000	47.623737
3393.000000	47.334984
3392.000000	47.040237
3391.000000	46.737327
3390.000000	46.422126
3389.000000	46.093559
3388.000000	45.755163
3387.000000	45.410030
3386.000000	45.057643
3385.000000	44.697459
3384.000000	44.330837
3383.000000	43.958163
3382.000000	43.577573
3381.000000	43.187969
3380.000000	42.790110
3379.000000	42.383240
3378.000000	41.964661
3377.000000	41.533886
3376.000000	41.092990
3375.000000	40.642220
3374.000000	40.179208
3373.000000	39.704058
3372.000000	39.221302
3371.000000	38.734379
3370.000000	38.242648
3369.000000	37.744360
3368.000000	37.238664
3367.000000	36.723589
3366.000000	36.196037
3365.000000	35.656064
3364.000000	35.107282
3363.000000	34.552159
3362.000000	33.990743
3361.000000	33.423912
3360.000000	32.853611
3359.000000	32.278943
3358.000000	31.696547
3357.000000	31.106363
3356.000000	30.512010
3355.000000	29.915319
3354.000000	29.315273
3353.000000	28.713110
3352.000000	28.113439
3351.000000	27.518593
3350.000000	26.926267
3349.000000	26.333909
3348.000000	25.741267
3347.000000	25.147986
3346.000000	24.553620
3345.000000	23.960904
3344.000000	23.374324
3343.000000	22.794601
3342.000000	22.218887
3341.000000	21.647076
3340.000000	21.083105
3339.000000	20.529447
3338.000000	19.985170
3337.000000	19.449751
3336.000000	18.924423
3335.000000	18.409040
3334.000000	17.902147
3333.000000	17.404964
3332.000000	16.920231
3331.000000	16.447421
3330.000000	15.983407
3329.000000	15.527738
3328.000000	15.083579
3327.000000	14.652898
3326.000000	14.235732
3325.000000	13.833408
3324.000000	13.447208
3323.000000	13.075005
3322.000000	12.713327
3321.000000	12.362535
3320.000000	12.025631
3319.000000	11.702035
3318.000000	11.388732
3317.000000	11.085687
3316.000000	10.795386
3315.000000	10.517798
3314.000000	10.250197
3313.000000	9.991863
3312.000000	9.743684
3311.000000	9.504170
3310.000000	9.271520
3309.000000	9.048050
3308.000000	8.838415
3307.000000	8.644000
3306.000000	8.463491
3305.000000	8.297549
3304.000000	8.146461
3303.000000	8.005709
3302.000000	7.869166
3301.000000	7.735648
3300.000000	7.607795
3299.000000	7.485779
3298.000000	7.368058
3297.000000	7.256494
3296.000000	7.154381
3295.000000	7.061090
3294.000000	6.973866
3293.000000	6.893857
3292.000000	6.824511
3291.000000	6.764577
3290.000000	6.709227
3289.000000	6.656571
3288.000000	6.608073
3287.000000	6.563677
3286.000000	6.521697
3285.000000	6.483027
3284.000000	6.449663
3283.000000	6.420369
3282.000000	6.392696
3281.000000	6.367719
3280.000000	6.347900
3279.000000	6.331521
3278.000000	6.314840
3277.000000	6.298311
3276.000000	6.285080
3275.000000	6.274820
3274.000000	6.264660
3273.000000	6.255491
3272.000000	6.251775
3271.000000	6.255444
3270.000000	6.264772
3269.000000	6.278154
3268.000000	6.294283
3267.000000	6.309981
3266.000000	6.322599
3265.000000	6.333830
3264.000000	6.346993
3263.000000	6.361846
3262.000000	6.376404
3261.000000	6.391517
3260.000000	6.409023
3259.000000	6.427445
3258.000000	6.444529
3257.000000	6.462270
3256.000000	6.484137
3255.000000	6.509144
3254.000000	6.533590
3253.000000	6.557002
3252.000000	6.581190
3251.000000	6.605246
3250.000000	6.626937
3249.000000	6.647772
3248.000000	6.671528
3247.000000	6.698700
3246.000000	6.726953
3245.000000	6.755651
3244.000000	6.785400
3243.000000	6.814557
3242.000000	6.841081
3241.000000	6.866497
3240.000000	6.893624
3239.000000	6.921580
3238.000000	6.947346
3237.000000	6.970765
3236.000000	6.994025
3235.000000	7.017949
3234.000000	7.042787
3233.000000	7.070587
3232.000000	7.102272
3231.000000	7.134288
3230.000000	7.162521
3229.000000	7.187621
3228.000000	7.212426
3227.000000	7.236585
3226.000000	7.258217
3225.000000	7.278557
3224.000000	7.299951
3223.000000	7.321307
3222.000000	7.340144
3221.000000	7.357338
3220.000000	7.375249
3219.000000	7.392951
3218.000000	7.407947
3217.000000	7.420715
3216.000000	7.433133
3215.000000	7.444370
3214.000000	7.452630
3213.000000	7.459128
3212.000000	7.465869
3211.000000	7.471475
3210.000000	7.473618
3209.000000	7.473474
3208.000000	7.473579
3207.000000	7.473224
3206.000000	7.470217
3205.000000	7.465234
3204.000000	7.460011
3203.000000	7.453443
3202.000000	7.443660
3201.000000	7.431850
3200.000000	7.419962
3199.000000	7.406694
3198.000000	7.390051
3197.000000	7.371560
3196.000000	7.353662
3195.000000	7.335305
3194.000000	7.314308
3193.000000	7.291767
3192.000000	7.269890
3191.000000	7.247753
3190.000000	7.223652
3189.000000	7.199174
3188.000000	7.176543
3187.000000	7.154168
3186.000000	7.129192
3185.000000	7.102355
3184.000000	7.076070
3183.000000	7.049992
3182.000000	7.022755
3181.000000	6.995769
3180.000000	6.971011
3179.000000	6.947219
3178.000000	6.922412
3177.000000	6.897973
3176.000000	6.876126
3175.000000	6.855713
3174.000000	6.834581
3173.000000	6.813758
3172.000000	6.795219
3171.000000	6.777971
3170.000000	6.760329
3169.000000	6.743601
3168.000000	6.729600
3167.000000	6.716953
3166.000000	6.703929
3165.000000	6.692242
3164.000000	6.684044
3163.000000	6.677895
3162.000000	6.671662
3161.000000	6.666792
3160.000000	6.665493
3159.000000	6.666307
3158.000000	6.666526
3157.000000	6.666384
3156.000000	6.667196
3155.000000	6.668270
3154.000000	6.669765
3153.000000	6.675675
3152.000000	6.689353
3151.000000	6.708614
3150.000000	6.729134
3149.000000	6.750124
3148.000000	6.772931
3147.000000	6.796930
3146.000000	6.821070
3145.000000	6.846677
3144.000000	6.874583
3143.000000	6.902372
3142.000000	6.928446
3141.000000	6.956261
3140.000000	6.990354
3139.000000	7.030588
3138.000000	7.074183
3137.000000	7.120427
3136.000000	7.169434
3135.000000	7.219157
3134.000000	7.267780
3133.000000	7.317069
3132.000000	7.369475
3131.000000	7.424498
3130.000000	7.481235
3129.000000	7.541426
3128.000000	7.606417
3127.000000	7.673788
3126.000000	7.740547
3125.000000	7.806872
3124.000000	7.873478
3123.000000	7.938914
3122.000000	8.003140
3121.000000	8.070275
3120.000000	8.143843
3119.000000	8.222277
3118.000000	8.303076
3117.000000	8.387891
3116.000000	8.479235
3115.000000	8.575299
3114.000000	8.672093
3113.000000	8.768243
3112.000000	8.864035
3111.000000	8.958950
3110.000000	9.054027
3109.000000	9.153364
3108.000000	9.259231
3107.000000	9.368304
3106.000000	9.476268
3105.000000	9.583233
3104.000000	9.691173
3103.000000	9.799782
3102.000000	9.908961
3101.000000	10.021930
3100.000000	10.141492
3099.000000	10.265578
3098.000000	10.390636
3097.000000	10.516625
3096.000000	10.644692
3095.000000	10.773000
3094.000000	10.899112
3093.000000	11.024332
3092.000000	11.151819
3091.000000	11.282374
3090.000000	11.415329
3089.000000	11.550968
3088.000000	11.688860
3087.000000	11.826634
3086.000000	11.963660
3085.000000	12.103330
3084.000000	12.248239
3083.000000	12.395974
3082.000000	12.543194
3081.000000	12.690834
3080.000000	12.841903
3079.000000	12.996750
3078.000000	13.154090
3077.000000	13.313913
3076.000000	13.475735
3075.000000	13.636687
3074.000000	13.794901
3073.000000	13.952309
3072.000000	14.110979
3071.000000	14.269505
3070.000000	14.426584
3069.000000	14.585216
3068.000000	14.749343
3067.000000	14.918559
3066.000000	15.089642
3065.000000	15.261203
3064.000000	15.433316
3063.000000	15.604777
3062.000000	15.774311
3061.000000	15.942705
3060.000000	16.110886
3059.000000	16.277907
3058.000000	16.443539
3057.000000	16.610419
3056.000000	16.780550
3055.000000	16.951961
3054.000000	17.122001
3053.000000	17.291802
3052.000000	17.464381
3051.000000	17.640160
3050.000000	17.817121
3049.000000	17.993549
3048.000000	18.168081
3047.000000	18.339112
3046.000000	18.506819
3045.000000	18.674050
3044.000000	18.843154
3043.000000	19.013909
3042.000000	19.186138
3041.000000	19.361251
3040.000000	19.538809
3039.000000	19.714649
3038.000000	19.885618
3037.000000	20.053870
3036.000000	20.223872
3035.000000	20.397306
3034.000000	20.573264
3033.000000	20.750850
3032.000000	20.928740
3031.000000	21.104418
3030.000000	21.276595
3029.000000	21.446543
3028.000000	21.615265
3027.000000	21.781936
3026.000000	21.947027
3025.000000	22.113783
3024.000000	22.283904
3023.000000	22.454691
3022.000000	22.623209
3021.000000	22.790487
3020.000000	22.958742
3019.000000	23.127151
3018.000000	23.293634
3017.000000	23.458503
3016.000000	23.623300
3015.000000	23.788114
3014.000000	23.952990
3013.000000	24.119935
3012.000000	24.290425
3011.000000	24.462606
3010.000000	24.633562
3009.000000	24.802750
3008.000000	24.970985
3007.000000	25.138119
3006.000000	25.304158
3005.000000	25.470699
3004.000000	25.638707
3003.000000	25.806300
3002.000000	25.970993
3001.000000	26.132671
3000.000000	26.292732
2999.000000	26.452106
2998.000000	26.611673
2997.000000	26.772427
2996.000000	26.933533
2995.000000	27.092670
2994.000000	27.250158
2993.000000	27.410050
2992.000000	27.574922
2991.000000	27.742194
2990.000000	27.907952
2989.000000	28.071758
2988.000000	28.234994
2987.000000	28.397065
2986.000000	28.556332
2985.000000	28.712974
2984.000000	28.868085
2983.000000	29.021689
2982.000000	29.174263
2981.000000	29.328348
2980.000000	29.485812
2979.000000	29.644949
2978.000000	29.802912
2977.000000	29.959685
2976.000000	30.117284
2975.000000	30.276438
2974.000000	30.436389
2973.000000	30.596492
2972.000000	30.755816
2971.000000	30.912514
2970.000000	31.065794
2969.000000	31.217280
2968.000000	31.368476
2967.000000	31.518531
2966.000000	31.666436
2965.000000	31.813743
2964.000000	31.962856
2963.000000	32.114074
2962.000000	32.266404
2961.000000	32.419560
2960.000000	32.573146
2959.000000	32.725543
2958.000000	32.875566
2957.000000	33.023670
2956.000000	33.169986
2955.000000	33.313418
2954.000000	33.454362
2953.000000	33.595527
2952.000000	33.737802
2951.000000	33.877890
2950.000000	34.012857
2949.000000	34.144721
2948.000000	34.277841
2947.000000	34.413905
2946.000000	34.552244
2945.000000	34.692941
2944.000000	34.836104
2943.000000	34.979407
2942.000000	35.119662
2941.000000	35.256306
2940.000000	35.390870
2939.000000	35.523967
2938.000000	35.655156
2937.000000	35.784800
2936.000000	35.913615
2935.000000	36.041250
2934.000000	36.167730
2933.000000	36.295413
2932.000000	36.427150
2931.000000	36.562987
2930.000000	36.700532
2929.000000	36.837734
2928.000000	36.973515
2927.000000	37.107003
2926.000000	37.238214
2925.000000	37.368460
2924.000000	37.498202
2923.000000	37.625674
2922.000000	37.749534
2921.000000	37.871396
2920.000000	37.993732
2919.000000	38.116679
2918.000000	38.238962
2917.000000	38.360652
2916.000000	38.482586
2915.000000	38.603965
2914.000000	38.722682
2913.000000	38.837561
2912.000000	38.948768
2911.000000	39.056699
2910.000000	39.162021
2909.000000	39.266055
2908.000000	39.369701
2907.000000	39.472575
2906.000000	39.574220
2905.000000	39.675091
2904.000000	39.775421
2903.000000	39.874048
2902.000000	39.970737
2901.000000	40.067334
2900.000000	40.166238
2899.000000	40.268306
2898.000000	40.372829
2897.000000	40.478528
2896.000000	40.582977
2895.000000	40.682924
2894.000000	40.777043
2893.000000	40.867376
2892.000000	40.956423
2891.000000	41.044027
2890.000000	41.128636
2889.000000	41.210185
2888.000000	41.289744
2887.000000	41.367423
2886.000000	41.442737
2885.000000	41.516245
2884.000000	41.588902
2883.000000	41.660355
2882.000000	41.729557
2881.000000	41.796395
2880.000000	41.861108
2879.000000	41.922901
2878.000000	41.981073
2877.000000	42.037076
2876.000000	42.093726
2875.000000	42.152443
2874.000000	42.212663
2873.000000	42.273598
2872.000000	42.335571
2871.000000	42.400451
2870.000000	42.471898
2869.000000	42.554436
2868.000000	42.650621
2867.000000	42.759401
2866.000000	42.878106
2865.000000	43.005032
2864.000000	43.139166
2863.000000	43.278892
2862.000000	43.422495
2861.000000	43.568856
2860.000000	43.716240
2859.000000	43.861495
2858.000000	44.002340
2857.000000	44.139678
2856.000000	44.276040
2855.000000	44.412606
2854.000000	44.549122
2853.000000	44.685629
2852.000000	44.822362
2851.000000	44.958568
2850.000000	45.093058
2849.000000	45.225357
2848.000000	45.354935
2847.000000	45.480203
2846.000000	45.599935
2845.000000	45.715026
2844.000000	45.827360
2843.000000	45.937681
2842.000000	46.046146
2841.000000	46.153969
2840.000000	46.262271
2839.000000	46.369767
2838.000000	46.473840
2837.000000	46.574100
2836.000000	46.673132
2835.000000	46.773542
2834.000000	46.875777
2833.000000	46.978867
2832.000000	47.081706
2831.000000	47.183189
2830.000000	47.282456
2829.000000	47.379575
2828.000000	47.475161
2827.000000	47.569293
2826.000000	47.661686
2825.000000	47.752753
2824.000000	47.843365
2823.000000	47.933690
2822.000000	48.023431
2821.000000	48.113127
2820.000000	48.203972
2819.000000	48.296351
2818.000000	48.389684
2817.000000	48.483611
2816.000000	48.578123
2815.000000	48.672583
2814.000000	48.766016
2813.000000	48.858463
2812.000000	48.950751
2811.000000	49.042661
2810.000000	49.132599
2809.000000	49.219563
2808.000000	49.304444
2807.000000	49.389003
2806.000000	49.474463
2805.000000	49.561252
2804.000000	49.649219
2803.000000	49.737773
2802.000000	49.826537
2801.000000	49.915999
2800.000000	50.006722
2799.000000	50.097908
2798.000000	50.187649
2797.000000	50.274713
2796.000000	50.359246
2795.000000	50.441781
2794.000000	50.522652
2793.000000	50.602526
2792.000000	50.682359
2791.000000	50.762383
2790.000000	50.841831
2789.000000	50.919897
2788.000000	50.996376
2787.000000	51.071411
2786.000000	51.145519
2785.000000	51.219796
2784.000000	51.295102
2783.000000	51.370920
2782.000000	51.445850
2781.000000	51.519278
2780.000000	51.591693
2779.000000	51.663509
2778.000000	51.734685
2777.000000	51.805292
2776.000000	51.875169
2775.000000	51.942949
2774.000000	52.006896
2773.000000	52.067167
2772.000000	52.126036
2771.000000	52.185560
2770.000000	52.246174
2769.000000	52.307768
2768.000000	52.370714
2767.000000	52.435181
2766.000000	52.500607
2765.000000	52.566628
2764.000000	52.633636
2763.000000	52.701838
2762.000000	52.770658
2761.000000	52.839537
2760.000000	52.908403
2759.000000	52.976923
2758.000000	53.044213
2757.000000	53.109788
2756.000000	53.174004
2755.000000	53.237181
2754.000000	53.299196
2753.000000	53.360329
2752.000000	53.421425
2751.000000	53.482676
2750.000000	53.543131
2749.000000	53.601837
2748.000000	53.658615
2747.000000	53.713365
2746.000000	53.765795
2745.000000	53.816471
2744.000000	53.866978
2743.000000	53.918383
2742.000000	53.970363
2741.000000	54.022350
2740.000000	54.074501
2739.000000	54.126875
2738.000000	54.178717
2737.000000	54.229362
2736.000000	54.279022
2735.000000	54.328040
2734.000000	54.376183
2733.000000	54.423313
2732.000000	54.469892
2731.000000	54.516255
2730.000000	54.562328
2729.000000	54.608554
2728.000000	54.656001
2727.000000	54.704817
2726.000000	54.753626
2725.000000	54.801275
2724.000000	54.848217
2723.000000	54.895341
2722.000000	54.942427
2721.000000	54.988678
2720.000000	55.033987
2719.000000	55.078716
2718.000000	55.122911
2717.000000	55.166535
2716.000000	55.209789
2715.000000	55.252550
2714.000000	55.294231
2713.000000	55.334892
2712.000000	55.375627
2711.000000	55.417082
2710.000000	55.458440
2709.000000	55.498582
2708.000000	55.537395
2707.000000	55.575154
2706.000000	55.611423
2705.000000	55.645508
2704.000000	55.677131
2703.000000	55.705905
2702.000000	55.731063
2701.000000	55.752485
2700.000000	55.771326
2699.000000	55.788716
2698.000000	55.804597
2697.000000	55.818656
2696.000000	55.831406
2695.000000	55.843582
2694.000000	55.855299
2693.000000	55.866613
2692.000000	55.878100
2691.000000	55.889821
2690.000000	55.900544
2689.000000	55.908857
2688.000000	55.914373
2687.000000	55.917257
2686.000000	55.917461
2685.000000	55.915374
2684.000000	55.912361
2683.000000	55.909672
2682.000000	55.907557
2681.000000	55.906114
2680.000000	55.906028
2679.000000	55.907671
2678.000000	55.910459
2677.000000	55.914071
2676.000000	55.919508
2675.000000	55.927900
2674.000000	55.938996
2673.000000	55.951863
2672.000000	55.966282
2671.000000	55.982752
2670.000000	56.001874
2669.000000	56.024536
2668.000000	56.052258
2667.000000	56.086284
2666.000000	56.127129
2665.000000	56.175493
2664.000000	56.232421
2663.000000	56.298107
2662.000000	56.371074
2661.000000	56.449549
2660.000000	56.532764
2659.000000	56.619799
2658.000000	56.708514
2657.000000	56.796570
2656.000000	56.882837
2655.000000	56.966872
2654.000000	57.047739
2653.000000	57.124599
2652.000000	57.197864
2651.000000	57.268684
2650.000000	57.337844
2649.000000	57.406128
2648.000000	57.474859
2647.000000	57.544932
2646.000000	57.615852
2645.000000	57.686551
2644.000000	57.756497
2643.000000	57.824970
2642.000000	57.890214
2641.000000	57.950484
2640.000000	58.005163
2639.000000	58.054117
2638.000000	58.096743
2637.000000	58.133023
2636.000000	58.164727
2635.000000	58.194090
2634.000000	58.222292
2633.000000	58.250190
2632.000000	58.279548
2631.000000	58.312091
2630.000000	58.347850
2629.000000	58.385704
2628.000000	58.424664
2627.000000	58.463373
2626.000000	58.499333
2625.000000	58.530240
2624.000000	58.555690
2623.000000	58.576272
2622.000000	58.591852
2621.000000	58.602308
2620.000000	58.609082
2619.000000	58.614560
2618.000000	58.620359
2617.000000	58.627410
2616.000000	58.637054
2615.000000	58.650387
2614.000000	58.666956
2613.000000	58.685283
2612.000000	58.704021
2611.000000	58.721457
2610.000000	58.734645
2609.000000	58.740689
2608.000000	58.738517
2607.000000	58.728195
2606.000000	58.709660
2605.000000	58.683222
2604.000000	58.650730
2603.000000	58.614827
2602.000000	58.577332
2601.000000	58.539835
2600.000000	58.504727
2599.000000	58.474089
2598.000000	58.448205
2597.000000	58.426499
2596.000000	58.409197
2595.000000	58.396894
2594.000000	58.389308
2593.000000	58.385867
2592.000000	58.387477
2591.000000	58.396000
2590.000000	58.412842
2589.000000	58.439345
2588.000000	58.477384
2587.000000	58.528863
2586.000000	58.594344
2585.000000	58.673549
2584.000000	58.766647
2583.000000	58.872981
2582.000000	58.989961
2581.000000	59.113906
2580.000000	59.241670
2579.000000	59.370514
2578.000000	59.496857
2577.000000	59.617539
2576.000000	59.731882
2575.000000	59.841137
2574.000000	59.946383
2573.000000	60.048418
2572.000000	60.149164
2571.000000	60.251383
2570.000000	60.357051
2569.000000	60.467097
2568.000000	60.582147
2567.000000	60.701885
2566.000000	60.824014
2565.000000	60.945347
2564.000000	61.063611
2563.000000	61.177071
2562.000000	61.283229
2561.000000	61.379874
2560.000000	61.467166
2559.000000	61.546931
2558.000000	61.620875
2557.000000	61.690909
2556.000000	61.760421
2555.000000	61.833139
2554.000000	61.910594
2553.000000	61.992398
2552.000000	62.078139
2551.000000	62.167023
2550.000000	62.256346
2549.000000	62.342390
2548.000000	62.422848
2547.000000	62.496651
2546.000000	62.562076
2545.000000	62.617376
2544.000000	62.662686
2543.000000	62.699847
2542.000000	62.730724
2541.000000	62.757284
2540.000000	62.782868
2539.000000	62.810511
2538.000000	62.840420
2537.000000	62.870586
2536.000000	62.898812
2535.000000	62.922636
2534.000000	62.937732
2533.000000	62.939356
2532.000000	62.925254
2531.000000	62.895041
2530.000000	62.848468
2529.000000	62.786113
2528.000000	62.711680
2527.000000	62.631401
2526.000000	62.551121
2525.000000	62.476249
2524.000000	62.413147
2523.000000	62.367701
2522.000000	62.342365
2521.000000	62.336800
2520.000000	62.350043
2519.000000	62.380482
2518.000000	62.424334
2517.000000	62.476291
2516.000000	62.532938
2515.000000	62.592873
2514.000000	62.654795
2513.000000	62.717887
2512.000000	62.783299
2511.000000	62.853744
2510.000000	62.930927
2509.000000	63.015400
2508.000000	63.108297
2507.000000	63.210373
2506.000000	63.319810
2505.000000	63.432637
2504.000000	63.545151
2503.000000	63.654015
2502.000000	63.754722
2501.000000	63.842793
2500.000000	63.916832
2499.000000	63.978418
2498.000000	64.029186
2497.000000	64.070949
2496.000000	64.107784
2495.000000	64.145348
2494.000000	64.187738
2493.000000	64.236616
2492.000000	64.293124
2491.000000	64.357762
2490.000000	64.428307
2489.000000	64.500175
2488.000000	64.568965
2487.000000	64.631124
2486.000000	64.682765
2485.000000	64.720763
2484.000000	64.745332
2483.000000	64.759284
2482.000000	64.765505
2481.000000	64.767068
2480.000000	64.769063
2479.000000	64.777466
2478.000000	64.795808
2477.000000	64.824914
2476.000000	64.864956
2475.000000	64.915057
2474.000000	64.971153
2473.000000	65.027167
2472.000000	65.078347
2471.000000	65.121566
2470.000000	65.153251
2469.000000	65.170326
2468.000000	65.173282
2467.000000	65.166152
2466.000000	65.153558
2465.000000	65.139910
2464.000000	65.130917
2463.000000	65.132459
2462.000000	65.147559
2461.000000	65.176212
2460.000000	65.217512
2459.000000	65.269128
2458.000000	65.325451
2457.000000	65.379098
2456.000000	65.424613
2455.000000	65.458904
2454.000000	65.479093
2453.000000	65.483234
2452.000000	65.473288
2451.000000	65.454811
2450.000000	65.433486
2449.000000	65.414346
2448.000000	65.403253
2447.000000	65.405732
2446.000000	65.423899
2445.000000	65.456596
2444.000000	65.501666
2443.000000	65.555731
2442.000000	65.612264
2441.000000	65.663104
2440.000000	65.702361
2439.000000	65.727014
2438.000000	65.734766
2437.000000	65.724422
2436.000000	65.698553
2435.000000	65.662347
2434.000000	65.620269
2433.000000	65.575599
2432.000000	65.532021
2431.000000	65.493005
2430.000000	65.460798
2429.000000	65.439741
2428.000000	65.439781
2427.000000	65.472179
2426.000000	65.539303
2425.000000	65.630878
2424.000000	65.729384
2423.000000	65.817611
2422.000000	65.883254
2421.000000	65.921519
2420.000000	65.936407
2419.000000	65.937318
2418.000000	65.933551
2417.000000	65.932749
2416.000000	65.942510
2415.000000	65.969050
2414.000000	66.013513
2413.000000	66.072036
2412.000000	66.139403
2411.000000	66.210276
2410.000000	66.277710
2409.000000	66.334264
2408.000000	66.375617
2407.000000	66.400965
2406.000000	66.410631
2405.000000	66.406142
2404.000000	66.392469
2403.000000	66.377073
2402.000000	66.366143
2401.000000	66.364114
2400.000000	66.375734
2399.000000	66.405028
2398.000000	66.451665
2397.000000	66.511174
2396.000000	66.578410
2395.000000	66.648466
2394.000000	66.714914
2393.000000	66.770814
2392.000000	66.812423
2391.000000	66.839643
2390.000000	66.853385
2389.000000	66.855372
2388.000000	66.850431
2387.000000	66.845426
2386.000000	66.845700
2385.000000	66.854667
2384.000000	66.875979
2383.000000	66.912519
2382.000000	66.963486
2381.000000	67.025453
2380.000000	67.096311
2379.000000	67.175597
2378.000000	67.260528
2377.000000	67.345831
2376.000000	67.427608
2375.000000	67.503694
2374.000000	67.570845
2373.000000	67.624897
2372.000000	67.665833
2371.000000	67.698893
2370.000000	67.729276
2369.000000	67.760249
2368.000000	67.797408
2367.000000	67.847854
2366.000000	67.912077
2365.000000	67.983837
2364.000000	68.061259
2363.000000	68.143937
2362.000000	68.225007
2361.000000	68.298780
2360.000000	68.363203
2359.000000	68.422765
2358.000000	68.481327
2357.000000	68.535687
2356.000000	68.589727
2355.000000	68.644222
2354.000000	68.692761
2353.000000	68.731682
2352.000000	68.776006
2351.000000	68.850119
2350.000000	68.946470
2349.000000	69.040877
2348.000000	69.116086
2347.000000	69.174336
2346.000000	69.236145
2345.000000	69.312472
2344.000000	69.401964
2343.000000	69.480284
2342.000000	69.532858
2341.000000	69.567735
2340.000000	69.596622
2339.000000	69.633013
2338.000000	69.681238
2337.000000	69.745104
2336.000000	69.826116
2335.000000	69.922919
2334.000000	70.024630
2333.000000	70.119922
2332.000000	70.203773
2331.000000	70.284372
2330.000000	70.358355
2329.000000	70.423511
2328.000000	70.478556
2327.000000	70.524715
2326.000000	70.565732
2325.000000	70.598099
2324.000000	70.633164
2323.000000	70.679290
2322.000000	70.742586
2321.000000	70.820681
2320.000000	70.909141
2319.000000	71.006483
2318.000000	71.102347
2317.000000	71.186985
2316.000000	71.251295
2315.000000	71.296914
2314.000000	71.325586
2313.000000	71.342158
2312.000000	71.352902
2311.000000	71.365841
2310.000000	71.385079
2309.000000	71.411884
2308.000000	71.450587
2307.000000	71.505472
2306.000000	71.576785
2305.000000	71.658632
2304.000000	71.746406
2303.000000	71.836873
2302.000000	71.925043
2301.000000	72.004918
2300.000000	72.073401
2299.000000	72.130678
2298.000000	72.175820
2297.000000	72.207965
2296.000000	72.231065
2295.000000	72.252334
2294.000000	72.277712
2293.000000	72.309732
2292.000000	72.353005
2291.000000	72.411275
2290.000000	72.483767
2289.000000	72.564374
2288.000000	72.648910
2287.000000	72.734726
2286.000000	72.816640
2285.000000	72.886554
2284.000000	72.939737
2283.000000	72.976258
2282.000000	72.997447
2281.000000	73.005654
2280.000000	73.007250
2279.000000	73.011134
2278.000000	73.022828
2277.000000	73.044660
2276.000000	73.079500
2275.000000	73.130523
2274.000000	73.195740
2273.000000	73.268669
2272.000000	73.343810
2271.000000	73.417222
2270.000000	73.482620
2269.000000	73.532369
2268.000000	73.563562
2267.000000	73.578396
2266.000000	73.579168
2265.000000	73.568130
2264.000000	73.551727
2263.000000	73.539195
2262.000000	73.536656
2261.000000	73.546109
2260.000000	73.570180
2259.000000	73.611093
2258.000000	73.665705
2257.000000	73.726299
2256.000000	73.786337
2255.000000	73.841196
2254.000000	73.883666
2253.000000	73.906046
2252.000000	73.906457
2251.000000	73.888889
2250.000000	73.857065
2249.000000	73.813650
2248.000000	73.765415
2247.000000	73.722355
2246.000000	73.690839
2245.000000	73.672555
2244.000000	73.669288
2243.000000	73.682596
2242.000000	73.708564
2241.000000	73.738260
2240.000000	73.764109
2239.000000	73.781120
2238.000000	73.782980
2237.000000	73.763173
2236.000000	73.720971
2235.000000	73.661192
2234.000000	73.588346
2233.000000	73.506310
2232.000000	73.422953
2231.000000	73.348809
2230.000000	73.290120
2229.000000	73.248001
2228.000000	73.223317
2227.000000	73.216589
2226.000000	73.222918
2225.000000	73.232831
2224.000000	73.238832
2223.000000	73.236588
2222.000000	73.220498
2221.000000	73.184544
2220.000000	73.128402
2219.000000	73.057551
2218.000000	72.977496
2217.000000	72.892885
2216.000000	72.811753
2215.000000	72.744072
2214.000000	72.695408
2213.000000	72.666278
2212.000000	72.657043
2211.000000	72.667587
2210.000000	72.692241
2209.000000	72.720870
2208.000000	72.745587
2207.000000	72.762019
2206.000000	72.764862
2205.000000	72.748913
2204.000000	72.715050
2203.000000	72.669800
2202.000000	72.618895
2201.000000	72.566570
2200.000000	72.520256
2199.000000	72.489332
2198.000000	72.478203
2197.000000	72.485573
2196.000000	72.510217
2195.000000	72.551395
2194.000000	72.603530
2193.000000	72.656515
2192.000000	72.702531
2191.000000	72.737573
2190.000000	72.757017
2189.000000	72.756129
2188.000000	72.736022
2187.000000	72.703618
2186.000000	72.665122
2185.000000	72.624725
2184.000000	72.589054
2183.000000	72.566399
2182.000000	72.560330
2181.000000	72.569103
2180.000000	72.590978
2179.000000	72.624541
2178.000000	72.663878
2177.000000	72.699600
2176.000000	72.725476
2175.000000	72.739267
2174.000000	72.737774
2173.000000	72.717574
2172.000000	72.681229
2171.000000	72.636690
2170.000000	72.590179
2169.000000	72.545099
2168.000000	72.507336
2167.000000	72.484517
2166.000000	72.479157
2165.000000	72.487884
2164.000000	72.507580
2163.000000	72.536547
2162.000000	72.569620
2161.000000	72.598498
2160.000000	72.618065
2159.000000	72.627329
2158.000000	72.624360
2157.000000	72.606778
2156.000000	72.577561
2155.000000	72.544262
2154.000000	72.511964
2153.000000	72.482591
2152.000000	72.460417
2151.000000	72.451451
2150.000000	72.456605
2149.000000	72.471313
2148.000000	72.492257
2147.000000	72.518418
2146.000000	72.545486
2145.000000	72.565822
2144.000000	72.575213
2143.000000	72.574080
2142.000000	72.562122
2141.000000	72.538283
2140.000000	72.506365
2139.000000	72.474212
2138.000000	72.446566
2137.000000	72.424279
2136.000000	72.410145
2135.000000	72.408689
2134.000000	72.419499
2133.000000	72.437152
2132.000000	72.458129
2131.000000	72.481758
2130.000000	72.504275
2129.000000	72.519038
2128.000000	72.523590
2127.000000	72.520543
2126.000000	72.511188
2125.000000	72.494722
2124.000000	72.474262
2123.000000	72.456825
2122.000000	72.446334
2121.000000	72.442409
2120.000000	72.446245
2119.000000	72.460769
2118.000000	72.484430
2117.000000	72.511461
2116.000000	72.539075
2115.000000	72.568231
2114.000000	72.597056
2113.000000	72.620334
2112.000000	72.636568
2111.000000	72.649161
2110.000000	72.660026
2109.000000	72.668788
2108.000000	72.678681
2107.000000	72.696343
2106.000000	72.724502
2105.000000	72.761121
2104.000000	72.805991
2103.000000	72.861192
2102.000000	72.924685
2101.000000	72.990219
2100.000000	73.054614
2099.000000	73.118549
2098.000000	73.179779
2097.000000	73.233290
2096.000000	73.279142
2095.000000	73.323181
2094.000000	73.368837
2093.000000	73.414890
2092.000000	73.462188
2091.000000	73.515140
2090.000000	73.575110
2089.000000	73.638876
2088.000000	73.704575
2087.000000	73.772517
2086.000000	73.839381
2085.000000	73.898665
2084.000000	73.948034
2083.000000	73.989658
2082.000000	74.022748
2081.000000	74.043158
2080.000000	74.051269
2079.000000	74.052833
2078.000000	74.051026
2077.000000	74.044994
2076.000000	74.036232
2075.000000	74.029451
2074.000000	74.025698
2073.000000	74.021668
2072.000000	74.017215
2071.000000	74.015661
2070.000000	74.016225
2069.000000	74.013258
2068.000000	74.004120
2067.000000	73.991249
2066.000000	73.976338
2065.000000	73.959769
2064.000000	73.945419
2063.000000	73.938520
2062.000000	73.938551
2061.000000	73.941258
2060.000000	73.947450
2059.000000	73.962713
2058.000000	73.988293
2057.000000	74.020208
2056.000000	74.057522
2055.000000	74.103273
2054.000000	74.156670
2053.000000	74.212422
2052.000000	74.268910
2051.000000	74.329059
2050.000000	74.392233
2049.000000	74.454048
2048.000000	74.515026
2047.000000	74.580738
2046.000000	74.652792
2045.000000	74.727457
2044.000000	74.804234
2043.000000	74.887841
2042.000000	74.980889
2041.000000	75.082306
2040.000000	75.192870
2039.000000	75.314674
2038.000000	75.444659
2037.000000	75.576208
2036.000000	75.707896
2035.000000	75.842817
2034.000000	75.979447
2033.000000	76.112021
2032.000000	76.239590
2031.000000	76.366379
2030.000000	76.492289
2029.000000	76.612888
2028.000000	76.729103
2027.000000	76.847461
2026.000000	76.970147
2025.000000	77.093642
2024.000000	77.218876
2023.000000	77.351524
2022.000000	77.491178
2021.000000	77.630124
2020.000000	77.764238
2019.000000	77.896200
2018.000000	78.027294
2017.000000	78.155295
2016.000000	78.279877
2015.000000	78.401121
2014.000000	78.513239
2013.000000	78.609037
2012.000000	78.690763
2011.000000	78.768062
2010.000000	78.845717
2009.000000	78.923180
2008.000000	79.004493
2007.000000	79.097479
2006.000000	79.202879
2005.000000	79.313326
2004.000000	79.425038
2003.000000	79.538236
2002.000000	79.647815
2001.000000	79.744112
2000.000000	79.823347
1999.000000	79.889862
1998.000000	79.943858
1997.000000	79.979181
1996.000000	79.995444
1995.000000	80.001782
1994.000000	80.008175
1993.000000	80.023715
1992.000000	80.062267
1991.000000	80.133345
1990.000000	80.227701
1989.000000	80.327421
1988.000000	80.426609
1987.000000	80.528032
1986.000000	80.625467
1985.000000	80.704571
1984.000000	80.760256
1983.000000	80.797348
1982.000000	80.816821
1981.000000	80.815954
1980.000000	80.801416
1979.000000	80.789332
1978.000000	80.788260
1977.000000	80.797347
1976.000000	80.821171
1975.000000	80.869735
1974.000000	80.941875
1973.000000	81.023849
1972.000000	81.105712
1971.000000	81.184097
1970.000000	81.249737
1969.000000	81.289531
1968.000000	81.303660
1967.000000	81.306021
1966.000000	81.302999
1965.000000	81.287824
1964.000000	81.260850
1963.000000	81.235762
1962.000000	81.222706
1961.000000	81.223139
1960.000000	81.242465
1959.000000	81.289389
1958.000000	81.359534
1957.000000	81.436893
1956.000000	81.512409
1955.000000	81.586157
1954.000000	81.650189
1953.000000	81.688268
1952.000000	81.695542
1951.000000	81.679834
1950.000000	81.646210
1949.000000	81.595415
1948.000000	81.535647
1947.000000	81.480840
1946.000000	81.436636
1945.000000	81.404688
1944.000000	81.398900
1943.000000	81.439916
1942.000000	81.528911
1941.000000	81.638012
1940.000000	81.737575
1939.000000	81.816417
1938.000000	81.867157
1937.000000	81.879330
1936.000000	81.854705
1935.000000	81.808594
1934.000000	81.750484
1933.000000	81.682044
1932.000000	81.614921
1931.000000	81.567562
1930.000000	81.548847
1929.000000	81.553664
1928.000000	81.577445
1927.000000	81.619539
1926.000000	81.669088
1925.000000	81.710723
1924.000000	81.737667
1923.000000	81.752926
1922.000000	81.754675
1921.000000	81.730512
1920.000000	81.680609
1919.000000	81.621809
1918.000000	81.563935
1917.000000	81.506547
1916.000000	81.453821
1915.000000	81.418779
1914.000000	81.407106
1913.000000	81.410697
1912.000000	81.424706
1911.000000	81.451930
1910.000000	81.489658
1909.000000	81.523329
1908.000000	81.542115
1907.000000	81.545372
1906.000000	81.527430
1905.000000	81.479855
1904.000000	81.405507
1903.000000	81.320504
1902.000000	81.240831
1901.000000	81.172157
1900.000000	81.119708
1899.000000	81.093042
1898.000000	81.092929
1897.000000	81.111497
1896.000000	81.144785
1895.000000	81.191566
1894.000000	81.236984
1893.000000	81.255141
1892.000000	81.238733
1891.000000	81.204860
1890.000000	81.169118
1889.000000	81.134132
1888.000000	81.097183
1887.000000	81.059100
1886.000000	81.024115
1885.000000	80.996382
1884.000000	80.984689
1883.000000	80.999460
1882.000000	81.039567
1881.000000	81.089721
1880.000000	81.137268
1879.000000	81.180677
1878.000000	81.213086
1877.000000	81.219294
1876.000000	81.194587
1875.000000	81.144920
1874.000000	81.068335
1873.000000	80.957749
1872.000000	80.824903
1871.000000	80.706762
1870.000000	80.633654
1869.000000	80.609508
1868.000000	80.633107
1867.000000	80.699541
1866.000000	80.786029
1865.000000	80.862862
1864.000000	80.913159
1863.000000	80.935045
1862.000000	80.927358
1861.000000	80.885143
1860.000000	80.812137
1859.000000	80.723298
1858.000000	80.630301
1857.000000	80.536797
1856.000000	80.452024
1855.000000	80.391295
1854.000000	80.361639
1853.000000	80.355756
1852.000000	80.364274
1851.000000	80.385749
1850.000000	80.408607
1849.000000	80.413164
1848.000000	80.399097
1847.000000	80.382321
1846.000000	80.365830
1845.000000	80.323865
1844.000000	80.227109
1843.000000	80.085755
1842.000000	79.939734
1841.000000	79.816521
1840.000000	79.724773
1839.000000	79.666092
1838.000000	79.636725
1837.000000	79.631395
1836.000000	79.644982
1835.000000	79.664174
1834.000000	79.662493
1833.000000	79.617101
1832.000000	79.541921
1831.000000	79.466139
1830.000000	79.382402
1829.000000	79.264086
1828.000000	79.106533
1827.000000	78.939520
1826.000000	78.798692
1825.000000	78.698028
1824.000000	78.641572
1823.000000	78.626664
1822.000000	78.637291
1821.000000	78.652880
1820.000000	78.664830
1819.000000	78.674485
1818.000000	78.674929
1817.000000	78.654067
1816.000000	78.603428
1815.000000	78.516126
1814.000000	78.383120
1813.000000	78.204639
1812.000000	78.010461
1811.000000	77.839850
1810.000000	77.707209
1809.000000	77.606447
1808.000000	77.536034
1807.000000	77.500539
1806.000000	77.487896
1805.000000	77.471380
1804.000000	77.434340
1803.000000	77.383407
1802.000000	77.333768
1801.000000	77.292865
1800.000000	77.260206
1799.000000	77.214805
1798.000000	77.123487
1797.000000	76.981040
1796.000000	76.820438
1795.000000	76.676009
1794.000000	76.554374
1793.000000	76.440833
1792.000000	76.342960
1791.000000	76.297721
1790.000000	76.311114
1789.000000	76.346687
1788.000000	76.369809
1787.000000	76.368550
1786.000000	76.338655
1785.000000	76.274086
1784.000000	76.174195
1783.000000	76.050115
1782.000000	75.910126
1781.000000	75.752797
1780.000000	75.594590
1779.000000	75.457272
1778.000000	75.347683
1777.000000	75.277221
1776.000000	75.265420
1775.000000	75.304486
1774.000000	75.342742
1773.000000	75.309846
1772.000000	75.190441
1771.000000	75.048056
1770.000000	74.925965
1769.000000	74.812333
1768.000000	74.692233
1767.000000	74.568625
1766.000000	74.442253
1765.000000	74.303818
1764.000000	74.159912
1763.000000	74.036957
1762.000000	73.940348
1761.000000	73.848024
1760.000000	73.756022
1759.000000	73.686066
1758.000000	73.652615
1757.000000	73.641772
1756.000000	73.645341
1755.000000	73.670691
1754.000000	73.686169
1753.000000	73.615872
1752.000000	73.417928
1751.000000	73.139051
1750.000000	72.863478
1749.000000	72.641947
1748.000000	72.485233
1747.000000	72.380252
1746.000000	72.287543
1745.000000	72.171105
1744.000000	72.045486
1743.000000	71.954159
1742.000000	71.906345
1741.000000	71.866355
1740.000000	71.798464
1739.000000	71.713697
1738.000000	71.671315
1737.000000	71.681823
1736.000000	71.687822
1735.000000	71.600455
1734.000000	71.308555
1733.000000	70.821728
1732.000000	70.308706
1731.000000	69.928786
1730.000000	69.702068
1729.000000	69.544945
1728.000000	69.393338
1727.000000	69.238144
1726.000000	69.070112
1725.000000	68.863160
1724.000000	68.615989
1723.000000	68.359742
1722.000000	68.137872
1721.000000	67.980135
1720.000000	67.887592
1719.000000	67.786649
1718.000000	67.516405
1717.000000	67.023647
1716.000000	66.458306
1715.000000	65.991590
1714.000000	65.661748
1713.000000	65.395239
1712.000000	65.126976
1711.000000	64.849319
1710.000000	64.557018
1709.000000	64.227185
1708.000000	63.867753
1707.000000	63.510681
1706.000000	63.155484
1705.000000	62.809861
1704.000000	62.538971
1703.000000	62.339021
1702.000000	62.140881
1701.000000	61.897954
1700.000000	61.574857
1699.000000	61.258128
1698.000000	61.021965
1697.000000	60.749805
1696.000000	60.309894
1695.000000	59.719263
1694.000000	59.115019
1693.000000	58.612103
1692.000000	58.202037
1691.000000	57.808804
1690.000000	57.413324
1689.000000	57.087304
1688.000000	56.900874
1687.000000	56.775014
1686.000000	56.522087
1685.000000	55.968568
1684.000000	55.166693
1683.000000	54.432858
1682.000000	53.905100
1681.000000	53.484860
1680.000000	53.087508
1679.000000	52.707286
1678.000000	52.353312
1677.000000	51.980669
1676.000000	51.544448
1675.000000	51.059152
1674.000000	50.579172
1673.000000	50.131446
1672.000000	49.712752
1671.000000	49.304818
1670.000000	48.873977
1669.000000	48.406665
1668.000000	47.940445
1667.000000	47.526888
1666.000000	47.162404
1665.000000	46.794104
1664.000000	46.384170
1663.000000	45.941238
1662.000000	45.500720
1661.000000	45.076358
1660.000000	44.663745
1659.000000	44.274830
1658.000000	43.944222
1657.000000	43.721316
1656.000000	43.601218
1655.000000	43.516650
1654.000000	43.297589
1653.000000	42.766519
1652.000000	42.017231
1651.000000	41.308425
1650.000000	40.806642
1649.000000	40.487006
1648.000000	40.198933
1647.000000	39.856099
1646.000000	39.485056
1645.000000	39.098545
1644.000000	38.705948
1643.000000	38.353385
1642.000000	38.042106
1641.000000	37.731188
1640.000000	37.426556
1639.000000	37.177654
1638.000000	36.984993
1637.000000	36.767266
1636.000000	36.463541
1635.000000	36.134028
1634.000000	35.843729
1633.000000	35.590950
1632.000000	35.366028
1631.000000	35.163166
1630.000000	34.974157
1629.000000	34.782339
1628.000000	34.584536
1627.000000	34.407304
1626.000000	34.263988
1625.000000	34.132394
1624.000000	33.993061
1623.000000	33.860930
1622.000000	33.765364
1621.000000	33.721684
1620.000000	33.742954
1619.000000	33.824330
1618.000000	33.910431
1617.000000	33.914294
1616.000000	33.810013
1615.000000	33.679053
1614.000000	33.605394
1613.000000	33.591774
1612.000000	33.600224
1611.000000	33.618153
1610.000000	33.654802
1609.000000	33.701698
1608.000000	33.747478
1607.000000	33.806692
1606.000000	33.893412
1605.000000	33.993803
1604.000000	34.094778
1603.000000	34.208584
1602.000000	34.345431
1601.000000	34.489977
1600.000000	34.625976
1599.000000	34.759567
1598.000000	34.897427
1597.000000	35.027150
1596.000000	35.139098
1595.000000	35.246004
1594.000000	35.361014
1593.000000	35.475697
1592.000000	35.581222
1591.000000	35.690239
1590.000000	35.816691
1589.000000	35.953244
1588.000000	36.089469
1587.000000	36.232684
1586.000000	36.389238
1585.000000	36.544562
1584.000000	36.685600
1583.000000	36.820224
1582.000000	36.955486
1581.000000	37.093794
1580.000000	37.260685
1579.000000	37.485802
1578.000000	37.739936
1577.000000	37.927186
1576.000000	37.975784
1575.000000	37.923563
1574.000000	37.872489
1573.000000	37.883750
1572.000000	37.956004
1571.000000	38.080059
1570.000000	38.250782
1569.000000	38.431312
1568.000000	38.576827
1567.000000	38.693972
1566.000000	38.819336
1565.000000	38.974467
1564.000000	39.163373
1563.000000	39.400070
1562.000000	39.622401
1561.000000	39.780428
1560.000000	39.903150
1559.000000	40.022581
1558.000000	40.195696
1557.000000	40.348293
1556.000000	40.466783
1555.000000	40.632177
1554.000000	40.831689
1553.000000	41.014883
1552.000000	41.172257
1551.000000	41.354891
1550.000000	41.595768
1549.000000	41.871555
1548.000000	42.128895
1547.000000	42.355120
1546.000000	42.585615
1545.000000	42.850826
1544.000000	43.168259
1543.000000	43.564316
1542.000000	44.068391
1541.000000	44.651885
1540.000000	45.232696
1539.000000	45.697013
1538.000000	45.951056
1537.000000	46.084083
1536.000000	46.256995
1535.000000	46.552902
1534.000000	46.988345
1533.000000	47.494012
1532.000000	47.969959
1531.000000	48.374132
1530.000000	48.738938
1529.000000	49.114933
1528.000000	49.526954
1527.000000	49.985830
1526.000000	50.493017
1525.000000	51.028494
1524.000000	51.581122
1523.000000	52.162676
1522.000000	52.758911
1521.000000	53.284754
1520.000000	53.654841
1519.000000	53.931681
1518.000000	54.255133
1517.000000	54.665341
1516.000000	55.112944
1515.000000	55.545888
1514.000000	55.941811
1513.000000	56.295591
1512.000000	56.613232
1511.000000	56.939568
1510.000000	57.322181
1509.000000	57.788122
1508.000000	58.319235
1507.000000	58.954851
1506.000000	59.680965
1505.000000	60.180984
1504.000000	60.386379
1503.000000	60.558611
1502.000000	60.822148
1501.000000	61.167432
1500.000000	61.582538
1499.000000	62.091688
1498.000000	62.663031
1497.000000	63.192797
1496.000000	63.595552
1495.000000	63.865154
1494.000000	64.050963
1493.000000	64.198213
1492.000000	64.348486
1491.000000	64.550673
1490.000000	64.811048
1489.000000	65.094689
1488.000000	65.381387
1487.000000	65.667616
1486.000000	65.924646
1485.000000	66.099260
1484.000000	66.180165
1483.000000	66.209131
1482.000000	66.196300
1481.000000	66.103135
1480.000000	65.912509
1479.000000	65.642955
1478.000000	65.291220
1477.000000	64.841054
1476.000000	64.316353
1475.000000	63.724083
1474.000000	62.938075
1473.000000	61.781395
1472.000000	60.321729
1471.000000	58.792813
1470.000000	57.235943
1469.000000	55.534178
1468.000000	53.599441
1467.000000	51.349695
1466.000000	48.620113
1465.000000	45.342609
1464.000000	41.837962
1463.000000	38.552714
1462.000000	35.599936
1461.000000	32.875860
1460.000000	30.307211
1459.000000	27.800469
1458.000000	25.141035
1457.000000	22.384802
1456.000000	20.139582
1455.000000	18.761518
1454.000000	18.001388
1453.000000	17.589500
1452.000000	17.477534
1451.000000	17.698703
1450.000000	18.250181
1449.000000	19.141709
1448.000000	20.405174
1447.000000	21.962839
1446.000000	23.644406
1445.000000	25.361959
1444.000000	27.137849
1443.000000	28.975887
1442.000000	30.804985
1441.000000	32.541783
1440.000000	34.152318
1439.000000	35.673759
1438.000000	37.222143
1437.000000	38.891704
1436.000000	40.537263
1435.000000	41.890007
1434.000000	42.915323
1433.000000	43.758698
1432.000000	44.501909
1431.000000	45.126636
1430.000000	45.596318
1429.000000	45.903976
1428.000000	46.048506
1427.000000	46.036356
1426.000000	45.904183
1425.000000	45.702009
1424.000000	45.487792
1423.000000	45.322207
1422.000000	45.223917
1421.000000	45.165640
1420.000000	45.130500
1419.000000	45.140749
1418.000000	45.243560
1417.000000	45.474661
1416.000000	45.831434
1415.000000	46.278417
1414.000000	46.776577
1413.000000	47.308316
1412.000000	47.865844
1411.000000	48.429824
1410.000000	48.975117
1409.000000	49.484249
1408.000000	49.941452
1407.000000	50.334819
1406.000000	50.678356
1405.000000	50.998687
1404.000000	51.289827
1403.000000	51.512685
1402.000000	51.649770
1401.000000	51.722315
1400.000000	51.746633
1399.000000	51.719290
1398.000000	51.644246
1397.000000	51.524757
1396.000000	51.330009
1395.000000	51.018537
1394.000000	50.575796
1393.000000	49.987107
1392.000000	49.207280
1391.000000	48.164261
1390.000000	46.728995
1389.000000	44.666146
1388.000000	41.754489
1387.000000	38.201905
1386.000000	34.860159
1385.000000	32.744694
1384.000000	32.460732
1383.000000	34.022123
1382.000000	36.844141
1381.000000	40.002833
1380.000000	42.734671
1379.000000	44.719535
1378.000000	46.010881
1377.000000	46.832421
1376.000000	47.414584
1375.000000	47.915891
1374.000000	48.401658
1373.000000	48.861761
1372.000000	49.259822
1371.000000	49.579532
1370.000000	49.832072
1369.000000	50.033269
1368.000000	50.187964
1367.000000	50.288542
1366.000000	50.321974
1365.000000	50.283233
1364.000000	50.176967
1363.000000	50.017089
1362.000000	49.830150
1361.000000	49.634982
1360.000000	49.427812
1359.000000	49.204151
1358.000000	48.979797
1357.000000	48.787214
1356.000000	48.660577
1355.000000	48.623636
1354.000000	48.681242
1353.000000	48.815770
1352.000000	48.989916
1351.000000	49.154890
1350.000000	49.261545
1349.000000	49.265671
1348.000000	49.131182
1347.000000	48.833460
1346.000000	48.357275
1345.000000	47.696742
1344.000000	46.858464
1343.000000	45.852384
1342.000000	44.677968
1341.000000	43.325015
1340.000000	41.804610
1339.000000	40.175925
1338.000000	38.500245
1337.000000	36.784214
1336.000000	34.996233
1335.000000	33.113474
1334.000000	31.135389
1333.000000	29.072996
1332.000000	26.957884
1331.000000	24.853703
1330.000000	22.833224
1329.000000	20.948584
1328.000000	19.236043
1327.000000	17.722597
1326.000000	16.406301
1325.000000	15.253768
1324.000000	14.232551
1323.000000	13.332700
1322.000000	12.544400
1321.000000	11.846525
1320.000000	11.241481
1319.000000	10.769698
1318.000000	10.479311
1317.000000	10.399329
1316.000000	10.548176
1315.000000	10.942903
1314.000000	11.572863
1313.000000	12.394653
1312.000000	13.362481
1311.000000	14.441422
1310.000000	15.598356
1309.000000	16.798234
1308.000000	18.017655
1307.000000	19.243587
1306.000000	20.455635
1305.000000	21.629155
1304.000000	22.753588
1303.000000	23.832087
1302.000000	24.865913
1301.000000	25.853738
1300.000000	26.801044
1299.000000	27.716018
1298.000000	28.596691
1297.000000	29.434769
1296.000000	30.233833
1295.000000	31.013632
1294.000000	31.799569
1293.000000	32.617421
1292.000000	33.493449
1291.000000	34.446920
1290.000000	35.482281
1289.000000	36.592151
1288.000000	37.762840
1287.000000	38.971979
1286.000000	40.186487
1285.000000	41.370756
1284.000000	42.494095
1283.000000	43.529890
1282.000000	44.455124
1281.000000	45.256755
1280.000000	45.931598
1279.000000	46.483240
1278.000000	46.925173
1277.000000	47.281319
1276.000000	47.583897
1275.000000	47.869208
1274.000000	48.176262
1273.000000	48.545098
1272.000000	49.008851
1271.000000	49.585213
1270.000000	50.276288
1269.000000	51.072634
1268.000000	51.952620
1267.000000	52.885353
1266.000000	53.839724
1265.000000	54.791625
1264.000000	55.721066
1263.000000	56.609435
1262.000000	57.446914
1261.000000	58.235089
1260.000000	58.975140
1259.000000	59.660658
1258.000000	60.288397
1257.000000	60.861294
1256.000000	61.377724
1255.000000	61.828204
1254.000000	62.205427
1253.000000	62.511061
1252.000000	62.744354
1251.000000	62.899198
1250.000000	62.976401
1249.000000	62.984023
1248.000000	62.927054
1247.000000	62.803098
1246.000000	62.613127
1245.000000	62.366004
1244.000000	62.065989
1243.000000	61.710669
1242.000000	61.299341
1241.000000	60.835253
1240.000000	60.320185
1239.000000	59.753741
1238.000000	59.143427
1237.000000	58.505444
1236.000000	57.856019
1235.000000	57.209951
1234.000000	56.585792
1233.000000	56.004467
1232.000000	55.482340
1231.000000	55.030573
1230.000000	54.658301
1229.000000	54.374557
1228.000000	54.182587
1227.000000	54.078599
1226.000000	54.058085
1225.000000	54.115518
1224.000000	54.242998
1223.000000	54.429062
1222.000000	54.663459
1221.000000	54.942132
1220.000000	55.261565
1219.000000	55.616845
1218.000000	56.004710
1217.000000	56.424688
1216.000000	56.875446
1215.000000	57.351300
1214.000000	57.847615
1213.000000	58.363113
1212.000000	58.893438
1211.000000	59.428375
1210.000000	59.958215
1209.000000	60.477801
1208.000000	60.981241
1207.000000	61.460456
1206.000000	61.913019
1205.000000	62.345293
1204.000000	62.763605
1203.000000	63.170089
1202.000000	63.570229
1201.000000	63.974494
1200.000000	64.389105
1199.000000	64.812527
1198.000000	65.243671
1197.000000	65.684455
1196.000000	66.130285
1195.000000	66.568084
1194.000000	66.987455
1193.000000	67.384775
1192.000000	67.754823
1191.000000	68.089062
1190.000000	68.387814
1189.000000	68.662963
1188.000000	68.924746
1187.000000	69.178147
1186.000000	69.433986
1185.000000	69.710560
1184.000000	70.015879
1183.000000	70.335807
1182.000000	70.645803
1181.000000	70.928289
1180.000000	71.178987
1179.000000	71.406231
1178.000000	71.625098
1177.000000	71.842865
1176.000000	72.047363
1175.000000	72.219184
1174.000000	72.354618
1173.000000	72.465590
1172.000000	72.561877
1171.000000	72.646950
1170.000000	72.730368
1169.000000	72.827628
1168.000000	72.944331
1167.000000	73.074113
1166.000000	73.212845
1165.000000	73.361170
1164.000000	73.511678
1163.000000	73.647840
1162.000000	73.759235
1161.000000	73.845104
1160.000000	73.902534
1159.000000	73.926748
1158.000000	73.923921
1157.000000	73.910571
1156.000000	73.898108
1155.000000	73.890721
1154.000000	73.897707
1153.000000	73.931567
1152.000000	73.992494
1151.000000	74.069296
1150.000000	74.157387
1149.000000	74.260740
1148.000000	74.375112
1147.000000	74.484536
1146.000000	74.577580
1145.000000	74.652848
1144.000000	74.706876
1143.000000	74.731911
1142.000000	74.729598
1141.000000	74.713001
1140.000000	74.691943
1139.000000	74.670079
1138.000000	74.656443
1137.000000	74.665106
1136.000000	74.700583
1135.000000	74.756358
1134.000000	74.828496
1133.000000	74.917313
1132.000000	75.013931
1131.000000	75.099539
1130.000000	75.161045
1129.000000	75.195589
1128.000000	75.198529
1127.000000	75.161766
1126.000000	75.086993
1125.000000	74.984887
1124.000000	74.861453
1123.000000	74.717188
1122.000000	74.559978
1121.000000	74.405005
1120.000000	74.258617
1119.000000	74.116127
1118.000000	73.974833
1117.000000	73.834944
1116.000000	73.687475
1115.000000	73.513628
1114.000000	73.299588
1113.000000	73.039384
1112.000000	72.721961
1111.000000	72.333118
1110.000000	71.867721
1109.000000	71.330693
1108.000000	70.725015
1107.000000	70.048029
1106.000000	69.304687
1105.000000	68.505403
1104.000000	67.653063
1103.000000	66.742425
1102.000000	65.765451
1101.000000	64.714130
1100.000000	63.571174
1099.000000	62.310157
1098.000000	60.909903
1097.000000	59.351799
1096.000000	57.619950
1095.000000	55.701837
1094.000000	53.592333
1093.000000	51.297878
1092.000000	48.829595
1091.000000	46.209279
1090.000000	43.468552
1089.000000	40.644388
1088.000000	37.782947
1087.000000	34.938987
1086.000000	32.166312
1085.000000	29.510605
1084.000000	27.015690
1083.000000	24.717621
1082.000000	22.635553
1081.000000	20.769119
1080.000000	19.114429
1079.000000	17.671522
1078.000000	16.420232
1077.000000	15.328296
1076.000000	14.372780
1075.000000	13.541491
1074.000000	12.819314
1073.000000	12.182357
1072.000000	11.620553
1071.000000	11.135601
1070.000000	10.717985
1069.000000	10.351706
1068.000000	10.033266
1067.000000	9.771809
1066.000000	9.566359
1065.000000	9.404725
1064.000000	9.288488
1063.000000	9.229957
1062.000000	9.230324
1061.000000	9.280182
1060.000000	9.379601
1059.000000	9.539283
1058.000000	9.757760
1057.000000	10.023810
1056.000000	10.338696
1055.000000	10.712622
1054.000000	11.145326
1053.000000	11.625927
1052.000000	12.153608
1051.000000	12.737147
1050.000000	13.372489
1049.000000	14.047526
1048.000000	14.761410
1047.000000	15.521571
1046.000000	16.326101
1045.000000	17.166244
1044.000000	18.046452
1043.000000	18.979065
1042.000000	19.965363
1041.000000	20.999510
1040.000000	22.082448
1039.000000	23.220006
1038.000000	24.407475
1037.000000	25.631932
1036.000000	26.887171
1035.000000	28.169053
1034.000000	29.464057
1033.000000	30.753994
1032.000000	32.029770
1031.000000	33.290349
1030.000000	34.532609
1029.000000	35.752455
1028.000000	36.952167
1027.000000	38.138426
1026.000000	39.314403
1025.000000	40.481348
1024.000000	41.641844
1023.000000	42.795935
1022.000000	43.937672
1021.000000	45.057575
1020.000000	46.147686
1019.000000	47.200155
1018.000000	48.206133
1017.000000	49.160660
1016.000000	50.062996
1015.000000	50.915505
1014.000000	51.723562
1013.000000	52.496531
1012.000000	53.246886
1011.000000	53.985052
1010.000000	54.718898
1009.000000	55.454057
1008.000000	56.190912
1007.000000	56.923821
1006.000000	57.644058
1005.000000	58.343221
1004.000000	59.012289
1003.000000	59.641371
1002.000000	60.225544
1001.000000	60.765896
1000.000000	61.265822
999.000000	61.730693
998.000000	62.171334
997.000000	62.603588
996.000000	63.039826
995.000000	63.485782
994.000000	63.945257
993.000000	64.420375
992.000000	64.906144
991.000000	65.390208
990.000000	65.860475
989.000000	66.308120
988.000000	66.722224
987.000000	67.091996
986.000000	67.415717
985.000000	67.701814
984.000000	67.960825
983.000000	68.202193
982.000000	68.440257
981.000000	68.692186
980.000000	68.967808
979.000000	69.268287
978.000000	69.593786
977.000000	69.942947
976.000000	70.303789
975.000000	70.654858
974.000000	70.978992
973.000000	71.267518
972.000000	71.512884
971.000000	71.708611
970.000000	71.859120
969.000000	71.980854
968.000000	72.089559
967.000000	72.196486
966.000000	72.316024
965.000000	72.465353
964.000000	72.653151
963.000000	72.876527
962.000000	73.129060
961.000000	73.402326
960.000000	73.678336
959.000000	73.931789
958.000000	74.143330
957.000000	74.304301
956.000000	74.410010
955.000000	74.459166
954.000000	74.463595
953.000000	74.445704
952.000000	74.425293
951.000000	74.416945
950.000000	74.437935
949.000000	74.505998
948.000000	74.626764
947.000000	74.791868
946.000000	74.988947
945.000000	75.203700
944.000000	75.412110
943.000000	75.584445
942.000000	75.701038
941.000000	75.757042
940.000000	75.751857
939.000000	75.688819
938.000000	75.584634
937.000000	75.466320
936.000000	75.357058
935.000000	75.272841
934.000000	75.230699
933.000000	75.245849
932.000000	75.318667
931.000000	75.433611
930.000000	75.571955
929.000000	75.714521
928.000000	75.834072
927.000000	75.899585
926.000000	75.893791
925.000000	75.816299
924.000000	75.671897
923.000000	75.468029
922.000000	75.222683
921.000000	74.963615
920.000000	74.715079
919.000000	74.494878
918.000000	74.320980
917.000000	74.207232
916.000000	74.149643
915.000000	74.126309
914.000000	74.111175
913.000000	74.079993
912.000000	74.004929
911.000000	73.858937
910.000000	73.628999
909.000000	73.316917
908.000000	72.929295
907.000000	72.475378
906.000000	71.976898
905.000000	71.464718
904.000000	70.963929
903.000000	70.490085
902.000000	70.054988
901.000000	69.664313
900.000000	69.307529
899.000000	68.959305
898.000000	68.593106
897.000000	68.185577
896.000000	67.711964
895.000000	67.149602
894.000000	66.488119
893.000000	65.732067
892.000000	64.890536
891.000000	63.975817
890.000000	63.008966
889.000000	62.015126
888.000000	61.014174
887.000000	60.016553
886.000000	59.026827
885.000000	58.043178
884.000000	57.052765
883.000000	56.034995
882.000000	54.969006
881.000000	53.837249
880.000000	52.625606
879.000000	51.324333
878.000000	49.933560
877.000000	48.463059
876.000000	46.928738
875.000000	45.350547
874.000000	43.749080
873.000000	42.144511
872.000000	40.554982
871.000000	38.993543
870.000000	37.464516
869.000000	35.965851
868.000000	34.494977
867.000000	33.049016
866.000000	31.620764
865.000000	30.200974
864.000000	28.787614
863.000000	27.385627
862.000000	25.999531
861.000000	24.635489
860.000000	23.308290
859.000000	22.040802
858.000000	20.854069
857.000000	19.768821
856.000000	18.817186
855.000000	18.032495
854.000000	17.433452
853.000000	17.018332
852.000000	16.771215
851.000000	16.663937
850.000000	16.648982
849.000000	16.675905
848.000000	16.711642
847.000000	16.741285
846.000000	16.758670
845.000000	16.765287
844.000000	16.776944
843.000000	16.815163
842.000000	16.894176
841.000000	17.027147
840.000000	17.234575
839.000000	17.534346
838.000000	17.924943
837.000000	18.388213
836.000000	18.905650
835.000000	19.457735
834.000000	20.018362
833.000000	20.567011
832.000000	21.108526
831.000000	21.676190
830.000000	22.313076
829.000000	23.052331
828.000000	23.901113
827.000000	24.831306
826.000000	25.796161
825.000000	26.766894
824.000000	27.752374
823.000000	28.778525
822.000000	29.856003
821.000000	30.975362
820.000000	32.117183
819.000000	33.255889
818.000000	34.361702
817.000000	35.411038
816.000000	36.393136
815.000000	37.305631
814.000000	38.150525
813.000000	38.936809
812.000000	39.682416
811.000000	40.407370
810.000000	41.129489
809.000000	41.865777
808.000000	42.630445
807.000000	43.428641
806.000000	44.254782
805.000000	45.097798
804.000000	45.943547
803.000000	46.773255
802.000000	47.567843
801.000000	48.315501
800.000000	49.012562
799.000000	49.660183
798.000000	50.264663
797.000000	50.840285
796.000000	51.405400
795.000000	51.976812
794.000000	52.569239
793.000000	53.194425
792.000000	53.854894
791.000000	54.540094
790.000000	55.231852
789.000000	55.910693
788.000000	56.555293
787.000000	57.144192
786.000000	57.664675
785.000000	58.116424
784.000000	58.505579
783.000000	58.840786
782.000000	59.139316
781.000000	59.428395
780.000000	59.734952
779.000000	60.077383
778.000000	60.467341
777.000000	60.910801
776.000000	61.401015
775.000000	61.915694
774.000000	62.425902
773.000000	62.904581
772.000000	63.326470
771.000000	63.671106
770.000000	63.932305
769.000000	64.121560
768.000000	64.258843
767.000000	64.366597
766.000000	64.472230
765.000000	64.606095
764.000000	64.791274
763.000000	65.038424
762.000000	65.350432
761.000000	65.722194
760.000000	66.132732
759.000000	66.545696
758.000000	66.923803
757.000000	67.238589
756.000000	67.468834
755.000000	67.601636
754.000000	67.641695
753.000000	67.611733
752.000000	67.541271
751.000000	67.461255
750.000000	67.407351
749.000000	67.415445
748.000000	67.506019
747.000000	67.678456
746.000000	67.920238
745.000000	68.211974
744.000000	68.520461
743.000000	68.800336
742.000000	69.011034
741.000000	69.128846
740.000000	69.143219
739.000000	69.054877
738.000000	68.883382
737.000000	68.666944
736.000000	68.448909
735.000000	68.267909
734.000000	68.160494
733.000000	68.158977
732.000000	68.278987
731.000000	68.512349
730.000000	68.834996
729.000000	69.214028
728.000000	69.605991
727.000000	69.961711
726.000000	70.243163
725.000000	70.431978
724.000000	70.522043
723.000000	70.517777
722.000000	70.444170
721.000000	70.348328
720.000000	70.281892
719.000000	70.284839
718.000000	70.384856
717.000000	70.599618
716.000000	70.929240
715.000000	71.351821
714.000000	71.831524
713.000000	72.325637
712.000000	72.784057
711.000000	73.156894
710.000000	73.412671
709.000000	73.544104
708.000000	73.559048
707.000000	73.477505
706.000000	73.339565
705.000000	73.201589
704.000000	73.116074
703.000000	73.118410
702.000000	73.230115
701.000000	73.459826
700.000000	73.794324
699.000000	74.198253
698.000000	74.628416
697.000000	75.040869
696.000000	75.386203
695.000000	75.619427
694.000000	75.721121
693.000000	75.701117
692.000000	75.583230
691.000000	75.397389
690.000000	75.187669
689.000000	75.011578
688.000000	74.918802
687.000000	74.934960
686.000000	75.067483
685.000000	75.311520
684.000000	75.641923
683.000000	76.013088
682.000000	76.376201
681.000000	76.687987
680.000000	76.907665
679.000000	77.005824
678.000000	76.980865
677.000000	76.856299
676.000000	76.664458
675.000000	76.443586
674.000000	76.240539
673.000000	76.102928
672.000000	76.068834
671.000000	76.169315
670.000000	76.431252
669.000000	76.856048
668.000000	77.389974
667.000000	77.834571
666.000000	77.994815
665.000000	77.975874
664.000000	77.932469
663.000000	77.873524
662.000000	77.756993
661.000000	77.577912
660.000000	77.371014
659.000000	77.174675
658.000000	77.026859
657.000000	76.964107
656.000000	77.002732
655.000000	77.133262
654.000000	77.334474
653.000000	77.583005
652.000000	77.847768
651.000000	78.087452
650.000000	78.264529
649.000000	78.357672
648.000000	78.355981
647.000000	78.258762
646.000000	78.090399
645.000000	77.896083
644.000000	77.715107
643.000000	77.571125
642.000000	77.484484
641.000000	77.475451
640.000000	77.549388
639.000000	77.688560
638.000000	77.864048
637.000000	78.046739
636.000000	78.203229
635.000000	78.297111
634.000000	78.306151
633.000000	78.230641
632.000000	78.082481
631.000000	77.880957
630.000000	77.660966
629.000000	77.465710
628.000000	77.323942
627.000000	77.244935
626.000000	77.234169
625.000000	77.296392
624.000000	77.419890
623.000000	77.573356
622.000000	77.723672
621.000000	77.846487
620.000000	77.919225
619.000000	77.920987
618.000000	77.848824
617.000000	77.721489
616.000000	77.561394
615.000000	77.385723
614.000000	77.217407
613.000000	77.086877
612.000000	77.016398
611.000000	77.011990
610.000000	77.072260
609.000000	77.189535
608.000000	77.337441
607.000000	77.473123
606.000000	77.561075
605.000000	77.584968
604.000000	77.533940
603.000000	77.396712
602.000000	77.176273
601.000000	76.895114
600.000000	76.576760
599.000000	76.234589
598.000000	75.881723
597.000000	75.541533
596.000000	75.246830
595.000000	75.037549
594.000000	74.957276
593.000000	75.033422
592.000000	75.253496
591.000000	75.560801
590.000000	75.880041
589.000000	76.150331
588.000000	76.336708
587.000000	76.429929
586.000000	76.448232
585.000000	76.429135
584.000000	76.405447
583.000000	76.396286
582.000000	76.419621
581.000000	76.495845
580.000000	76.630460
579.000000	76.805975
578.000000	76.999478
577.000000	77.198544
576.000000	77.389934
575.000000	77.544631
574.000000	77.628140
573.000000	77.622487
572.000000	77.531015
571.000000	77.373327
570.000000	77.182972
569.000000	76.996335
568.000000	76.840097
567.000000	76.730616
566.000000	76.679457
565.000000	76.690562
564.000000	76.754184
563.000000	76.850642
562.000000	76.959264
561.000000	77.059883
560.000000	77.126693
559.000000	77.131376
558.000000	77.058623
557.000000	76.912728
556.000000	76.707805
555.000000	76.464678
554.000000	76.214351
553.000000	75.989804
552.000000	75.813254
551.000000	75.699502
550.000000	75.663217
549.000000	75.711907
548.000000	75.834819
547.000000	76.005768
546.000000	76.196123
545.000000	76.378411
544.000000	76.523823
543.000000	76.607724
542.000000	76.622209
541.000000	76.575857
540.000000	76.481630
539.000000	76.354645
538.000000	76.220476
537.000000	76.113369
536.000000	76.062869
535.000000	76.086857
534.000000	76.189822
533.000000	76.362055
532.000000	76.579205
531.000000	76.810965
530.000000	77.030152
529.000000	77.211408
528.000000	77.328706
527.000000	77.371187
526.000000	77.357576
525.000000	77.315745
524.000000	77.248974
523.000000	77.141361
522.000000	76.998096
521.000000	76.854185
520.000000	76.744464
519.000000	76.684980
518.000000	76.682524
517.000000	76.737810
516.000000	76.828587
515.000000	76.907410
514.000000	76.927689
513.000000	76.859840
512.000000	76.683483
511.000000	76.386885
510.000000	75.981911
509.000000	75.500140
508.000000	74.966325
507.000000	74.402702
506.000000	73.844932
505.000000	73.325857
504.000000	72.856827
503.000000	72.452513
502.000000	72.154942
501.000000	71.997874
500.000000	71.957864
499.000000	71.975603
498.000000	72.018500
497.000000	72.090833
496.000000	72.199534
495.000000	72.337072
494.000000	72.497787
493.000000	72.690485
492.000000	72.921809
491.000000	73.188396
490.000000	73.486900
489.000000	73.818615
488.000000	74.182015
487.000000	74.573748
486.000000	74.998162
485.000000	75.454133
484.000000	75.907796
483.000000	76.299306
482.000000	76.585984
481.000000	76.760715
480.000000	76.827739
479.000000	76.792056
478.000000	76.673799
477.000000	76.513900
476.000000	76.351946
475.000000	76.213309
474.000000	76.128486
473.000000	76.142140
472.000000	76.283436
471.000000	76.537908
470.000000	76.859724
469.000000	77.211803
468.000000	77.573652
467.000000	77.916077
466.000000	78.198686
465.000000	78.395829
464.000000	78.505469
463.000000	78.539895
462.000000	78.522836
461.000000	78.476588
460.000000	78.404027
459.000000	78.310151
458.000000	78.244463
457.000000	78.278506
456.000000	78.415522
455.000000	78.590240
454.000000	78.763844
453.000000	78.946619
452.000000	79.142077
451.000000	79.311190
450.000000	79.408347
449.000000	79.434119
448.000000	79.421961
447.000000	79.397974
446.000000	79.375779
445.000000	79.375885
444.000000	79.421506
443.000000	79.519218
442.000000	79.663530
441.000000	79.847327
440.000000	80.049141
439.000000	80.228499
438.000000	80.364208
437.000000	80.482576
436.000000	80.621068
435.000000	80.776694
434.000000	80.918981
433.000000	81.032844
432.000000	81.113527
431.000000	81.149986
430.000000	81.149038
429.000000	81.142017
428.000000	81.140604
427.000000	81.125173
426.000000	81.090713
425.000000	81.066351
424.000000	81.076125
423.000000	81.111158
422.000000	81.136112
421.000000	81.091016
420.000000	80.926369
419.000000	80.717193
418.000000	80.649367
417.000000	80.761617
416.000000	80.920581
415.000000	81.020253
414.000000	81.042728
413.000000	81.057055
412.000000	81.133492
411.000000	81.257867
410.000000	81.387225
409.000000	81.519298
408.000000	81.657337
407.000000	81.759983
406.000000	81.795810
405.000000	81.819350
404.000000	81.827843
403.000000	81.772397
402.000000	81.603342
401.000000	81.334805
400.000000	81.015391
