PE IR       SUBTECH     SPECTRUM    ASCII       PEDS        4.00        
   -1
23ms010-nitro.asc
24/09/10
16:03:28.00
24/09/10
16:03:28.00
Administrator
Sample 1155 By Administrator Date Tuesday, September 10 2024
400.000000
#HDR
-1
-1
#GR
cm-1
%T
1.0
0.0
4000.000000
-1.000000
3601
8
81.945428
0.245769
#DATA
4000.000000	32.538774
3999.000000	32.584412
3998.000000	32.628334
3997.000000	32.670718
3996.000000	32.712312
3995.000000	32.753855
3994.000000	32.795644
3993.000000	32.837674
3992.000000	32.880007
3991.000000	32.922814
3990.000000	32.966104
3989.000000	33.009621
3988.000000	33.053136
3987.000000	33.096683
3986.000000	33.140311
3985.000000	33.183631
3984.000000	33.225827
3983.000000	33.266268
3982.000000	33.305073
3981.000000	33.343098
3980.000000	33.381436
3979.000000	33.420934
3978.000000	33.461980
3977.000000	33.504451
3976.000000	33.547616
3975.000000	33.590260
3974.000000	33.631199
3973.000000	33.669911
3972.000000	33.706715
3971.000000	33.742406
3970.000000	33.777789
3969.000000	33.813391
3968.000000	33.849548
3967.000000	33.886555
3966.000000	33.924613
3965.000000	33.963786
3964.000000	34.003970
3963.000000	34.044751
3962.000000	34.085281
3961.000000	34.124530
3960.000000	34.161914
3959.000000	34.197795
3958.000000	34.233237
3957.000000	34.269207
3956.000000	34.306181
3955.000000	34.344343
3954.000000	34.383796
3953.000000	34.424561
3952.000000	34.466526
3951.000000	34.509514
3950.000000	34.552862
3949.000000	34.594778
3948.000000	34.633119
3947.000000	34.667387
3946.000000	34.699853
3945.000000	34.734481
3944.000000	34.774293
3943.000000	34.818970
3942.000000	34.865077
3941.000000	34.909288
3940.000000	34.951013
3939.000000	34.991852
3938.000000	35.033121
3937.000000	35.074450
3936.000000	35.114828
3935.000000	35.154418
3934.000000	35.194769
3933.000000	35.236908
3932.000000	35.279622
3931.000000	35.320455
3930.000000	35.358219
3929.000000	35.394377
3928.000000	35.432036
3927.000000	35.473806
3926.000000	35.519854
3925.000000	35.567169
3924.000000	35.611159
3923.000000	35.649203
3922.000000	35.682534
3921.000000	35.714727
3920.000000	35.749192
3919.000000	35.787692
3918.000000	35.830125
3917.000000	35.874876
3916.000000	35.919563
3915.000000	35.962551
3914.000000	36.004170
3913.000000	36.046103
3912.000000	36.089369
3911.000000	36.132966
3910.000000	36.174796
3909.000000	36.213706
3908.000000	36.250828
3907.000000	36.288581
3906.000000	36.328300
3905.000000	36.368638
3904.000000	36.406250
3903.000000	36.439338
3902.000000	36.470221
3901.000000	36.502957
3900.000000	36.539362
3899.000000	36.578006
3898.000000	36.616325
3897.000000	36.653833
3896.000000	36.692316
3895.000000	36.734347
3894.000000	36.781742
3893.000000	36.833849
3892.000000	36.886216
3891.000000	36.932707
3890.000000	36.970610
3889.000000	37.002301
3888.000000	37.032448
3887.000000	37.065965
3886.000000	37.104983
3885.000000	37.145686
3884.000000	37.182661
3883.000000	37.216345
3882.000000	37.252321
3881.000000	37.294573
3880.000000	37.340066
3879.000000	37.382477
3878.000000	37.420139
3877.000000	37.456443
3876.000000	37.495520
3875.000000	37.539045
3874.000000	37.584141
3873.000000	37.625680
3872.000000	37.661627
3871.000000	37.695051
3870.000000	37.729800
3869.000000	37.765442
3868.000000	37.799954
3867.000000	37.834181
3866.000000	37.872028
3865.000000	37.917309
3864.000000	37.968502
3863.000000	38.019282
3862.000000	38.065140
3861.000000	38.106283
3860.000000	38.146421
3859.000000	38.190364
3858.000000	38.240904
3857.000000	38.296354
3856.000000	38.351114
3855.000000	38.399707
3854.000000	38.439085
3853.000000	38.466156
3852.000000	38.484456
3851.000000	38.505503
3850.000000	38.536057
3849.000000	38.575788
3848.000000	38.623020
3847.000000	38.676550
3846.000000	38.734844
3845.000000	38.794859
3844.000000	38.852174
3843.000000	38.903765
3842.000000	38.949628
3841.000000	38.991239
3840.000000	39.029572
3839.000000	39.064809
3838.000000	39.097995
3837.000000	39.132061
3836.000000	39.169633
3835.000000	39.210763
3834.000000	39.253989
3833.000000	39.299043
3832.000000	39.347023
3831.000000	39.397954
3830.000000	39.450262
3829.000000	39.502651
3828.000000	39.554745
3827.000000	39.606174
3826.000000	39.655347
3825.000000	39.700015
3824.000000	39.739383
3823.000000	39.776522
3822.000000	39.817081
3821.000000	39.861540
3820.000000	39.903809
3819.000000	39.940797
3818.000000	39.974919
3817.000000	40.010942
3816.000000	40.053492
3815.000000	40.102800
3814.000000	40.155496
3813.000000	40.208327
3812.000000	40.259845
3811.000000	40.310657
3810.000000	40.361853
3809.000000	40.412877
3808.000000	40.461674
3807.000000	40.506419
3806.000000	40.547040
3805.000000	40.585092
3804.000000	40.621946
3803.000000	40.659206
3802.000000	40.699388
3801.000000	40.741930
3800.000000	40.784156
3799.000000	40.826588
3798.000000	40.871202
3797.000000	40.919086
3796.000000	40.970050
3795.000000	41.022877
3794.000000	41.076367
3793.000000	41.129846
3792.000000	41.182805
3791.000000	41.234940
3790.000000	41.285968
3789.000000	41.335552
3788.000000	41.383938
3787.000000	41.432099
3786.000000	41.480789
3785.000000	41.529320
3784.000000	41.576029
3783.000000	41.620192
3782.000000	41.663434
3781.000000	41.709036
3780.000000	41.759239
3779.000000	41.812477
3778.000000	41.864990
3777.000000	41.914725
3776.000000	41.962451
3775.000000	42.010266
3774.000000	42.059627
3773.000000	42.110151
3772.000000	42.160342
3771.000000	42.209445
3770.000000	42.257138
3769.000000	42.302674
3768.000000	42.346444
3767.000000	42.390809
3766.000000	42.438269
3765.000000	42.489217
3764.000000	42.541714
3763.000000	42.593650
3762.000000	42.644780
3761.000000	42.696790
3760.000000	42.750837
3759.000000	42.804857
3758.000000	42.856159
3757.000000	42.904691
3756.000000	42.951557
3755.000000	42.996544
3754.000000	43.039064
3753.000000	43.080447
3752.000000	43.122683
3751.000000	43.164436
3750.000000	43.203345
3749.000000	43.242871
3748.000000	43.288050
3747.000000	43.337223
3746.000000	43.385868
3745.000000	43.434826
3744.000000	43.486962
3743.000000	43.543683
3742.000000	43.605761
3741.000000	43.669776
3740.000000	43.731055
3739.000000	43.788953
3738.000000	43.847058
3737.000000	43.910381
3736.000000	43.980593
3735.000000	44.052229
3734.000000	44.116351
3733.000000	44.169910
3732.000000	44.218499
3731.000000	44.270252
3730.000000	44.328724
3729.000000	44.391351
3728.000000	44.454988
3727.000000	44.519985
3726.000000	44.586944
3725.000000	44.653056
3724.000000	44.715142
3723.000000	44.773679
3722.000000	44.831175
3721.000000	44.888880
3720.000000	44.946872
3719.000000	45.005347
3718.000000	45.064932
3717.000000	45.125454
3716.000000	45.184873
3715.000000	45.240154
3714.000000	45.289881
3713.000000	45.336223
3712.000000	45.384255
3711.000000	45.437262
3710.000000	45.495341
3709.000000	45.556786
3708.000000	45.619717
3707.000000	45.683895
3706.000000	45.749427
3705.000000	45.815887
3704.000000	45.882328
3703.000000	45.948902
3702.000000	46.015364
3701.000000	46.079846
3700.000000	46.140861
3699.000000	46.199358
3698.000000	46.257066
3697.000000	46.314743
3696.000000	46.371741
3695.000000	46.426460
3694.000000	46.478352
3693.000000	46.528775
3692.000000	46.580663
3691.000000	46.635421
3690.000000	46.691075
3689.000000	46.744011
3688.000000	46.795005
3687.000000	46.850292
3686.000000	46.912823
3685.000000	46.978925
3684.000000	47.043729
3683.000000	47.106410
3682.000000	47.168676
3681.000000	47.231365
3680.000000	47.292846
3679.000000	47.349554
3678.000000	47.397117
3677.000000	47.436042
3676.000000	47.475526
3675.000000	47.523451
3674.000000	47.578615
3673.000000	47.634531
3672.000000	47.684811
3671.000000	47.733560
3670.000000	47.794039
3669.000000	47.870331
3668.000000	47.955338
3667.000000	48.041463
3666.000000	48.123664
3665.000000	48.200183
3664.000000	48.272356
3663.000000	48.342587
3662.000000	48.412428
3661.000000	48.480719
3660.000000	48.543883
3659.000000	48.598685
3658.000000	48.645021
3657.000000	48.687052
3656.000000	48.730175
3655.000000	48.777596
3654.000000	48.827926
3653.000000	48.874700
3652.000000	48.911653
3651.000000	48.940151
3650.000000	48.968252
3649.000000	49.002232
3648.000000	49.046211
3647.000000	49.103256
3646.000000	49.171557
3645.000000	49.244563
3644.000000	49.317017
3643.000000	49.387692
3642.000000	49.457177
3641.000000	49.524062
3640.000000	49.585361
3639.000000	49.640242
3638.000000	49.690099
3637.000000	49.736018
3636.000000	49.778289
3635.000000	49.818928
3634.000000	49.861084
3633.000000	49.904056
3632.000000	49.941106
3631.000000	49.965086
3630.000000	49.979699
3629.000000	49.999583
3628.000000	50.034681
3627.000000	50.085623
3626.000000	50.146283
3625.000000	50.206266
3624.000000	50.259189
3623.000000	50.305831
3622.000000	50.348177
3621.000000	50.385797
3620.000000	50.418516
3619.000000	50.448967
3618.000000	50.480702
3617.000000	50.515565
3616.000000	50.551951
3615.000000	50.587418
3614.000000	50.621625
3613.000000	50.654813
3612.000000	50.686423
3611.000000	50.716486
3610.000000	50.747444
3609.000000	50.784345
3608.000000	50.831331
3607.000000	50.887653
3606.000000	50.947753
3605.000000	51.004612
3604.000000	51.053623
3603.000000	51.095313
3602.000000	51.132843
3601.000000	51.168760
3600.000000	51.204067
3599.000000	51.238463
3598.000000	51.271047
3597.000000	51.301551
3596.000000	51.332191
3595.000000	51.367148
3594.000000	51.408508
3593.000000	51.452776
3592.000000	51.493558
3591.000000	51.525414
3590.000000	51.547650
3589.000000	51.566977
3588.000000	51.595151
3587.000000	51.639144
3586.000000	51.695662
3585.000000	51.756105
3584.000000	51.813315
3583.000000	51.864951
3582.000000	51.912012
3581.000000	51.955570
3580.000000	51.995876
3579.000000	52.033625
3578.000000	52.070132
3577.000000	52.106127
3576.000000	52.142583
3575.000000	52.181121
3574.000000	52.223144
3573.000000	52.267654
3572.000000	52.311757
3571.000000	52.351565
3570.000000	52.383174
3569.000000	52.406065
3568.000000	52.426929
3567.000000	52.456174
3566.000000	52.498745
3565.000000	52.551996
3564.000000	52.610348
3563.000000	52.670003
3562.000000	52.729548
3561.000000	52.787859
3560.000000	52.843586
3559.000000	52.896182
3558.000000	52.945661
3557.000000	52.991110
3556.000000	53.031669
3555.000000	53.068423
3554.000000	53.104197
3553.000000	53.141306
3552.000000	53.180550
3551.000000	53.221961
3550.000000	53.265130
3549.000000	53.309719
3548.000000	53.357073
3547.000000	53.409877
3546.000000	53.468063
3545.000000	53.526547
3544.000000	53.579311
3543.000000	53.624315
3542.000000	53.663322
3541.000000	53.699221
3540.000000	53.735695
3539.000000	53.777157
3538.000000	53.826135
3537.000000	53.880585
3536.000000	53.935323
3535.000000	53.986307
3534.000000	54.031889
3533.000000	54.071596
3532.000000	54.105653
3531.000000	54.135616
3530.000000	54.163553
3529.000000	54.191288
3528.000000	54.221535
3527.000000	54.258233
3526.000000	54.303611
3525.000000	54.355324
3524.000000	54.408069
3523.000000	54.457231
3522.000000	54.500415
3521.000000	54.536851
3520.000000	54.567332
3519.000000	54.594155
3518.000000	54.619720
3517.000000	54.645525
3516.000000	54.672918
3515.000000	54.703413
3514.000000	54.736615
3513.000000	54.769398
3512.000000	54.798903
3511.000000	54.825406
3510.000000	54.850383
3509.000000	54.873327
3508.000000	54.892179
3507.000000	54.906103
3506.000000	54.916045
3505.000000	54.923928
3504.000000	54.932529
3503.000000	54.944647
3502.000000	54.960968
3501.000000	54.979603
3500.000000	54.998578
3499.000000	55.016942
3498.000000	55.032801
3497.000000	55.042315
3496.000000	55.042512
3495.000000	55.033961
3494.000000	55.019292
3493.000000	55.000576
3492.000000	54.979994
3491.000000	54.961268
3490.000000	54.947800
3489.000000	54.940091
3488.000000	54.935990
3487.000000	54.932033
3486.000000	54.923473
3485.000000	54.905259
3484.000000	54.875681
3483.000000	54.838534
3482.000000	54.799459
3481.000000	54.760772
3480.000000	54.720962
3479.000000	54.678205
3478.000000	54.632566
3477.000000	54.585727
3476.000000	54.540162
3475.000000	54.497436
3474.000000	54.456307
3473.000000	54.413355
3472.000000	54.366110
3471.000000	54.314202
3470.000000	54.256694
3469.000000	54.190683
3468.000000	54.114362
3467.000000	54.029895
3466.000000	53.941916
3465.000000	53.854401
3464.000000	53.769993
3463.000000	53.690022
3462.000000	53.612637
3461.000000	53.532134
3460.000000	53.442171
3459.000000	53.339831
3458.000000	53.226322
3457.000000	53.105308
3456.000000	52.981712
3455.000000	52.860324
3454.000000	52.743557
3453.000000	52.630898
3452.000000	52.520539
3451.000000	52.410340
3450.000000	52.296705
3449.000000	52.174862
3448.000000	52.042150
3447.000000	51.899932
3446.000000	51.751288
3445.000000	51.598096
3444.000000	51.441524
3443.000000	51.283926
3442.000000	51.128487
3441.000000	50.977471
3440.000000	50.831268
3439.000000	50.687797
3438.000000	50.541919
3437.000000	50.386551
3436.000000	50.216057
3435.000000	50.028722
3434.000000	49.826417
3433.000000	49.613756
3432.000000	49.396887
3431.000000	49.180994
3430.000000	48.967284
3429.000000	48.753039
3428.000000	48.535298
3427.000000	48.312841
3426.000000	48.084959
3425.000000	47.850148
3424.000000	47.606696
3423.000000	47.353654
3422.000000	47.090589
3421.000000	46.818178
3420.000000	46.539280
3419.000000	46.257675
3418.000000	45.975447
3417.000000	45.692251
3416.000000	45.406903
3415.000000	45.117717
3414.000000	44.821032
3413.000000	44.512186
3412.000000	44.188499
3411.000000	43.850471
3410.000000	43.499901
3409.000000	43.138244
3408.000000	42.767632
3407.000000	42.391354
3406.000000	42.012700
3405.000000	41.634043
3404.000000	41.256250
3403.000000	40.877480
3402.000000	40.491831
3401.000000	40.091115
3400.000000	39.669455
3399.000000	39.226388
3398.000000	38.766683
3397.000000	38.297876
3396.000000	37.826754
3395.000000	37.356507
3394.000000	36.885947
3393.000000	36.411725
3392.000000	35.930642
3391.000000	35.439576
3390.000000	34.935924
3389.000000	34.419199
3388.000000	33.891623
3387.000000	33.355793
3386.000000	32.812567
3385.000000	32.262823
3384.000000	31.709028
3383.000000	31.153803
3382.000000	30.597749
3381.000000	30.039963
3380.000000	29.479699
3379.000000	28.915998
3378.000000	28.347129
3377.000000	27.772007
3376.000000	27.191144
3375.000000	26.605561
3374.000000	26.016049
3373.000000	25.424414
3372.000000	24.833832
3371.000000	24.246273
3370.000000	23.661116
3369.000000	23.077053
3368.000000	22.493855
3367.000000	21.911503
3366.000000	21.329513
3365.000000	20.748230
3364.000000	20.169238
3363.000000	19.593646
3362.000000	19.021648
3361.000000	18.454399
3360.000000	17.894153
3359.000000	17.341902
3358.000000	16.797097
3357.000000	16.259989
3356.000000	15.732335
3355.000000	15.214649
3354.000000	14.705464
3353.000000	14.204074
3352.000000	13.711567
3351.000000	13.228832
3350.000000	12.755492
3349.000000	12.291474
3348.000000	11.837872
3347.000000	11.395038
3346.000000	10.962750
3345.000000	10.542027
3344.000000	10.134509
3343.000000	9.739999
3342.000000	9.356368
3341.000000	8.982790
3340.000000	8.620474
3339.000000	8.269961
3338.000000	7.930704
3337.000000	7.602714
3336.000000	7.286788
3335.000000	6.982653
3334.000000	6.689076
3333.000000	6.406371
3332.000000	6.135591
3331.000000	5.875926
3330.000000	5.625237
3329.000000	5.382754
3328.000000	5.149635
3327.000000	4.926302
3326.000000	4.712335
3325.000000	4.508384
3324.000000	4.315196
3323.000000	4.131517
3322.000000	3.955064
3321.000000	3.785458
3320.000000	3.624117
3319.000000	3.471031
3318.000000	3.325096
3317.000000	3.186238
3316.000000	3.054971
3315.000000	2.930354
3314.000000	2.810666
3313.000000	2.695933
3312.000000	2.587063
3311.000000	2.483245
3310.000000	2.383240
3309.000000	2.288058
3308.000000	2.200139
3307.000000	2.120270
3306.000000	2.047710
3305.000000	1.982676
3304.000000	1.925194
3303.000000	1.872901
3302.000000	1.822595
3301.000000	1.773440
3300.000000	1.726438
3299.000000	1.681583
3298.000000	1.638435
3297.000000	1.598358
3296.000000	1.563002
3295.000000	1.531707
3294.000000	1.502980
3293.000000	1.477654
3292.000000	1.457622
3291.000000	1.442016
3290.000000	1.428039
3289.000000	1.414470
3288.000000	1.401778
3287.000000	1.389753
3286.000000	1.377812
3285.000000	1.367106
3284.000000	1.359182
3283.000000	1.353387
3282.000000	1.348108
3281.000000	1.343572
3280.000000	1.340815
3279.000000	1.338850
3278.000000	1.335866
3277.000000	1.332319
3276.000000	1.329899
3275.000000	1.328295
3274.000000	1.325868
3273.000000	1.322954
3272.000000	1.321663
3271.000000	1.322922
3270.000000	1.326201
3269.000000	1.331292
3268.000000	1.337811
3267.000000	1.343829
3266.000000	1.347605
3265.000000	1.349984
3264.000000	1.352881
3263.000000	1.356300
3262.000000	1.359258
3261.000000	1.362263
3260.000000	1.366285
3259.000000	1.370434
3258.000000	1.373394
3257.000000	1.376189
3256.000000	1.380764
3255.000000	1.386848
3254.000000	1.392708
3253.000000	1.398097
3252.000000	1.403754
3251.000000	1.409062
3250.000000	1.412930
3249.000000	1.416225
3248.000000	1.420803
3247.000000	1.426797
3246.000000	1.433133
3245.000000	1.439718
3244.000000	1.446869
3243.000000	1.453569
3242.000000	1.458740
3241.000000	1.463254
3240.000000	1.468538
3239.000000	1.474111
3238.000000	1.478663
3237.000000	1.482329
3236.000000	1.485938
3235.000000	1.489393
3234.000000	1.492959
3233.000000	1.498497
3232.000000	1.506944
3231.000000	1.515984
3230.000000	1.522755
3229.000000	1.527473
3228.000000	1.531980
3227.000000	1.536360
3226.000000	1.539659
3225.000000	1.542551
3224.000000	1.546346
3223.000000	1.550449
3222.000000	1.553436
3221.000000	1.555660
3220.000000	1.558309
3219.000000	1.560961
3218.000000	1.562516
3217.000000	1.563460
3216.000000	1.564806
3215.000000	1.565947
3214.000000	1.565850
3213.000000	1.565243
3212.000000	1.565291
3211.000000	1.565317
3210.000000	1.564120
3209.000000	1.562288
3208.000000	1.560928
3207.000000	1.559413
3206.000000	1.556662
3205.000000	1.553415
3204.000000	1.550848
3203.000000	1.548231
3202.000000	1.544262
3201.000000	1.539454
3200.000000	1.534983
3199.000000	1.530410
3198.000000	1.524806
3197.000000	1.518818
3196.000000	1.513374
3195.000000	1.507657
3194.000000	1.500549
3193.000000	1.492756
3192.000000	1.485427
3191.000000	1.478043
3190.000000	1.469837
3189.000000	1.461778
3188.000000	1.454933
3187.000000	1.448316
3186.000000	1.440530
3185.000000	1.432120
3184.000000	1.424123
3183.000000	1.415892
3182.000000	1.406611
3181.000000	1.397454
3180.000000	1.389894
3179.000000	1.383285
3178.000000	1.376256
3177.000000	1.369107
3176.000000	1.362628
3175.000000	1.356120
3174.000000	1.348806
3173.000000	1.341696
3172.000000	1.335861
3171.000000	1.330380
3170.000000	1.324118
3169.000000	1.317953
3168.000000	1.313100
3167.000000	1.308805
3166.000000	1.303929
3165.000000	1.299191
3164.000000	1.295648
3163.000000	1.292584
3162.000000	1.289066
3161.000000	1.286008
3160.000000	1.284427
3159.000000	1.283256
3158.000000	1.281087
3157.000000	1.278472
3156.000000	1.276387
3155.000000	1.274195
3154.000000	1.271419
3153.000000	1.269877
3152.000000	1.271506
3151.000000	1.275535
3150.000000	1.279965
3149.000000	1.284390
3148.000000	1.289180
3147.000000	1.293528
3146.000000	1.296662
3145.000000	1.299620
3144.000000	1.303540
3143.000000	1.307610
3142.000000	1.310781
3141.000000	1.314143
3140.000000	1.319481
3139.000000	1.326790
3138.000000	1.335172
3137.000000	1.344671
3136.000000	1.355294
3135.000000	1.365726
3134.000000	1.374921
3133.000000	1.383722
3132.000000	1.393170
3131.000000	1.402859
3130.000000	1.412560
3129.000000	1.423563
3128.000000	1.436623
3127.000000	1.450285
3126.000000	1.463061
3125.000000	1.475418
3124.000000	1.487924
3123.000000	1.499573
3122.000000	1.509988
3121.000000	1.521217
3120.000000	1.535176
3119.000000	1.551108
3118.000000	1.567701
3117.000000	1.585731
3116.000000	1.606341
3115.000000	1.628497
3114.000000	1.650329
3113.000000	1.671515
3112.000000	1.692378
3111.000000	1.712436
3110.000000	1.731855
3109.000000	1.752579
3108.000000	1.775934
3107.000000	1.800686
3106.000000	1.825246
3105.000000	1.850032
3104.000000	1.875816
3103.000000	1.901743
3102.000000	1.927077
3101.000000	1.953051
3100.000000	1.980967
3099.000000	2.010026
3098.000000	2.039035
3097.000000	2.068469
3096.000000	2.098917
3095.000000	2.129327
3094.000000	2.158776
3093.000000	2.188351
3092.000000	2.219396
3091.000000	2.251515
3090.000000	2.284007
3089.000000	2.317461
3088.000000	2.352157
3087.000000	2.386763
3086.000000	2.420451
3085.000000	2.454535
3084.000000	2.490201
3083.000000	2.526485
3082.000000	2.562402
3081.000000	2.599130
3080.000000	2.638220
3079.000000	2.679369
3078.000000	2.721773
3077.000000	2.765755
3076.000000	2.811108
3075.000000	2.855792
3074.000000	2.898328
3073.000000	2.939848
3072.000000	2.981970
3071.000000	3.024395
3070.000000	3.066547
3069.000000	3.109721
3068.000000	3.155435
3067.000000	3.203177
3066.000000	3.251637
3065.000000	3.300728
3064.000000	3.350570
3063.000000	3.400052
3062.000000	3.448237
3061.000000	3.495829
3060.000000	3.543745
3059.000000	3.591744
3058.000000	3.639862
3057.000000	3.689459
3056.000000	3.741178
3055.000000	3.793486
3054.000000	3.844852
3053.000000	3.895855
3052.000000	3.947700
3051.000000	4.000229
3050.000000	4.052824
3049.000000	4.105638
3048.000000	4.158555
3047.000000	4.210597
3046.000000	4.261726
3045.000000	4.313633
3044.000000	4.367572
3043.000000	4.423075
3042.000000	4.479827
3041.000000	4.538592
3040.000000	4.598914
3039.000000	4.658096
3038.000000	4.714235
3037.000000	4.768574
3036.000000	4.823469
3035.000000	4.879802
3034.000000	4.937686
3033.000000	4.997668
3032.000000	5.059538
3031.000000	5.121669
3030.000000	5.183002
3029.000000	5.244065
3028.000000	5.304983
3027.000000	5.364544
3026.000000	5.422546
3025.000000	5.480911
3024.000000	5.540963
3023.000000	5.601557
3022.000000	5.661411
3021.000000	5.721251
3020.000000	5.782069
3019.000000	5.843186
3018.000000	5.903689
3017.000000	5.964028
3016.000000	6.024691
3015.000000	6.085068
3014.000000	6.145144
3013.000000	6.206598
3012.000000	6.270680
3011.000000	6.336638
3010.000000	6.403383
3009.000000	6.470972
3008.000000	6.539211
3007.000000	6.606733
3006.000000	6.672829
3005.000000	6.738466
3004.000000	6.804252
3003.000000	6.869120
3002.000000	6.932217
3001.000000	6.994337
3000.000000	7.056442
2999.000000	7.118578
2998.000000	7.181280
2997.000000	7.245933
2996.000000	7.312576
2995.000000	7.379397
2994.000000	7.445667
2993.000000	7.513034
2992.000000	7.582515
2991.000000	7.652369
2990.000000	7.720506
2989.000000	7.787094
2988.000000	7.853267
2987.000000	7.919175
2986.000000	7.984895
2985.000000	8.051442
2984.000000	8.119254
2983.000000	8.187272
2982.000000	8.254954
2981.000000	8.323518
2980.000000	8.393737
2979.000000	8.464099
2978.000000	8.532713
2977.000000	8.599632
2976.000000	8.666089
2975.000000	8.732926
2974.000000	8.800969
2973.000000	8.871263
2972.000000	8.943620
2971.000000	9.016322
2970.000000	9.088347
2969.000000	9.160324
2968.000000	9.232417
2967.000000	9.303186
2966.000000	9.371735
2965.000000	9.439164
2964.000000	9.506735
2963.000000	9.574451
2962.000000	9.642620
2961.000000	9.712730
2960.000000	9.785358
2959.000000	9.859009
2958.000000	9.932162
2957.000000	10.004584
2956.000000	10.075713
2955.000000	10.144177
2954.000000	10.210289
2953.000000	10.276672
2952.000000	10.344785
2951.000000	10.412868
2950.000000	10.478999
2949.000000	10.544161
2948.000000	10.610713
2947.000000	10.679622
2946.000000	10.750734
2945.000000	10.824019
2944.000000	10.898748
2943.000000	10.972893
2942.000000	11.044903
2941.000000	11.115081
2940.000000	11.184138
2939.000000	11.251960
2938.000000	11.318885
2937.000000	11.386580
2936.000000	11.456210
2935.000000	11.526932
2934.000000	11.597267
2933.000000	11.666630
2932.000000	11.734804
2931.000000	11.801560
2930.000000	11.867730
2929.000000	11.934845
2928.000000	12.002766
2927.000000	12.069488
2926.000000	12.134298
2925.000000	12.199125
2924.000000	12.265812
2923.000000	12.333987
2922.000000	12.402716
2921.000000	12.472074
2920.000000	12.541846
2919.000000	12.610528
2918.000000	12.676949
2917.000000	12.741495
2916.000000	12.804981
2915.000000	12.867958
2914.000000	12.931691
2913.000000	12.997885
2912.000000	13.066620
2911.000000	13.136210
2910.000000	13.205603
2909.000000	13.275161
2908.000000	13.344544
2907.000000	13.412053
2906.000000	13.476896
2905.000000	13.540223
2904.000000	13.603030
2903.000000	13.665023
2902.000000	13.726401
2901.000000	13.788825
2900.000000	13.853320
2899.000000	13.919125
2898.000000	13.985409
2897.000000	14.052378
2896.000000	14.119717
2895.000000	14.185740
2894.000000	14.249324
2893.000000	14.311242
2892.000000	14.372606
2891.000000	14.433537
2890.000000	14.494217
2889.000000	14.555672
2888.000000	14.618441
2887.000000	14.681913
2886.000000	14.745757
2885.000000	14.810524
2884.000000	14.875972
2883.000000	14.940423
2882.000000	15.002778
2881.000000	15.063762
2880.000000	15.124354
2879.000000	15.184586
2878.000000	15.244916
2877.000000	15.307155
2876.000000	15.372564
2875.000000	15.439974
2874.000000	15.506833
2873.000000	15.571322
2872.000000	15.632921
2871.000000	15.692177
2870.000000	15.750684
2869.000000	15.810172
2868.000000	15.870848
2867.000000	15.931533
2866.000000	15.991790
2865.000000	16.052625
2864.000000	16.114840
2863.000000	16.178108
2862.000000	16.242056
2861.000000	16.306585
2860.000000	16.370607
2859.000000	16.432261
2858.000000	16.491186
2857.000000	16.549126
2856.000000	16.607657
2855.000000	16.666835
2854.000000	16.726682
2853.000000	16.788251
2852.000000	16.852325
2851.000000	16.918371
2850.000000	16.985378
2849.000000	17.052367
2848.000000	17.117764
2847.000000	17.179984
2846.000000	17.239339
2845.000000	17.297996
2844.000000	17.357674
2843.000000	17.418768
2842.000000	17.481831
2841.000000	17.547747
2840.000000	17.615646
2839.000000	17.682545
2838.000000	17.746297
2837.000000	17.807573
2836.000000	17.868112
2835.000000	17.928475
2834.000000	17.988422
2833.000000	18.048171
2832.000000	18.108179
2831.000000	18.168675
2830.000000	18.230260
2829.000000	18.293998
2828.000000	18.360231
2827.000000	18.428136
2826.000000	18.496896
2825.000000	18.566212
2824.000000	18.635300
2823.000000	18.702723
2822.000000	18.767971
2821.000000	18.832103
2820.000000	18.896254
2819.000000	18.960565
2818.000000	19.025039
2817.000000	19.090214
2816.000000	19.156328
2815.000000	19.222850
2814.000000	19.289366
2813.000000	19.355848
2812.000000	19.421589
2811.000000	19.485056
2810.000000	19.545440
2809.000000	19.603371
2808.000000	19.659718
2807.000000	19.714846
2806.000000	19.769478
2805.000000	19.824933
2804.000000	19.881769
2803.000000	19.939224
2802.000000	19.996522
2801.000000	20.053623
2800.000000	20.110172
2799.000000	20.164933
2798.000000	20.217105
2797.000000	20.267298
2796.000000	20.316677
2795.000000	20.366110
2794.000000	20.416586
2793.000000	20.469308
2792.000000	20.524605
2791.000000	20.581599
2790.000000	20.639429
2789.000000	20.697849
2788.000000	20.756259
2787.000000	20.813412
2786.000000	20.868771
2785.000000	20.923167
2784.000000	20.977517
2783.000000	21.031808
2782.000000	21.085907
2781.000000	21.140279
2780.000000	21.195097
2779.000000	21.249504
2778.000000	21.302443
2777.000000	21.353441
2776.000000	21.402041
2775.000000	21.447206
2774.000000	21.487961
2773.000000	21.524061
2772.000000	21.555491
2771.000000	21.582131
2770.000000	21.604316
2769.000000	21.622923
2768.000000	21.638487
2767.000000	21.650695
2766.000000	21.659208
2765.000000	21.664239
2764.000000	21.665964
2763.000000	21.664333
2762.000000	21.659777
2761.000000	21.653373
2760.000000	21.645977
2759.000000	21.637908
2758.000000	21.629850
2757.000000	21.622973
2756.000000	21.617641
2755.000000	21.612816
2754.000000	21.607117
2753.000000	21.599739
2752.000000	21.589913
2751.000000	21.576473
2750.000000	21.558449
2749.000000	21.535239
2748.000000	21.505985
2747.000000	21.469484
2746.000000	21.425237
2745.000000	21.373905
2744.000000	21.316308
2743.000000	21.253160
2742.000000	21.186077
2741.000000	21.117754
2740.000000	21.050874
2739.000000	20.987738
2738.000000	20.931307
2737.000000	20.885659
2736.000000	20.854590
2735.000000	20.840415
2734.000000	20.844805
2733.000000	20.868962
2732.000000	20.912748
2731.000000	20.974639
2730.000000	21.052558
2729.000000	21.144681
2728.000000	21.248552
2727.000000	21.360735
2726.000000	21.478302
2725.000000	21.599461
2724.000000	21.723100
2723.000000	21.848268
2722.000000	21.974064
2721.000000	22.099244
2720.000000	22.221542
2719.000000	22.338370
2718.000000	22.448408
2717.000000	22.551646
2716.000000	22.647818
2715.000000	22.736147
2714.000000	22.816455
2713.000000	22.889471
2712.000000	22.955808
2711.000000	23.015289
2710.000000	23.067984
2709.000000	23.114515
2708.000000	23.155023
2707.000000	23.189068
2706.000000	23.216578
2705.000000	23.238439
2704.000000	23.255522
2703.000000	23.268111
2702.000000	23.276982
2701.000000	23.283814
2700.000000	23.290182
2699.000000	23.296695
2698.000000	23.303414
2697.000000	23.310366
2696.000000	23.317010
2695.000000	23.322138
2694.000000	23.324846
2693.000000	23.325072
2692.000000	23.323048
2691.000000	23.318943
2690.000000	23.313435
2689.000000	23.307758
2688.000000	23.302679
2687.000000	23.298160
2686.000000	23.294258
2685.000000	23.291527
2684.000000	23.290126
2683.000000	23.289270
2682.000000	23.287991
2681.000000	23.285809
2680.000000	23.282467
2679.000000	23.277912
2678.000000	23.272958
2677.000000	23.269218
2676.000000	23.268118
2675.000000	23.270554
2674.000000	23.277474
2673.000000	23.289836
2672.000000	23.307528
2671.000000	23.329361
2670.000000	23.354407
2669.000000	23.382391
2668.000000	23.412764
2667.000000	23.444209
2666.000000	23.475516
2665.000000	23.506056
2664.000000	23.535049
2663.000000	23.561392
2662.000000	23.584601
2661.000000	23.605056
2660.000000	23.622982
2659.000000	23.638089
2658.000000	23.650369
2657.000000	23.660474
2656.000000	23.668939
2655.000000	23.675877
2654.000000	23.681967
2653.000000	23.688795
2652.000000	23.697910
2651.000000	23.710382
2650.000000	23.727641
2649.000000	23.751665
2648.000000	23.784034
2647.000000	23.825322
2646.000000	23.875658
2645.000000	23.935364
2644.000000	24.004098
2643.000000	24.080721
2642.000000	24.164065
2641.000000	24.253063
2640.000000	24.346310
2639.000000	24.441770
2638.000000	24.537648
2637.000000	24.632730
2636.000000	24.725659
2635.000000	24.814688
2634.000000	24.898387
2633.000000	24.975956
2632.000000	25.046644
2631.000000	25.109717
2630.000000	25.164939
2629.000000	25.212984
2628.000000	25.254945
2627.000000	25.291927
2626.000000	25.325444
2625.000000	25.356944
2624.000000	25.387031
2623.000000	25.415327
2622.000000	25.441149
2621.000000	25.464006
2620.000000	25.483113
2619.000000	25.497466
2618.000000	25.506521
2617.000000	25.510135
2616.000000	25.508047
2615.000000	25.499759
2614.000000	25.485348
2613.000000	25.465670
2612.000000	25.441348
2611.000000	25.412663
2610.000000	25.380296
2609.000000	25.345746
2608.000000	25.310854
2607.000000	25.277583
2606.000000	25.248561
2605.000000	25.227067
2604.000000	25.215976
2603.000000	25.216952
2602.000000	25.231090
2601.000000	25.258787
2600.000000	25.299280
2599.000000	25.350922
2598.000000	25.411833
2597.000000	25.480561
2596.000000	25.555271
2595.000000	25.633823
2594.000000	25.714835
2593.000000	25.797633
2592.000000	25.881540
2591.000000	25.965508
2590.000000	26.048875
2589.000000	26.131816
2588.000000	26.214729
2587.000000	26.297930
2586.000000	26.381924
2585.000000	26.467314
2584.000000	26.554259
2583.000000	26.642519
2582.000000	26.732227
2581.000000	26.823956
2580.000000	26.917959
2579.000000	27.013998
2578.000000	27.111829
2577.000000	27.211273
2576.000000	27.311572
2575.000000	27.411378
2574.000000	27.509667
2573.000000	27.606103
2572.000000	27.700307
2571.000000	27.791348
2570.000000	27.878317
2569.000000	27.960873
2568.000000	28.039170
2567.000000	28.113245
2566.000000	28.182693
2565.000000	28.246678
2564.000000	28.303544
2563.000000	28.351224
2562.000000	28.387678
2561.000000	28.410958
2560.000000	28.419268
2559.000000	28.410529
2558.000000	28.383574
2557.000000	28.339020
2556.000000	28.279591
2555.000000	28.210645
2554.000000	28.140012
2553.000000	28.077486
2552.000000	28.032971
2551.000000	28.014426
2550.000000	28.026091
2549.000000	28.068422
2548.000000	28.138203
2547.000000	28.229756
2546.000000	28.337043
2545.000000	28.453972
2544.000000	28.575217
2543.000000	28.696491
2542.000000	28.814924
2541.000000	28.929160
2540.000000	29.038498
2539.000000	29.142544
2538.000000	29.241256
2537.000000	29.334993
2536.000000	29.424098
2535.000000	29.508887
2534.000000	29.589698
2533.000000	29.666951
2532.000000	29.741050
2531.000000	29.812052
2530.000000	29.879922
2529.000000	29.944724
2528.000000	30.006739
2527.000000	30.066486
2526.000000	30.124392
2525.000000	30.180729
2524.000000	30.235645
2523.000000	30.289338
2522.000000	30.342159
2521.000000	30.394344
2520.000000	30.445900
2519.000000	30.496636
2518.000000	30.546216
2517.000000	30.594180
2516.000000	30.639989
2515.000000	30.683413
2514.000000	30.724853
2513.000000	30.765214
2512.000000	30.805514
2511.000000	30.846492
2510.000000	30.888502
2509.000000	30.931461
2508.000000	30.974787
2507.000000	31.017517
2506.000000	31.058611
2505.000000	31.097322
2504.000000	31.133381
2503.000000	31.166968
2502.000000	31.198703
2501.000000	31.229567
2500.000000	31.260684
2499.000000	31.292934
2498.000000	31.326593
2497.000000	31.361337
2496.000000	31.396441
2495.000000	31.431011
2494.000000	31.464178
2493.000000	31.495238
2492.000000	31.523829
2491.000000	31.550001
2490.000000	31.574243
2489.000000	31.597460
2488.000000	31.620733
2487.000000	31.645013
2486.000000	31.670906
2485.000000	31.698626
2484.000000	31.727888
2483.000000	31.757663
2482.000000	31.786353
2481.000000	31.812494
2480.000000	31.835456
2479.000000	31.855479
2478.000000	31.873223
2477.000000	31.889603
2476.000000	31.905887
2475.000000	31.923541
2474.000000	31.943737
2473.000000	31.966881
2472.000000	31.992453
2471.000000	32.019100
2470.000000	32.045009
2469.000000	32.068592
2468.000000	32.089031
2467.000000	32.106369
2466.000000	32.121285
2465.000000	32.134936
2464.000000	32.148840
2463.000000	32.164461
2462.000000	32.182776
2461.000000	32.204123
2460.000000	32.228220
2459.000000	32.254084
2458.000000	32.280123
2457.000000	32.304630
2456.000000	32.326331
2455.000000	32.344571
2454.000000	32.359417
2453.000000	32.371938
2452.000000	32.384146
2451.000000	32.398149
2450.000000	32.415272
2449.000000	32.435976
2448.000000	32.460189
2447.000000	32.487142
2446.000000	32.515031
2445.000000	32.541519
2444.000000	32.564799
2443.000000	32.584180
2442.000000	32.599936
2441.000000	32.613163
2440.000000	32.625770
2439.000000	32.640011
2438.000000	32.657620
2437.000000	32.679346
2436.000000	32.704969
2435.000000	32.733353
2434.000000	32.762540
2433.000000	32.790359
2432.000000	32.815230
2431.000000	32.836384
2430.000000	32.853683
2429.000000	32.867845
2428.000000	32.880754
2427.000000	32.894937
2426.000000	32.912430
2425.000000	32.934165
2424.000000	32.960099
2423.000000	32.989290
2422.000000	33.019832
2421.000000	33.049318
2420.000000	33.075824
2419.000000	33.098465
2418.000000	33.117310
2417.000000	33.133270
2416.000000	33.148119
2415.000000	33.164092
2414.000000	33.183130
2413.000000	33.206422
2412.000000	33.234324
2411.000000	33.266117
2410.000000	33.299868
2409.000000	33.333004
2408.000000	33.363303
2407.000000	33.389479
2406.000000	33.411285
2405.000000	33.429729
2404.000000	33.447048
2403.000000	33.465882
2402.000000	33.488171
2401.000000	33.514817
2400.000000	33.545890
2399.000000	33.580659
2398.000000	33.617506
2397.000000	33.654418
2396.000000	33.689606
2395.000000	33.721704
2394.000000	33.749962
2393.000000	33.774977
2392.000000	33.798945
2391.000000	33.824628
2390.000000	33.854051
2389.000000	33.888249
2388.000000	33.927708
2387.000000	33.971999
2386.000000	34.019349
2385.000000	34.067572
2384.000000	34.115005
2383.000000	34.161013
2382.000000	34.205521
2381.000000	34.249454
2380.000000	34.295449
2379.000000	34.346451
2378.000000	34.404300
2377.000000	34.469419
2376.000000	34.541430
2375.000000	34.618453
2374.000000	34.697056
2373.000000	34.773198
2372.000000	34.844440
2371.000000	34.909836
2370.000000	34.968397
2369.000000	35.020043
2368.000000	35.067737
2367.000000	35.115787
2366.000000	35.166544
2365.000000	35.221062
2364.000000	35.283207
2363.000000	35.352317
2362.000000	35.423072
2361.000000	35.493468
2360.000000	35.561192
2359.000000	35.627066
2358.000000	35.690546
2357.000000	35.747863
2356.000000	35.802336
2355.000000	35.852709
2354.000000	35.901728
2353.000000	35.952469
2352.000000	36.014735
2351.000000	36.093807
2350.000000	36.173191
2349.000000	36.237688
2348.000000	36.285411
2347.000000	36.334853
2346.000000	36.404951
2345.000000	36.487023
2344.000000	36.566336
2343.000000	36.626318
2342.000000	36.676677
2341.000000	36.729041
2340.000000	36.787382
2339.000000	36.852281
2338.000000	36.919355
2337.000000	36.988351
2336.000000	37.054515
2335.000000	37.119333
2334.000000	37.178702
2333.000000	37.236069
2332.000000	37.288248
2331.000000	37.346137
2330.000000	37.404016
2329.000000	37.470317
2328.000000	37.537976
2327.000000	37.609932
2326.000000	37.682482
2325.000000	37.753284
2324.000000	37.823829
2323.000000	37.891319
2322.000000	37.954758
2321.000000	38.011513
2320.000000	38.062194
2319.000000	38.113730
2318.000000	38.166159
2317.000000	38.223818
2316.000000	38.281689
2315.000000	38.345595
2314.000000	38.410174
2313.000000	38.478199
2312.000000	38.541929
2311.000000	38.604663
2310.000000	38.661412
2309.000000	38.715617
2308.000000	38.765461
2307.000000	38.817244
2306.000000	38.870842
2305.000000	38.928875
2304.000000	38.989007
2303.000000	39.053574
2302.000000	39.119232
2301.000000	39.185456
2300.000000	39.247779
2299.000000	39.307736
2298.000000	39.362993
2297.000000	39.414819
2296.000000	39.462616
2295.000000	39.510327
2294.000000	39.559287
2293.000000	39.610715
2292.000000	39.664596
2291.000000	39.721403
2290.000000	39.779776
2289.000000	39.836576
2288.000000	39.890183
2287.000000	39.940670
2286.000000	39.988865
2285.000000	40.034319
2284.000000	40.078295
2283.000000	40.123160
2282.000000	40.171130
2281.000000	40.222233
2280.000000	40.276246
2279.000000	40.332821
2278.000000	40.390240
2277.000000	40.445644
2276.000000	40.497199
2275.000000	40.545536
2274.000000	40.591214
2273.000000	40.634637
2272.000000	40.677190
2271.000000	40.721608
2270.000000	40.769193
2269.000000	40.819147
2268.000000	40.870461
2267.000000	40.922638
2266.000000	40.973705
2265.000000	41.020608
2264.000000	41.061885
2263.000000	41.098631
2262.000000	41.132223
2261.000000	41.163024
2260.000000	41.192669
2259.000000	41.223629
2258.000000	41.256950
2257.000000	41.290925
2256.000000	41.323504
2255.000000	41.353272
2254.000000	41.377559
2253.000000	41.392854
2252.000000	41.397049
2251.000000	41.391037
2250.000000	41.376102
2249.000000	41.353324
2248.000000	41.325549
2247.000000	41.295707
2246.000000	41.264632
2245.000000	41.230113
2244.000000	41.189390
2243.000000	41.140283
2242.000000	41.079798
2241.000000	41.004910
2240.000000	40.915710
2239.000000	40.816309
2238.000000	40.712282
2237.000000	40.609408
2236.000000	40.514918
2235.000000	40.436588
2234.000000	40.379260
2233.000000	40.343061
2232.000000	40.325428
2231.000000	40.322278
2230.000000	40.327339
2229.000000	40.333174
2228.000000	40.334807
2227.000000	40.331489
2226.000000	40.324579
2225.000000	40.316202
2224.000000	40.309938
2223.000000	40.310103
2222.000000	40.318711
2221.000000	40.334375
2220.000000	40.354462
2219.000000	40.376210
2218.000000	40.395534
2217.000000	40.407569
2216.000000	40.409885
2215.000000	40.403749
2214.000000	40.391985
2213.000000	40.377813
2212.000000	40.366005
2211.000000	40.362281
2210.000000	40.369839
2209.000000	40.387857
2208.000000	40.413462
2207.000000	40.443097
2206.000000	40.471596
2205.000000	40.492919
2204.000000	40.503488
2203.000000	40.503637
2202.000000	40.495677
2201.000000	40.482873
2200.000000	40.470599
2199.000000	40.465392
2198.000000	40.471135
2197.000000	40.487229
2196.000000	40.510626
2195.000000	40.537240
2194.000000	40.561046
2193.000000	40.574849
2192.000000	40.573983
2191.000000	40.558211
2190.000000	40.530108
2189.000000	40.493810
2188.000000	40.455758
2187.000000	40.423629
2186.000000	40.402945
2185.000000	40.395529
2184.000000	40.400980
2183.000000	40.417158
2182.000000	40.438858
2181.000000	40.459008
2180.000000	40.472751
2179.000000	40.479309
2178.000000	40.480124
2177.000000	40.477968
2176.000000	40.478441
2175.000000	40.489091
2174.000000	40.515277
2173.000000	40.558030
2172.000000	40.615739
2171.000000	40.685222
2170.000000	40.760322
2169.000000	40.832477
2168.000000	40.894745
2167.000000	40.944517
2166.000000	40.982467
2165.000000	41.011660
2164.000000	41.038252
2163.000000	41.069985
2162.000000	41.112238
2161.000000	41.166680
2160.000000	41.233175
2159.000000	41.309997
2158.000000	41.391585
2157.000000	41.469463
2156.000000	41.536997
2155.000000	41.591776
2154.000000	41.633715
2153.000000	41.664312
2152.000000	41.688601
2151.000000	41.714473
2150.000000	41.748245
2149.000000	41.792328
2148.000000	41.847191
2147.000000	41.911926
2146.000000	41.982039
2145.000000	42.050202
2144.000000	42.110843
2143.000000	42.161912
2142.000000	42.202749
2141.000000	42.234093
2140.000000	42.261100
2139.000000	42.292456
2138.000000	42.334743
2137.000000	42.389802
2136.000000	42.457382
2135.000000	42.536255
2134.000000	42.621627
2133.000000	42.705173
2132.000000	42.779608
2131.000000	42.841351
2130.000000	42.888660
2129.000000	42.921482
2128.000000	42.944408
2127.000000	42.966057
2126.000000	42.993590
2125.000000	43.030099
2124.000000	43.077282
2123.000000	43.135990
2122.000000	43.202649
2121.000000	43.269074
2120.000000	43.328186
2119.000000	43.377619
2118.000000	43.417345
2117.000000	43.447899
2116.000000	43.472665
2115.000000	43.498253
2114.000000	43.530610
2113.000000	43.572722
2112.000000	43.626278
2111.000000	43.691569
2110.000000	43.764319
2109.000000	43.836094
2108.000000	43.899420
2107.000000	43.950333
2106.000000	43.986302
2105.000000	44.005940
2104.000000	44.012372
2103.000000	44.013051
2102.000000	44.014317
2101.000000	44.019171
2100.000000	44.029358
2099.000000	44.045908
2098.000000	44.065381
2097.000000	44.079015
2096.000000	44.078487
2095.000000	44.060797
2094.000000	44.027294
2093.000000	43.981660
2092.000000	43.930041
2091.000000	43.879954
2090.000000	43.837509
2089.000000	43.807116
2088.000000	43.793251
2087.000000	43.799144
2086.000000	43.822724
2085.000000	43.857066
2084.000000	43.895724
2083.000000	43.935338
2082.000000	43.973141
2081.000000	44.006835
2080.000000	44.037512
2079.000000	44.070709
2078.000000	44.112387
2077.000000	44.166080
2076.000000	44.234716
2075.000000	44.319319
2074.000000	44.416533
2073.000000	44.519108
2072.000000	44.619068
2071.000000	44.709498
2070.000000	44.786224
2069.000000	44.852588
2068.000000	44.920433
2067.000000	45.000281
2066.000000	45.091817
2065.000000	45.189357
2064.000000	45.293561
2063.000000	45.410712
2062.000000	45.541431
2061.000000	45.677468
2060.000000	45.810356
2059.000000	45.936472
2058.000000	46.052829
2057.000000	46.155521
2056.000000	46.245753
2055.000000	46.330367
2054.000000	46.415022
2053.000000	46.501977
2052.000000	46.594123
2051.000000	46.694691
2050.000000	46.802729
2049.000000	46.912356
2048.000000	47.017074
2047.000000	47.112336
2046.000000	47.195518
2045.000000	47.268446
2044.000000	47.338963
2043.000000	47.414441
2042.000000	47.494882
2041.000000	47.577331
2040.000000	47.664791
2039.000000	47.764132
2038.000000	47.876221
2037.000000	47.994694
2036.000000	48.114527
2035.000000	48.234794
2034.000000	48.352194
2033.000000	48.460354
2032.000000	48.558102
2031.000000	48.650668
2030.000000	48.743182
2029.000000	48.836879
2028.000000	48.934999
2027.000000	49.042464
2026.000000	49.159669
2025.000000	49.280674
2024.000000	49.396921
2023.000000	49.500857
2022.000000	49.588981
2021.000000	49.667760
2020.000000	49.753470
2019.000000	49.856717
2018.000000	49.969686
2017.000000	50.077819
2016.000000	50.179356
2015.000000	50.283922
2014.000000	50.396576
2013.000000	50.513549
2012.000000	50.632858
2011.000000	50.757529
2010.000000	50.887120
2009.000000	51.014151
2008.000000	51.134883
2007.000000	51.252332
2006.000000	51.367908
2005.000000	51.480112
2004.000000	51.590407
2003.000000	51.707038
2002.000000	51.833061
2001.000000	51.965279
2000.000000	52.102084
1999.000000	52.238184
1998.000000	52.357164
1997.000000	52.447005
1996.000000	52.522681
1995.000000	52.615558
1994.000000	52.733310
1993.000000	52.851311
1992.000000	52.954894
1991.000000	53.059891
1990.000000	53.182265
1989.000000	53.314099
1988.000000	53.439503
1987.000000	53.555976
1986.000000	53.667727
1985.000000	53.773015
1984.000000	53.868089
1983.000000	53.957278
1982.000000	54.042790
1981.000000	54.120675
1980.000000	54.191631
1979.000000	54.263759
1978.000000	54.340132
1977.000000	54.415414
1976.000000	54.489275
1975.000000	54.567540
1974.000000	54.645038
1973.000000	54.702967
1972.000000	54.733302
1971.000000	54.755506
1970.000000	54.800652
1969.000000	54.879930
1968.000000	54.976166
1967.000000	55.066959
1966.000000	55.143351
1965.000000	55.208149
1964.000000	55.271163
1963.000000	55.340875
1962.000000	55.414294
1961.000000	55.481146
1960.000000	55.538488
1959.000000	55.594353
1958.000000	55.655810
1957.000000	55.720009
1956.000000	55.782501
1955.000000	55.841849
1954.000000	55.897846
1953.000000	55.946086
1952.000000	55.981636
1951.000000	56.009504
1950.000000	56.038179
1949.000000	56.066670
1948.000000	56.087298
1947.000000	56.100994
1946.000000	56.127371
1945.000000	56.190618
1944.000000	56.284105
1943.000000	56.371197
1942.000000	56.430870
1941.000000	56.472153
1940.000000	56.512322
1939.000000	56.557415
1938.000000	56.600403
1937.000000	56.637312
1936.000000	56.677969
1935.000000	56.730268
1934.000000	56.800836
1933.000000	56.851409
1932.000000	56.895111
1931.000000	56.935533
1930.000000	56.972492
1929.000000	57.001029
1928.000000	56.938280
1927.000000	56.877354
1926.000000	56.847768
1925.000000	56.891617
1924.000000	56.989596
1923.000000	57.096517
1922.000000	57.190930
1921.000000	57.275547
1920.000000	57.347635
1919.000000	57.381593
1918.000000	57.368752
1917.000000	57.341303
1916.000000	57.329163
1915.000000	57.325836
1914.000000	57.312357
1913.000000	57.295437
1912.000000	57.308183
1911.000000	57.372636
1910.000000	57.465916
1909.000000	57.553850
1908.000000	57.622279
1907.000000	57.674710
1906.000000	57.716970
1905.000000	57.745200
1904.000000	57.760909
1903.000000	57.777441
1902.000000	57.796229
1901.000000	57.805449
1900.000000	57.799142
1899.000000	57.791842
1898.000000	57.811923
1897.000000	57.866681
1896.000000	57.926295
1895.000000	57.953289
1894.000000	57.936490
1893.000000	57.901486
1892.000000	57.893018
1891.000000	57.915584
1890.000000	57.927232
1889.000000	57.913452
1888.000000	57.906732
1887.000000	57.935553
1886.000000	57.990335
1885.000000	58.037066
1884.000000	58.058413
1883.000000	58.065020
1882.000000	58.064033
1881.000000	58.052022
1880.000000	58.034107
1879.000000	58.021717
1878.000000	58.020067
1877.000000	58.026522
1876.000000	58.038190
1875.000000	58.052900
1874.000000	58.053602
1873.000000	58.009575
1872.000000	57.924676
1871.000000	57.859679
1870.000000	57.846114
1869.000000	57.854147
1868.000000	57.871748
1867.000000	57.908266
1866.000000	57.950199
1865.000000	57.975900
1864.000000	57.987448
1863.000000	58.003626
1862.000000	58.030360
1861.000000	58.057799
1860.000000	58.078897
1859.000000	58.092084
1858.000000	58.086370
1857.000000	58.052007
1856.000000	57.996832
1855.000000	57.943286
1854.000000	57.889749
1853.000000	57.819069
1852.000000	57.742619
1851.000000	57.694745
1850.000000	57.699671
1849.000000	57.752647
1848.000000	57.835709
1847.000000	57.923180
1846.000000	57.957080
1845.000000	57.863850
1844.000000	57.674949
1843.000000	57.511569
1842.000000	57.422068
1841.000000	57.376162
1840.000000	57.348467
1839.000000	57.345616
1838.000000	57.369601
1837.000000	57.392250
1836.000000	57.385023
1835.000000	57.336024
1834.000000	57.226669
1833.000000	57.072883
1832.000000	56.952593
1831.000000	56.872466
1830.000000	56.777308
1829.000000	56.678297
1828.000000	56.625885
1827.000000	56.633834
1826.000000	56.650463
1825.000000	56.629291
1824.000000	56.594591
1823.000000	56.575555
1822.000000	56.545712
1821.000000	56.469310
1820.000000	56.351747
1819.000000	56.222736
1818.000000	56.091252
1817.000000	55.940007
1816.000000	55.775161
1815.000000	55.627383
1814.000000	55.524116
1813.000000	55.476733
1812.000000	55.461715
1811.000000	55.447144
1810.000000	55.418285
1809.000000	55.367320
1808.000000	55.291909
1807.000000	55.194548
1806.000000	55.078701
1805.000000	54.947357
1804.000000	54.831505
1803.000000	54.766493
1802.000000	54.737219
1801.000000	54.698530
1800.000000	54.636103
1799.000000	54.582844
1798.000000	54.565587
1797.000000	54.568498
1796.000000	54.557621
1795.000000	54.520422
1794.000000	54.466160
1793.000000	54.375062
1792.000000	54.251385
1791.000000	54.170435
1790.000000	54.165727
1789.000000	54.195595
1788.000000	54.206292
1787.000000	54.162704
1786.000000	54.038906
1785.000000	53.824745
1784.000000	53.581352
1783.000000	53.398169
1782.000000	53.281855
1781.000000	53.167272
1780.000000	53.021496
1779.000000	52.882324
1778.000000	52.768624
1777.000000	52.657905
1776.000000	52.540965
1775.000000	52.461053
1774.000000	52.435908
1773.000000	52.364087
1772.000000	52.203543
1771.000000	52.050278
1770.000000	51.948329
1769.000000	51.839150
1768.000000	51.691379
1767.000000	51.561042
1766.000000	51.489890
1765.000000	51.451434
1764.000000	51.406982
1763.000000	51.309272
1762.000000	51.140409
1761.000000	50.954491
1760.000000	50.812321
1759.000000	50.734532
1758.000000	50.648770
1757.000000	50.484435
1756.000000	50.289092
1755.000000	50.133289
1754.000000	49.985060
1753.000000	49.768098
1752.000000	49.480342
1751.000000	49.216009
1750.000000	49.046378
1749.000000	48.916485
1748.000000	48.766055
1747.000000	48.611003
1746.000000	48.491404
1745.000000	48.415071
1744.000000	48.357329
1743.000000	48.292978
1742.000000	48.203727
1741.000000	48.062209
1740.000000	47.866902
1739.000000	47.690604
1738.000000	47.563059
1737.000000	47.410270
1736.000000	47.170725
1735.000000	46.763251
1734.000000	46.242049
1733.000000	45.839221
1732.000000	45.634387
1731.000000	45.549766
1730.000000	45.455536
1729.000000	45.276432
1728.000000	45.033473
1727.000000	44.771499
1726.000000	44.503104
1725.000000	44.220853
1724.000000	43.923522
1723.000000	43.619464
1722.000000	43.270345
1721.000000	42.827031
1720.000000	42.374639
1719.000000	42.017911
1718.000000	41.716887
1717.000000	41.431620
1716.000000	41.157324
1715.000000	40.875202
1714.000000	40.575477
1713.000000	40.256743
1712.000000	39.924951
1711.000000	39.584920
1710.000000	39.219258
1709.000000	38.818178
1708.000000	38.432886
1707.000000	38.114180
1706.000000	37.856656
1705.000000	37.685753
1704.000000	37.624338
1703.000000	37.526456
1702.000000	37.147791
1701.000000	36.399400
1700.000000	35.554055
1699.000000	35.017485
1698.000000	34.848770
1697.000000	34.717582
1696.000000	34.359449
1695.000000	33.900436
1694.000000	33.500225
1693.000000	33.159507
1692.000000	32.827542
1691.000000	32.484219
1690.000000	32.121770
1689.000000	31.758011
1688.000000	31.412074
1687.000000	31.100581
1686.000000	30.877935
1685.000000	30.558595
1684.000000	30.040291
1683.000000	29.597553
1682.000000	29.338433
1681.000000	29.181235
1680.000000	29.041186
1679.000000	28.895369
1678.000000	28.713382
1677.000000	28.421495
1676.000000	27.982883
1675.000000	27.493545
1674.000000	27.083245
1673.000000	26.772512
1672.000000	26.527821
1671.000000	26.306804
1670.000000	26.044503
1669.000000	25.737730
1668.000000	25.449619
1667.000000	25.210304
1666.000000	24.988319
1665.000000	24.741023
1664.000000	24.447156
1663.000000	24.116115
1662.000000	23.787033
1661.000000	23.485326
1660.000000	23.218488
1659.000000	22.988617
1658.000000	22.790138
1657.000000	22.579325
1656.000000	22.365909
1655.000000	22.227766
1654.000000	21.945317
1653.000000	21.437474
1652.000000	21.001728
1651.000000	20.689611
1650.000000	20.454546
1649.000000	20.295404
1648.000000	20.164110
1647.000000	19.955280
1646.000000	19.706469
1645.000000	19.476341
1644.000000	19.265609
1643.000000	19.068469
1642.000000	18.866030
1641.000000	18.637543
1640.000000	18.392131
1639.000000	18.174292
1638.000000	18.033458
1637.000000	17.906399
1636.000000	17.678120
1635.000000	17.409231
1634.000000	17.198699
1633.000000	17.036080
1632.000000	16.882267
1631.000000	16.723518
1630.000000	16.564658
1629.000000	16.398792
1628.000000	16.221311
1627.000000	16.048464
1626.000000	15.892490
1625.000000	15.750075
1624.000000	15.607916
1623.000000	15.472251
1622.000000	15.360740
1621.000000	15.263725
1620.000000	15.171121
1619.000000	15.101599
1618.000000	15.055192
1617.000000	14.985248
1616.000000	14.886328
1615.000000	14.796879
1614.000000	14.728693
1613.000000	14.664177
1612.000000	14.596495
1611.000000	14.546179
1610.000000	14.528191
1609.000000	14.526560
1608.000000	14.520195
1607.000000	14.510397
1606.000000	14.500453
1605.000000	14.484561
1604.000000	14.463772
1603.000000	14.450516
1602.000000	14.448864
1601.000000	14.446595
1600.000000	14.438251
1599.000000	14.435840
1598.000000	14.449951
1597.000000	14.476466
1596.000000	14.507291
1595.000000	14.541166
1594.000000	14.574398
1593.000000	14.596371
1592.000000	14.604851
1591.000000	14.612319
1590.000000	14.626673
1589.000000	14.641906
1588.000000	14.654063
1587.000000	14.672815
1586.000000	14.704290
1585.000000	14.736381
1584.000000	14.759053
1583.000000	14.772974
1582.000000	14.773372
1581.000000	14.744348
1580.000000	14.685942
1579.000000	14.634471
1578.000000	14.631817
1577.000000	14.651151
1576.000000	14.648890
1575.000000	14.645759
1574.000000	14.653824
1573.000000	14.654505
1572.000000	14.641807
1571.000000	14.634652
1570.000000	14.626887
1569.000000	14.603167
1568.000000	14.571229
1567.000000	14.548468
1566.000000	14.548719
1565.000000	14.571793
1564.000000	14.622923
1563.000000	14.692813
1562.000000	14.700763
1561.000000	14.714339
1560.000000	14.865180
1559.000000	14.990786
1558.000000	15.104603
1557.000000	15.212924
1556.000000	15.313077
1555.000000	15.412424
1554.000000	15.513919
1553.000000	15.621888
1552.000000	15.753246
1551.000000	15.929027
1550.000000	16.142612
1549.000000	16.356390
1548.000000	16.530107
1547.000000	16.664942
1546.000000	16.806020
1545.000000	16.970307
1544.000000	17.114088
1543.000000	17.222321
1542.000000	17.416698
1541.000000	17.742501
1540.000000	18.072371
1539.000000	18.381318
1538.000000	18.664976
1537.000000	18.900755
1536.000000	19.110144
1535.000000	19.362705
1534.000000	19.676814
1533.000000	20.006320
1532.000000	20.309165
1531.000000	20.578613
1530.000000	20.841391
1529.000000	21.130374
1528.000000	21.464260
1527.000000	21.841061
1526.000000	22.238193
1525.000000	22.622500
1524.000000	23.012845
1523.000000	23.491544
1522.000000	24.050980
1521.000000	24.588304
1520.000000	25.031605
1519.000000	25.433426
1518.000000	25.912974
1517.000000	26.472347
1516.000000	27.037200
1515.000000	27.561514
1514.000000	28.035783
1513.000000	28.472725
1512.000000	28.871491
1511.000000	29.209220
1510.000000	29.506780
1509.000000	30.024470
1508.000000	30.898285
1507.000000	31.712278
1506.000000	32.350417
1505.000000	32.882080
1504.000000	33.337473
1503.000000	33.791789
1502.000000	34.284502
1501.000000	34.789830
1500.000000	35.287024
1499.000000	35.811044
1498.000000	36.392779
1497.000000	36.985819
1496.000000	37.522638
1495.000000	37.982785
1494.000000	38.350123
1493.000000	38.605147
1492.000000	38.825577
1491.000000	39.168657
1490.000000	39.671348
1489.000000	40.247397
1488.000000	40.795315
1487.000000	41.278287
1486.000000	41.698686
1485.000000	42.036628
1484.000000	42.301328
1483.000000	42.542103
1482.000000	42.790628
1481.000000	43.022909
1480.000000	43.208009
1479.000000	43.345399
1478.000000	43.457792
1477.000000	43.556593
1476.000000	43.637802
1475.000000	43.749267
1474.000000	43.907542
1473.000000	43.962351
1472.000000	43.827124
1471.000000	43.620216
1470.000000	43.423376
1469.000000	43.207804
1468.000000	42.924489
1467.000000	42.576693
1466.000000	42.147657
1465.000000	41.571454
1464.000000	40.892628
1463.000000	40.227212
1462.000000	39.583999
1461.000000	38.877894
1460.000000	38.098632
1459.000000	37.313380
1458.000000	36.324825
1457.000000	34.904151
1456.000000	33.393582
1455.000000	32.125892
1454.000000	31.001654
1453.000000	29.783922
1452.000000	28.386440
1451.000000	26.869759
1450.000000	25.252063
1449.000000	23.466179
1448.000000	21.523486
1447.000000	19.581964
1446.000000	17.736019
1445.000000	15.951153
1444.000000	14.204448
1443.000000	12.528255
1442.000000	10.936594
1441.000000	9.437253
1440.000000	8.079991
1439.000000	6.875442
1438.000000	5.717857
1437.000000	4.525957
1436.000000	3.457908
1435.000000	2.707420
1434.000000	2.208744
1433.000000	1.807232
1432.000000	1.472827
1431.000000	1.242982
1430.000000	1.089786
1429.000000	0.957304
1428.000000	0.869475
1427.000000	0.868916
1426.000000	0.924139
1425.000000	0.992216
1424.000000	1.102873
1423.000000	1.292867
1422.000000	1.524880
1421.000000	1.770714
1420.000000	2.099984
1419.000000	2.577474
1418.000000	3.125101
1417.000000	3.655098
1416.000000	4.210401
1415.000000	4.855331
1414.000000	5.572742
1413.000000	6.331890
1412.000000	7.164210
1411.000000	8.099810
1410.000000	9.096274
1409.000000	10.107004
1408.000000	11.158080
1407.000000	12.302972
1406.000000	13.551511
1405.000000	14.877388
1404.000000	16.245930
1403.000000	17.596355
1402.000000	18.877937
1401.000000	20.131814
1400.000000	21.454567
1399.000000	22.852984
1398.000000	24.242058
1397.000000	25.610043
1396.000000	27.045084
1395.000000	28.580781
1394.000000	30.131426
1393.000000	31.609502
1392.000000	33.002322
1391.000000	34.321593
1390.000000	35.575426
1389.000000	36.807577
1388.000000	38.058106
1387.000000	39.283547
1386.000000	40.399935
1385.000000	41.379465
1384.000000	42.240255
1383.000000	42.976347
1382.000000	43.556106
1381.000000	43.947862
1380.000000	44.108233
1379.000000	43.966863
1378.000000	43.465567
1377.000000	42.592680
1376.000000	41.333175
1375.000000	39.609204
1374.000000	37.378872
1373.000000	34.796533
1372.000000	32.129556
1371.000000	29.612005
1370.000000	27.447895
1369.000000	25.858653
1368.000000	25.037712
1367.000000	25.040223
1366.000000	25.777908
1365.000000	27.133856
1364.000000	29.011966
1363.000000	31.252319
1362.000000	33.589152
1361.000000	35.772137
1360.000000	37.671236
1359.000000	39.247611
1358.000000	40.487269
1357.000000	41.377732
1356.000000	41.899168
1355.000000	42.019276
1354.000000	41.712165
1353.000000	40.976526
1352.000000	39.829849
1351.000000	38.299392
1350.000000	36.416069
1349.000000	34.226342
1348.000000	31.786199
1347.000000	29.153722
1346.000000	26.381841
1345.000000	23.525003
1344.000000	20.658966
1343.000000	17.877447
1342.000000	15.263400
1341.000000	12.876020
1340.000000	10.776438
1339.000000	9.043608
1338.000000	7.733837
1337.000000	6.829853
1336.000000	6.257465
1335.000000	5.924151
1334.000000	5.720390
1333.000000	5.528026
1332.000000	5.249543
1331.000000	4.832734
1330.000000	4.275242
1329.000000	3.614925
1328.000000	2.919742
1327.000000	2.265746
1326.000000	1.704778
1325.000000	1.253696
1324.000000	0.911885
1323.000000	0.673769
1322.000000	0.521605
1321.000000	0.427223
1320.000000	0.370816
1319.000000	0.343599
1318.000000	0.333891
1317.000000	0.325859
1316.000000	0.313593
1315.000000	0.302658
1314.000000	0.293816
1313.000000	0.280769
1312.000000	0.264360
1311.000000	0.253195
1310.000000	0.249209
1309.000000	0.246494
1308.000000	0.245769
1307.000000	0.255641
1306.000000	0.278462
1305.000000	0.308654
1304.000000	0.346787
1303.000000	0.400596
1302.000000	0.470511
1301.000000	0.548651
1300.000000	0.634575
1299.000000	0.735710
1298.000000	0.852000
1297.000000	0.976014
1296.000000	1.107819
1295.000000	1.255100
1294.000000	1.417578
1293.000000	1.586965
1292.000000	1.761745
1291.000000	1.946708
1290.000000	2.138241
1289.000000	2.324068
1288.000000	2.495523
1287.000000	2.645629
1286.000000	2.758434
1285.000000	2.816503
1284.000000	2.822062
1283.000000	2.800265
1282.000000	2.782752
1281.000000	2.797755
1280.000000	2.871481
1279.000000	3.020286
1278.000000	3.238250
1277.000000	3.505557
1276.000000	3.807667
1275.000000	4.137622
1274.000000	4.485436
1273.000000	4.839232
1272.000000	5.196428
1271.000000	5.559313
1270.000000	5.922560
1269.000000	6.277045
1268.000000	6.622976
1267.000000	6.967661
1266.000000	7.312796
1265.000000	7.655602
1264.000000	7.999498
1263.000000	8.352323
1262.000000	8.715310
1261.000000	9.083468
1260.000000	9.454234
1259.000000	9.826156
1258.000000	10.192814
1257.000000	10.548147
1256.000000	10.894938
1255.000000	11.239981
1254.000000	11.585184
1253.000000	11.930501
1252.000000	12.280925
1251.000000	12.641978
1250.000000	13.011566
1249.000000	13.383186
1248.000000	13.753868
1247.000000	14.122446
1246.000000	14.483934
1245.000000	14.833070
1244.000000	15.170784
1243.000000	15.501851
1242.000000	15.829213
1241.000000	16.155777
1240.000000	16.487680
1239.000000	16.829666
1238.000000	17.179749
1237.000000	17.532492
1236.000000	17.884253
1235.000000	18.231622
1234.000000	18.568776
1233.000000	18.891594
1232.000000	19.201916
1231.000000	19.504668
1230.000000	19.804181
1229.000000	20.105775
1228.000000	20.417043
1227.000000	20.743369
1226.000000	21.084007
1225.000000	21.434168
1224.000000	21.787997
1223.000000	22.138182
1222.000000	22.477144
1221.000000	22.801535
1220.000000	23.113861
1219.000000	23.418897
1218.000000	23.721441
1217.000000	24.027598
1216.000000	24.343972
1215.000000	24.674031
1214.000000	25.016703
1213.000000	25.368141
1212.000000	25.721763
1211.000000	26.067574
1210.000000	26.396566
1209.000000	26.706416
1208.000000	27.000898
1207.000000	27.285636
1206.000000	27.567389
1205.000000	27.855091
1204.000000	28.156086
1203.000000	28.471366
1202.000000	28.796824
1201.000000	29.126472
1200.000000	29.451914
1199.000000	29.761152
1198.000000	30.042335
1197.000000	30.288895
1196.000000	30.496755
1195.000000	30.661691
1194.000000	30.780504
1193.000000	30.849765
1192.000000	30.863060
1191.000000	30.809838
1190.000000	30.686648
1189.000000	30.508150
1188.000000	30.307881
1187.000000	30.131450
1186.000000	30.025791
1185.000000	30.025837
1184.000000	30.143512
1183.000000	30.369903
1182.000000	30.684374
1181.000000	31.065869
1180.000000	31.493170
1179.000000	31.943083
1178.000000	32.397369
1177.000000	32.845026
1176.000000	33.277192
1175.000000	33.682668
1174.000000	34.053435
1173.000000	34.389375
1172.000000	34.695527
1171.000000	34.978720
1170.000000	35.250331
1169.000000	35.525992
1168.000000	35.816479
1167.000000	36.123154
1166.000000	36.442675
1165.000000	36.770474
1164.000000	37.097494
1163.000000	37.410582
1162.000000	37.701615
1161.000000	37.971253
1160.000000	38.222467
1159.000000	38.458620
1158.000000	38.689095
1157.000000	38.928278
1156.000000	39.184132
1155.000000	39.453679
1154.000000	39.731508
1153.000000	40.013877
1152.000000	40.292699
1151.000000	40.554873
1150.000000	40.792458
1149.000000	41.007405
1148.000000	41.203776
1147.000000	41.385068
1146.000000	41.561112
1145.000000	41.746586
1144.000000	41.948881
1143.000000	42.164217
1142.000000	42.387096
1141.000000	42.614150
1140.000000	42.836914
1139.000000	43.042646
1138.000000	43.226063
1137.000000	43.392213
1136.000000	43.546356
1135.000000	43.690852
1134.000000	43.833749
1133.000000	43.988199
1132.000000	44.160147
1131.000000	44.345718
1130.000000	44.541773
1129.000000	44.747944
1128.000000	44.956449
1127.000000	45.152077
1126.000000	45.327014
1125.000000	45.485851
1124.000000	45.634756
1123.000000	45.777292
1122.000000	45.922452
1121.000000	46.083546
1120.000000	46.264520
1119.000000	46.457544
1118.000000	46.655431
1117.000000	46.855129
1116.000000	47.047951
1115.000000	47.220512
1114.000000	47.369714
1113.000000	47.505583
1112.000000	47.636512
1111.000000	47.765712
1110.000000	47.901675
1109.000000	48.057742
1108.000000	48.236995
1107.000000	48.428040
1106.000000	48.619299
1105.000000	48.804568
1104.000000	48.973804
1103.000000	49.113810
1102.000000	49.223242
1101.000000	49.315609
1100.000000	49.402884
1099.000000	49.493341
1098.000000	49.599610
1097.000000	49.737593
1096.000000	49.910260
1095.000000	50.105098
1094.000000	50.309577
1093.000000	50.516447
1092.000000	50.713544
1091.000000	50.885185
1090.000000	51.028683
1089.000000	51.156688
1088.000000	51.280921
1087.000000	51.407550
1086.000000	51.548197
1085.000000	51.717944
1084.000000	51.917562
1083.000000	52.131140
1082.000000	52.343170
1081.000000	52.544644
1080.000000	52.722668
1079.000000	52.862229
1078.000000	52.963980
1077.000000	53.044490
1076.000000	53.118094
1075.000000	53.192498
1074.000000	53.280755
1073.000000	53.398115
1072.000000	53.542026
1071.000000	53.690079
1070.000000	53.819827
1069.000000	53.914956
1068.000000	53.955252
1067.000000	53.920002
1066.000000	53.809662
1065.000000	53.651029
1064.000000	53.479236
1063.000000	53.330421
1062.000000	53.247441
1061.000000	53.269993
1060.000000	53.408509
1059.000000	53.641221
1058.000000	53.934122
1057.000000	54.254342
1056.000000	54.566368
1055.000000	54.837149
1054.000000	55.056887
1053.000000	55.239724
1052.000000	55.403134
1051.000000	55.559742
1050.000000	55.728851
1049.000000	55.932279
1048.000000	56.172973
1047.000000	56.432521
1046.000000	56.691752
1045.000000	56.937906
1044.000000	57.152343
1043.000000	57.314540
1042.000000	57.423497
1041.000000	57.499458
1040.000000	57.563138
1039.000000	57.629306
1038.000000	57.718897
1037.000000	57.855173
1036.000000	58.041622
1035.000000	58.259209
1034.000000	58.486807
1033.000000	58.708810
1032.000000	58.903835
1031.000000	59.048478
1030.000000	59.139459
1029.000000	59.195794
1028.000000	59.237950
1027.000000	59.281107
1026.000000	59.347307
1025.000000	59.460953
1024.000000	59.626523
1023.000000	59.825707
1022.000000	60.038452
1021.000000	60.249880
1020.000000	60.437418
1019.000000	60.574720
1018.000000	60.655454
1017.000000	60.697604
1016.000000	60.721796
1015.000000	60.744185
1014.000000	60.787956
1013.000000	60.879090
1012.000000	61.023664
1011.000000	61.205299
1010.000000	61.404807
1009.000000	61.606574
1008.000000	61.786624
1007.000000	61.917820
1006.000000	61.992986
1005.000000	62.028066
1004.000000	62.041854
1003.000000	62.049370
1002.000000	62.073992
1001.000000	62.142515
1000.000000	62.262895
999.000000	62.420555
998.000000	62.598104
997.000000	62.781262
996.000000	62.947000
995.000000	63.067697
994.000000	63.134383
993.000000	63.160667
992.000000	63.163570
991.000000	63.157444
990.000000	63.165088
989.000000	63.212927
988.000000	63.308945
987.000000	63.440443
986.000000	63.592812
985.000000	63.754111
984.000000	63.901534
983.000000	64.006126
982.000000	64.057124
981.000000	64.066891
980.000000	64.051257
979.000000	64.023140
978.000000	64.004258
977.000000	64.020973
976.000000	64.082500
975.000000	64.177499
974.000000	64.292999
973.000000	64.418850
972.000000	64.534339
971.000000	64.612059
970.000000	64.641519
969.000000	64.633898
968.000000	64.603175
967.000000	64.561004
966.000000	64.528431
965.000000	64.530651
964.000000	64.574962
963.000000	64.649363
962.000000	64.742073
961.000000	64.845158
960.000000	64.938903
959.000000	64.995814
958.000000	65.005239
957.000000	64.978629
956.000000	64.929731
955.000000	64.868050
954.000000	64.812140
953.000000	64.786199
952.000000	64.798585
951.000000	64.838760
950.000000	64.896568
949.000000	64.965567
948.000000	65.027901
947.000000	65.057015
946.000000	65.041924
945.000000	64.991827
944.000000	64.917693
943.000000	64.827460
942.000000	64.738884
941.000000	64.675545
940.000000	64.645263
939.000000	64.638729
938.000000	64.648196
937.000000	64.669484
936.000000	64.685358
935.000000	64.669208
934.000000	64.609561
933.000000	64.515275
932.000000	64.396018
931.000000	64.257933
930.000000	64.117019
929.000000	63.995520
928.000000	63.900764
927.000000	63.823440
926.000000	63.756845
925.000000	63.697550
924.000000	63.628249
923.000000	63.521584
922.000000	63.365489
921.000000	63.168293
920.000000	62.938748
919.000000	62.681228
918.000000	62.410615
917.000000	62.148851
916.000000	61.904053
915.000000	61.667731
914.000000	61.432631
913.000000	61.195347
912.000000	60.939306
911.000000	60.638202
910.000000	60.279307
909.000000	59.868575
908.000000	59.413262
907.000000	58.916493
906.000000	58.391378
905.000000	57.858905
904.000000	57.327844
903.000000	56.792029
902.000000	56.244375
901.000000	55.678921
900.000000	55.078109
899.000000	54.416676
898.000000	53.682949
897.000000	52.881616
896.000000	52.019042
895.000000	51.100319
894.000000	50.138635
893.000000	49.153149
892.000000	48.151073
891.000000	47.125304
890.000000	46.066969
889.000000	44.967173
888.000000	43.811331
887.000000	42.582654
886.000000	41.276108
885.000000	39.900375
884.000000	38.465905
883.000000	36.983323
882.000000	35.467649
881.000000	33.935332
880.000000	32.395750
879.000000	30.850623
878.000000	29.301139
877.000000	27.749991
876.000000	26.200629
875.000000	24.659258
874.000000	23.139846
873.000000	21.661984
872.000000	20.246354
871.000000	18.911210
870.000000	17.667296
869.000000	16.520645
868.000000	15.473276
867.000000	14.523446
866.000000	13.665474
865.000000	12.889509
864.000000	12.189179
863.000000	11.559421
862.000000	10.992910
861.000000	10.483435
860.000000	10.027919
859.000000	9.625581
858.000000	9.270935
857.000000	8.955574
856.000000	8.676184
855.000000	8.432061
854.000000	8.220381
853.000000	8.037061
852.000000	7.882621
851.000000	7.762016
850.000000	7.676852
849.000000	7.627125
848.000000	7.617117
847.000000	7.653038
846.000000	7.737280
845.000000	7.868321
844.000000	8.049228
843.000000	8.287591
842.000000	8.586338
841.000000	8.944055
840.000000	9.360649
839.000000	9.840407
838.000000	10.386549
837.000000	10.997771
836.000000	11.674351
835.000000	12.416254
834.000000	13.215044
833.000000	14.040164
832.000000	14.824716
831.000000	15.412726
830.000000	15.515034
829.000000	14.758741
828.000000	12.922404
827.000000	10.233439
826.000000	7.408498
825.000000	5.301463
824.000000	4.419347
823.000000	4.726925
822.000000	5.848788
821.000000	7.397184
820.000000	9.113068
819.000000	10.836994
818.000000	12.478170
817.000000	14.004519
816.000000	15.426881
815.000000	16.755778
814.000000	17.996629
813.000000	19.165113
812.000000	20.282063
811.000000	21.351992
810.000000	22.368954
809.000000	23.335567
808.000000	24.256839
807.000000	25.128929
806.000000	25.949381
805.000000	26.731108
804.000000	27.487932
803.000000	28.216546
802.000000	28.913083
801.000000	29.593451
800.000000	30.280819
799.000000	30.983451
798.000000	31.700563
797.000000	32.436491
796.000000	33.190164
795.000000	33.942783
794.000000	34.673436
793.000000	35.376260
792.000000	36.050194
791.000000	36.688065
790.000000	37.292085
789.000000	37.885386
788.000000	38.492526
787.000000	39.120842
786.000000	39.770995
785.000000	40.447208
784.000000	41.141909
783.000000	41.826238
782.000000	42.471837
781.000000	43.069953
780.000000	43.619193
779.000000	44.114911
778.000000	44.565181
777.000000	45.000492
776.000000	45.451208
775.000000	45.927781
774.000000	46.431957
773.000000	46.966871
772.000000	47.521783
771.000000	48.064340
770.000000	48.562965
769.000000	49.005006
768.000000	49.384997
767.000000	49.697919
766.000000	49.958255
765.000000	50.205701
764.000000	50.477424
763.000000	50.787363
762.000000	51.139534
761.000000	51.537883
760.000000	51.968831
759.000000	52.394281
758.000000	52.778457
757.000000	53.108067
756.000000	53.379852
755.000000	53.592218
754.000000	53.763327
753.000000	53.935255
752.000000	54.145162
751.000000	54.407039
750.000000	54.726626
749.000000	55.108386
748.000000	55.534093
747.000000	55.957662
746.000000	56.336688
745.000000	56.652989
744.000000	56.897041
743.000000	57.061872
742.000000	57.166653
741.000000	57.261205
740.000000	57.389424
739.000000	57.565553
738.000000	57.792187
737.000000	58.071631
736.000000	58.383812
735.000000	58.678147
734.000000	58.906616
733.000000	59.047505
732.000000	59.090871
731.000000	59.032206
730.000000	58.896652
729.000000	58.742638
728.000000	58.623433
727.000000	58.562863
726.000000	58.573863
725.000000	58.670732
724.000000	58.845843
723.000000	59.059842
722.000000	59.273305
721.000000	59.469374
720.000000	59.637217
719.000000	59.765311
718.000000	59.869002
717.000000	59.997352
716.000000	60.194065
715.000000	60.472158
714.000000	60.834601
713.000000	61.286026
712.000000	61.805463
711.000000	62.335009
710.000000	62.817590
709.000000	63.223660
708.000000	63.535220
707.000000	63.740759
706.000000	63.863830
705.000000	63.966593
704.000000	64.105105
703.000000	64.301018
702.000000	64.565394
701.000000	64.913246
700.000000	65.331182
699.000000	65.763624
698.000000	66.151704
697.000000	66.463074
696.000000	66.675071
695.000000	66.769442
694.000000	66.767876
693.000000	66.739237
692.000000	66.748131
691.000000	66.825095
690.000000	66.995061
689.000000	67.288380
688.000000	67.692531
687.000000	68.129984
686.000000	68.519677
685.000000	68.825138
684.000000	69.026759
683.000000	69.103353
682.000000	69.074105
681.000000	69.015147
680.000000	69.001857
679.000000	69.065984
678.000000	69.229847
677.000000	69.519586
676.000000	69.917783
675.000000	70.354125
674.000000	70.757910
673.000000	71.088470
672.000000	71.326019
671.000000	71.475590
670.000000	71.574573
669.000000	71.664084
668.000000	71.722881
667.000000	71.700827
666.000000	71.667626
665.000000	71.749479
664.000000	71.997504
663.000000	72.371827
662.000000	72.774039
661.000000	73.108950
660.000000	73.318879
659.000000	73.380180
658.000000	73.315595
657.000000	73.191220
656.000000	73.080367
655.000000	73.046126
654.000000	73.139187
653.000000	73.383730
652.000000	73.761948
651.000000	74.212627
650.000000	74.650957
649.000000	74.995866
648.000000	75.186844
647.000000	75.201429
646.000000	75.074053
645.000000	74.884918
644.000000	74.715618
643.000000	74.626443
642.000000	74.668595
641.000000	74.877632
640.000000	75.240314
639.000000	75.684968
638.000000	76.116855
637.000000	76.457738
636.000000	76.653418
635.000000	76.676163
634.000000	76.548839
633.000000	76.345019
632.000000	76.148343
631.000000	76.026177
630.000000	76.033964
629.000000	76.205861
628.000000	76.527708
627.000000	76.938274
626.000000	77.359886
625.000000	77.717189
624.000000	77.930222
623.000000	77.938485
622.000000	77.755959
621.000000	77.471521
620.000000	77.183865
619.000000	76.967936
618.000000	76.894573
617.000000	77.023227
616.000000	77.345443
615.000000	77.766826
614.000000	78.161857
613.000000	78.426223
612.000000	78.478413
611.000000	78.266625
610.000000	77.803468
609.000000	77.160113
608.000000	76.407557
607.000000	75.570010
606.000000	74.622274
605.000000	73.460096
604.000000	71.836512
603.000000	69.378591
602.000000	65.668908
601.000000	60.408912
600.000000	53.644115
599.000000	46.004338
598.000000	38.669827
597.000000	32.931612
596.000000	29.682914
595.000000	29.157844
594.000000	30.960297
593.000000	34.320304
592.000000	38.474796
591.000000	42.838893
590.000000	47.017734
589.000000	50.827248
588.000000	54.226254
587.000000	57.211113
586.000000	59.764522
585.000000	61.888150
584.000000	63.617405
583.000000	65.032650
582.000000	66.264608
581.000000	67.459964
580.000000	68.692897
579.000000	69.923538
578.000000	71.087663
577.000000	72.162710
576.000000	73.116986
575.000000	73.861586
574.000000	74.323587
573.000000	74.533020
572.000000	74.584208
571.000000	74.575101
570.000000	74.616806
569.000000	74.826411
568.000000	75.254883
567.000000	75.846968
566.000000	76.497309
565.000000	77.119331
564.000000	77.631205
563.000000	77.942540
562.000000	78.015459
561.000000	77.905912
560.000000	77.709257
559.000000	77.507622
558.000000	77.391115
557.000000	77.459048
556.000000	77.754102
555.000000	78.220701
554.000000	78.755621
553.000000	79.265082
552.000000	79.655946
551.000000	79.832507
550.000000	79.763984
549.000000	79.520254
548.000000	79.210979
547.000000	78.937180
546.000000	78.805363
545.000000	78.907470
544.000000	79.245863
543.000000	79.726838
542.000000	80.243505
541.000000	80.723801
540.000000	81.084351
539.000000	81.223065
538.000000	81.108622
537.000000	80.827287
536.000000	80.500781
535.000000	80.217879
534.000000	80.063000
533.000000	80.125376
532.000000	80.424790
531.000000	80.871097
530.000000	81.335448
529.000000	81.722028
528.000000	81.945428
527.000000	81.921613
526.000000	81.644535
525.000000	81.206022
524.000000	80.701938
523.000000	80.168026
522.000000	79.626756
521.000000	79.116295
520.000000	78.632075
519.000000	78.099552
518.000000	77.459082
517.000000	76.737378
516.000000	76.006006
515.000000	75.331804
514.000000	74.790673
513.000000	74.461883
512.000000	74.354861
511.000000	74.381751
510.000000	74.427824
509.000000	74.412014
508.000000	74.232377
507.000000	73.716044
506.000000	72.686434
505.000000	71.054255
504.000000	68.836923
503.000000	66.224575
502.000000	63.681839
501.000000	61.796090
500.000000	60.932951
499.000000	61.101779
498.000000	62.102323
497.000000	63.641355
496.000000	65.363553
495.000000	66.923618
494.000000	68.106296
493.000000	68.901181
492.000000	69.422844
491.000000	69.809771
490.000000	70.197893
489.000000	70.703395
488.000000	71.363819
487.000000	72.144197
486.000000	73.026769
485.000000	74.048499
484.000000	75.207277
483.000000	76.389603
482.000000	77.455207
481.000000	78.330471
480.000000	78.963971
479.000000	79.298956
478.000000	79.352561
477.000000	79.250319
476.000000	79.117807
475.000000	79.009801
474.000000	79.008074
473.000000	79.283182
472.000000	79.874826
471.000000	80.546864
470.000000	81.052516
469.000000	81.342303
468.000000	81.451017
467.000000	81.362507
466.000000	81.078050
465.000000	80.707632
464.000000	80.383271
463.000000	80.180412
462.000000	80.158853
461.000000	80.357756
460.000000	80.696088
459.000000	80.988455
458.000000	81.136898
457.000000	81.145738
456.000000	80.978868
455.000000	80.581441
454.000000	79.991676
453.000000	79.382080
452.000000	78.924308
451.000000	78.624060
450.000000	78.387840
449.000000	78.161429
448.000000	77.898575
447.000000	77.444608
446.000000	76.593338
445.000000	75.204362
444.000000	73.190696
443.000000	70.514990
442.000000	67.257097
441.000000	63.612576
440.000000	59.774523
439.000000	55.906393
438.000000	52.235620
437.000000	49.150244
436.000000	47.097499
435.000000	46.340268
434.000000	46.814018
433.000000	48.260973
432.000000	50.441412
431.000000	53.081086
430.000000	55.865568
429.000000	58.613719
428.000000	61.294299
427.000000	63.867973
426.000000	66.278164
425.000000	68.565249
424.000000	70.748689
423.000000	72.652496
422.000000	74.057753
421.000000	74.944566
420.000000	75.433039
419.000000	75.809691
418.000000	76.232180
417.000000	76.716639
416.000000	77.352080
415.000000	78.072466
414.000000	78.743159
413.000000	79.404659
412.000000	80.087740
411.000000	80.576622
410.000000	80.672943
409.000000	80.526863
408.000000	80.364712
407.000000	80.160614
406.000000	79.883866
405.000000	79.771105
404.000000	79.984440
403.000000	80.311224
402.000000	80.675850
401.000000	80.825720
400.000000	80.986298
