PE IR       SUBTECH     SPECTRUM    ASCII       PEDS        4.00        
   -1
23ms083_nitrito.asc
24/09/05
16:42:48.00
24/09/05
16:42:48.00
Administrator
Sample 1111 By Administrator Date Thursday, September 05 2024
400.000000
#HDR
-1
-1
#GR
cm-1
%T
1.0
0.0
4000.000000
-1.000000
3601
8
81.088064
2.311745
#DATA
4000.000000	55.528830
3999.000000	55.586161
3998.000000	55.643677
3997.000000	55.702082
3996.000000	55.761161
3995.000000	55.819663
3994.000000	55.876889
3993.000000	55.934090
3992.000000	55.993487
3991.000000	56.055757
3990.000000	56.119020
3989.000000	56.180927
3988.000000	56.241261
3987.000000	56.301712
3986.000000	56.363430
3985.000000	56.425533
3984.000000	56.486233
3983.000000	56.544760
3982.000000	56.601767
3981.000000	56.658163
3980.000000	56.714221
3979.000000	56.770017
3978.000000	56.826022
3977.000000	56.882852
3976.000000	56.940770
3975.000000	56.999492
3974.000000	57.058515
3973.000000	57.117645
3972.000000	57.177071
3971.000000	57.237172
3970.000000	57.297881
3969.000000	57.358382
3968.000000	57.417468
3967.000000	57.474271
3966.000000	57.528909
3965.000000	57.582457
3964.000000	57.636270
3963.000000	57.691041
3962.000000	57.746658
3961.000000	57.802661
3960.000000	57.858784
3959.000000	57.915186
3958.000000	57.971928
3957.000000	58.029060
3956.000000	58.086787
3955.000000	58.145067
3954.000000	58.203398
3953.000000	58.260884
3952.000000	58.317018
3951.000000	58.372077
3950.000000	58.426501
3949.000000	58.480061
3948.000000	58.532175
3947.000000	58.583701
3946.000000	58.637475
3945.000000	58.696024
3944.000000	58.758722
3943.000000	58.821757
3942.000000	58.882140
3941.000000	58.940636
3940.000000	58.999865
3939.000000	59.061069
3938.000000	59.122554
3937.000000	59.182214
3936.000000	59.240609
3935.000000	59.299856
3934.000000	59.360966
3933.000000	59.422068
3932.000000	59.480630
3931.000000	59.535960
3930.000000	59.589121
3929.000000	59.643005
3928.000000	59.700798
3927.000000	59.764154
3926.000000	59.830978
3925.000000	59.896101
3924.000000	59.956791
3923.000000	60.015084
3922.000000	60.073742
3921.000000	60.133156
3920.000000	60.192501
3919.000000	60.251874
3918.000000	60.310818
3917.000000	60.366984
3916.000000	60.418847
3915.000000	60.468234
3914.000000	60.518850
3913.000000	60.572814
3912.000000	60.629417
3911.000000	60.687976
3910.000000	60.748425
3909.000000	60.811638
3908.000000	60.879089
3907.000000	60.950288
3906.000000	61.022022
3905.000000	61.088796
3904.000000	61.148011
3903.000000	61.203552
3902.000000	61.260756
3901.000000	61.320135
3900.000000	61.376467
3899.000000	61.424663
3898.000000	61.466317
3897.000000	61.507852
3896.000000	61.554630
3895.000000	61.610128
3894.000000	61.675197
3893.000000	61.747643
3892.000000	61.820024
3891.000000	61.883887
3890.000000	61.939000
3889.000000	61.994009
3888.000000	62.057110
3887.000000	62.126175
3886.000000	62.189438
3885.000000	62.240052
3884.000000	62.284833
3883.000000	62.334984
3882.000000	62.393349
3881.000000	62.453147
3880.000000	62.506712
3879.000000	62.554694
3878.000000	62.605237
3877.000000	62.664856
3876.000000	62.731758
3875.000000	62.797328
3874.000000	62.855684
3873.000000	62.911534
3872.000000	62.974063
3871.000000	63.042546
3870.000000	63.105157
3869.000000	63.156346
3868.000000	63.203759
3867.000000	63.256227
3866.000000	63.313096
3865.000000	63.368489
3864.000000	63.422354
3863.000000	63.479618
3862.000000	63.539939
3861.000000	63.599876
3860.000000	63.658150
3859.000000	63.717541
3858.000000	63.783384
3857.000000	63.859439
3856.000000	63.944429
3855.000000	64.027770
3854.000000	64.100297
3853.000000	64.165496
3852.000000	64.225100
3851.000000	64.274111
3850.000000	64.311620
3849.000000	64.343471
3848.000000	64.377614
3847.000000	64.421437
3846.000000	64.477046
3845.000000	64.540961
3844.000000	64.607652
3843.000000	64.672977
3842.000000	64.737137
3841.000000	64.804538
3840.000000	64.875684
3839.000000	64.947336
3838.000000	65.017466
3837.000000	65.083853
3836.000000	65.144005
3835.000000	65.197602
3834.000000	65.248053
3833.000000	65.299097
3832.000000	65.350976
3831.000000	65.403770
3830.000000	65.459974
3829.000000	65.521214
3828.000000	65.585022
3827.000000	65.646256
3826.000000	65.701991
3825.000000	65.757579
3824.000000	65.821528
3823.000000	65.895784
3822.000000	65.972703
3821.000000	66.042165
3820.000000	66.104261
3819.000000	66.168229
3818.000000	66.239265
3817.000000	66.310579
3816.000000	66.372109
3815.000000	66.425586
3814.000000	66.481119
3813.000000	66.539669
3812.000000	66.593510
3811.000000	66.641068
3810.000000	66.690369
3809.000000	66.748682
3808.000000	66.813627
3807.000000	66.876773
3806.000000	66.935993
3805.000000	66.998775
3804.000000	67.070357
3803.000000	67.148169
3802.000000	67.221946
3801.000000	67.286275
3800.000000	67.348628
3799.000000	67.415570
3798.000000	67.483644
3797.000000	67.544845
3796.000000	67.597331
3795.000000	67.647637
3794.000000	67.702415
3793.000000	67.760461
3792.000000	67.816946
3791.000000	67.871443
3790.000000	67.927056
3789.000000	67.985542
3788.000000	68.047208
3787.000000	68.112871
3786.000000	68.182924
3785.000000	68.255112
3784.000000	68.326507
3783.000000	68.397934
3782.000000	68.471456
3781.000000	68.545010
3780.000000	68.613011
3779.000000	68.673188
3778.000000	68.728766
3777.000000	68.784005
3776.000000	68.839526
3775.000000	68.894369
3774.000000	68.950597
3773.000000	69.012946
3772.000000	69.083807
3771.000000	69.160160
3770.000000	69.236898
3769.000000	69.312265
3768.000000	69.387227
3767.000000	69.461208
3766.000000	69.530508
3765.000000	69.591332
3764.000000	69.646512
3763.000000	69.704155
3762.000000	69.767314
3761.000000	69.831406
3760.000000	69.892405
3759.000000	69.954736
3758.000000	70.023196
3757.000000	70.096107
3756.000000	70.171442
3755.000000	70.249457
3754.000000	70.329567
3753.000000	70.408462
3752.000000	70.486132
3751.000000	70.568719
3750.000000	70.654728
3749.000000	70.733477
3748.000000	70.803400
3747.000000	70.873486
3746.000000	70.945497
3745.000000	71.007144
3744.000000	71.055428
3743.000000	71.107921
3742.000000	71.174876
3741.000000	71.247941
3740.000000	71.316628
3739.000000	71.382392
3738.000000	71.452656
3737.000000	71.527087
3736.000000	71.600724
3735.000000	71.672145
3734.000000	71.743842
3733.000000	71.813885
3732.000000	71.875849
3731.000000	71.929757
3730.000000	71.982579
3729.000000	72.040229
3728.000000	72.102994
3727.000000	72.166948
3726.000000	72.231919
3725.000000	72.302233
3724.000000	72.379766
3723.000000	72.460431
3722.000000	72.539213
3721.000000	72.615368
3720.000000	72.689183
3719.000000	72.761271
3718.000000	72.831086
3717.000000	72.898095
3716.000000	72.964377
3715.000000	73.030625
3714.000000	73.094589
3713.000000	73.155254
3712.000000	73.218727
3711.000000	73.293302
3710.000000	73.377666
3709.000000	73.461894
3708.000000	73.537690
3707.000000	73.604023
3706.000000	73.665627
3705.000000	73.727013
3704.000000	73.788693
3703.000000	73.848891
3702.000000	73.907358
3701.000000	73.966633
3700.000000	74.028903
3699.000000	74.094694
3698.000000	74.161853
3697.000000	74.226368
3696.000000	74.287911
3695.000000	74.351402
3694.000000	74.420739
3693.000000	74.495558
3692.000000	74.574167
3691.000000	74.655699
3690.000000	74.737821
3689.000000	74.814481
3688.000000	74.879762
3687.000000	74.933016
3686.000000	74.978226
3685.000000	75.017859
3684.000000	75.051994
3683.000000	75.084308
3682.000000	75.121669
3681.000000	75.166527
3680.000000	75.216572
3679.000000	75.269659
3678.000000	75.325909
3677.000000	75.380993
3676.000000	75.428598
3675.000000	75.474121
3674.000000	75.526578
3673.000000	75.583498
3672.000000	75.630913
3671.000000	75.655500
3670.000000	75.660657
3669.000000	75.666007
3668.000000	75.684221
3667.000000	75.709397
3666.000000	75.729787
3665.000000	75.741055
3664.000000	75.747177
3663.000000	75.755567
3662.000000	75.769734
3661.000000	75.786625
3660.000000	75.801707
3659.000000	75.809039
3658.000000	75.801706
3657.000000	75.777330
3656.000000	75.747293
3655.000000	75.731591
3654.000000	75.738290
3653.000000	75.754741
3652.000000	75.756470
3651.000000	75.724211
3650.000000	75.660820
3649.000000	75.589594
3648.000000	75.530592
3647.000000	75.486138
3646.000000	75.448093
3645.000000	75.408877
3644.000000	75.364273
3643.000000	75.312903
3642.000000	75.254608
3641.000000	75.191159
3640.000000	75.126388
3639.000000	75.062870
3638.000000	75.000521
3637.000000	74.937213
3636.000000	74.871271
3635.000000	74.803018
3634.000000	74.736294
3633.000000	74.677223
3632.000000	74.624402
3631.000000	74.560089
3630.000000	74.461290
3629.000000	74.333619
3628.000000	74.216185
3627.000000	74.135237
3626.000000	74.078988
3625.000000	74.022935
3624.000000	73.956105
3623.000000	73.881172
3622.000000	73.799454
3621.000000	73.702825
3620.000000	73.585681
3619.000000	73.460509
3618.000000	73.348946
3617.000000	73.259571
3616.000000	73.183314
3615.000000	73.103951
3614.000000	73.010743
3613.000000	72.906355
3612.000000	72.801631
3611.000000	72.700930
3610.000000	72.597346
3609.000000	72.484058
3608.000000	72.365590
3607.000000	72.253471
3606.000000	72.151946
3605.000000	72.054259
3604.000000	71.951373
3603.000000	71.838725
3602.000000	71.717360
3601.000000	71.592551
3600.000000	71.471682
3599.000000	71.359459
3598.000000	71.254057
3597.000000	71.149141
3596.000000	71.041446
3595.000000	70.932423
3594.000000	70.825947
3593.000000	70.726267
3592.000000	70.634570
3591.000000	70.545572
3590.000000	70.447839
3589.000000	70.331948
3588.000000	70.202372
3587.000000	70.076114
3586.000000	69.965459
3585.000000	69.868503
3584.000000	69.775740
3583.000000	69.678568
3582.000000	69.571978
3581.000000	69.454877
3580.000000	69.330498
3579.000000	69.203854
3578.000000	69.077701
3577.000000	68.951825
3576.000000	68.825624
3575.000000	68.700036
3574.000000	68.576850
3573.000000	68.458767
3572.000000	68.348154
3571.000000	68.242305
3570.000000	68.130439
3569.000000	67.999718
3568.000000	67.848855
3567.000000	67.693995
3566.000000	67.554870
3565.000000	67.437878
3564.000000	67.335255
3563.000000	67.233598
3562.000000	67.120823
3561.000000	66.991751
3560.000000	66.850321
3559.000000	66.705349
3558.000000	66.563419
3557.000000	66.426512
3556.000000	66.294132
3555.000000	66.164486
3554.000000	66.034442
3553.000000	65.902058
3552.000000	65.769989
3551.000000	65.642748
3550.000000	65.520337
3549.000000	65.397439
3548.000000	65.268138
3547.000000	65.129826
3546.000000	64.982986
3545.000000	64.830442
3544.000000	64.676613
3543.000000	64.524781
3542.000000	64.375043
3541.000000	64.227115
3540.000000	64.083431
3539.000000	63.946507
3538.000000	63.814573
3537.000000	63.682979
3536.000000	63.550376
3535.000000	63.419284
3534.000000	63.291423
3533.000000	63.165339
3532.000000	63.038537
3531.000000	62.909158
3530.000000	62.775680
3529.000000	62.638775
3528.000000	62.503406
3527.000000	62.375598
3526.000000	62.256293
3525.000000	62.140856
3524.000000	62.024717
3523.000000	61.907385
3522.000000	61.791022
3521.000000	61.677614
3520.000000	61.567648
3519.000000	61.459357
3518.000000	61.349610
3517.000000	61.236577
3516.000000	61.120743
3515.000000	61.002025
3514.000000	60.877950
3513.000000	60.746529
3512.000000	60.609288
3511.000000	60.469877
3510.000000	60.331573
3509.000000	60.197974
3508.000000	60.073519
3507.000000	59.959938
3506.000000	59.853033
3505.000000	59.745424
3504.000000	59.632019
3503.000000	59.511522
3502.000000	59.384562
3501.000000	59.253100
3500.000000	59.120057
3499.000000	58.986265
3498.000000	58.848998
3497.000000	58.706088
3496.000000	58.560225
3495.000000	58.416583
3494.000000	58.277594
3493.000000	58.142726
3492.000000	58.011461
3491.000000	57.883202
3490.000000	57.755669
3489.000000	57.626476
3488.000000	57.495370
3487.000000	57.362488
3486.000000	57.225767
3485.000000	57.082808
3484.000000	56.934521
3483.000000	56.784390
3482.000000	56.634918
3481.000000	56.486851
3480.000000	56.340431
3479.000000	56.195124
3478.000000	56.049154
3477.000000	55.901638
3476.000000	55.754189
3475.000000	55.608672
3474.000000	55.464946
3473.000000	55.322527
3472.000000	55.182362
3471.000000	55.044167
3470.000000	54.903722
3469.000000	54.755736
3468.000000	54.598465
3467.000000	54.433937
3466.000000	54.265405
3465.000000	54.096501
3464.000000	53.931028
3463.000000	53.770742
3462.000000	53.614058
3461.000000	53.458420
3460.000000	53.302472
3459.000000	53.144935
3458.000000	52.983880
3457.000000	52.819158
3456.000000	52.653446
3455.000000	52.488446
3454.000000	52.322532
3453.000000	52.154144
3452.000000	51.985254
3451.000000	51.818527
3450.000000	51.652491
3449.000000	51.482802
3448.000000	51.307608
3447.000000	51.129311
3446.000000	50.951444
3445.000000	50.775679
3444.000000	50.601188
3443.000000	50.425335
3442.000000	50.245998
3441.000000	50.064440
3440.000000	49.884261
3439.000000	49.706374
3438.000000	49.527017
3437.000000	49.341831
3436.000000	49.149892
3435.000000	48.952271
3434.000000	48.749688
3433.000000	48.543706
3432.000000	48.337407
3431.000000	48.132251
3430.000000	47.925716
3429.000000	47.714501
3428.000000	47.498493
3427.000000	47.279525
3426.000000	47.058472
3425.000000	46.835618
3424.000000	46.611544
3423.000000	46.385314
3422.000000	46.153768
3421.000000	45.915206
3420.000000	45.671960
3419.000000	45.427043
3418.000000	45.180627
3417.000000	44.931670
3416.000000	44.680498
3415.000000	44.427214
3414.000000	44.169620
3413.000000	43.905610
3412.000000	43.635618
3411.000000	43.360719
3410.000000	43.080255
3409.000000	42.793364
3408.000000	42.501084
3407.000000	42.204595
3406.000000	41.903524
3405.000000	41.597950
3404.000000	41.289621
3403.000000	40.979017
3402.000000	40.663063
3401.000000	40.337885
3400.000000	40.002301
3399.000000	39.657217
3398.000000	39.304332
3397.000000	38.946811
3396.000000	38.588133
3395.000000	38.228339
3394.000000	37.863267
3393.000000	37.489273
3392.000000	37.106332
3391.000000	36.715310
3390.000000	36.315973
3389.000000	35.908871
3388.000000	35.496214
3387.000000	35.078821
3386.000000	34.654892
3385.000000	34.223855
3384.000000	33.787920
3383.000000	33.348580
3382.000000	32.904648
3381.000000	32.455064
3380.000000	32.000651
3379.000000	31.541290
3378.000000	31.074912
3377.000000	30.601061
3376.000000	30.121958
3375.000000	29.638870
3374.000000	29.150496
3373.000000	28.656491
3372.000000	28.159129
3371.000000	27.659477
3370.000000	27.155753
3369.000000	26.646879
3368.000000	26.134392
3367.000000	25.619629
3366.000000	25.102266
3365.000000	24.583108
3364.000000	24.064499
3363.000000	23.546697
3362.000000	23.027481
3361.000000	22.506455
3360.000000	21.986179
3359.000000	21.467848
3358.000000	20.949684
3357.000000	20.431040
3356.000000	19.914181
3355.000000	19.400680
3354.000000	18.889755
3353.000000	18.381415
3352.000000	17.877682
3351.000000	17.379748
3350.000000	16.887090
3349.000000	16.400217
3348.000000	15.920889
3347.000000	15.448736
3346.000000	14.981597
3345.000000	14.519424
3344.000000	14.064292
3343.000000	13.616646
3342.000000	13.175108
3341.000000	12.740474
3340.000000	12.315593
3339.000000	11.901083
3338.000000	11.495539
3337.000000	11.099540
3336.000000	10.715564
3335.000000	10.343625
3334.000000	9.981136
3333.000000	9.627579
3332.000000	9.284435
3331.000000	8.951312
3330.000000	8.626353
3329.000000	8.310116
3328.000000	8.005267
3327.000000	7.711933
3326.000000	7.428285
3325.000000	7.155231
3324.000000	6.895346
3323.000000	6.648126
3322.000000	6.410270
3321.000000	6.180877
3320.000000	5.961962
3319.000000	5.753498
3318.000000	5.553462
3317.000000	5.361815
3316.000000	5.180155
3315.000000	5.007933
3314.000000	4.842809
3313.000000	4.684802
3312.000000	4.535116
3311.000000	4.391644
3310.000000	4.250966
3309.000000	4.113950
3308.000000	3.985252
3307.000000	3.867340
3306.000000	3.759389
3305.000000	3.661548
3304.000000	3.574457
3303.000000	3.495448
3302.000000	3.419933
3301.000000	3.346401
3300.000000	3.276211
3299.000000	3.208825
3298.000000	3.142230
3297.000000	3.077457
3296.000000	3.017635
3295.000000	2.963205
3294.000000	2.912218
3293.000000	2.864994
3292.000000	2.823927
3291.000000	2.788790
3290.000000	2.756995
3289.000000	2.727576
3288.000000	2.700945
3287.000000	2.675677
3286.000000	2.649795
3285.000000	2.624752
3284.000000	2.603407
3283.000000	2.585100
3282.000000	2.567040
3281.000000	2.549405
3280.000000	2.534606
3279.000000	2.522218
3278.000000	2.509527
3277.000000	2.496409
3276.000000	2.485022
3275.000000	2.475345
3274.000000	2.465450
3273.000000	2.455786
3272.000000	2.448835
3271.000000	2.444993
3270.000000	2.442916
3269.000000	2.443050
3268.000000	2.446597
3267.000000	2.451882
3266.000000	2.455871
3265.000000	2.458497
3264.000000	2.461610
3263.000000	2.464676
3262.000000	2.465848
3261.000000	2.466110
3260.000000	2.468033
3259.000000	2.471308
3258.000000	2.473696
3257.000000	2.475629
3256.000000	2.479625
3255.000000	2.486034
3254.000000	2.493205
3253.000000	2.500822
3252.000000	2.509166
3251.000000	2.516289
3250.000000	2.520114
3249.000000	2.522387
3248.000000	2.526675
3247.000000	2.533512
3246.000000	2.541160
3245.000000	2.549607
3244.000000	2.559743
3243.000000	2.569958
3242.000000	2.577922
3241.000000	2.584606
3240.000000	2.592596
3239.000000	2.601543
3238.000000	2.609100
3237.000000	2.615051
3236.000000	2.620751
3235.000000	2.625992
3234.000000	2.630344
3233.000000	2.636046
3232.000000	2.645437
3231.000000	2.656812
3230.000000	2.666761
3229.000000	2.675144
3228.000000	2.683856
3227.000000	2.692473
3226.000000	2.699301
3225.000000	2.705204
3224.000000	2.712120
3223.000000	2.719120
3222.000000	2.724002
3221.000000	2.727480
3220.000000	2.731843
3219.000000	2.736793
3218.000000	2.740551
3217.000000	2.743582
3216.000000	2.747297
3215.000000	2.750574
3214.000000	2.751507
3213.000000	2.751165
3212.000000	2.751724
3211.000000	2.752432
3210.000000	2.751266
3209.000000	2.748877
3208.000000	2.747061
3207.000000	2.745028
3206.000000	2.741136
3205.000000	2.736625
3204.000000	2.733542
3203.000000	2.730596
3202.000000	2.725111
3201.000000	2.717513
3200.000000	2.710030
3199.000000	2.702531
3198.000000	2.693621
3197.000000	2.684178
3196.000000	2.675794
3195.000000	2.667276
3194.000000	2.656561
3193.000000	2.644519
3192.000000	2.633206
3191.000000	2.622037
3190.000000	2.609495
3189.000000	2.596722
3188.000000	2.585536
3187.000000	2.574716
3186.000000	2.562135
3185.000000	2.548791
3184.000000	2.536799
3183.000000	2.525320
3182.000000	2.512477
3181.000000	2.499403
3180.000000	2.488326
3179.000000	2.478362
3178.000000	2.467194
3177.000000	2.455284
3176.000000	2.444484
3175.000000	2.434230
3174.000000	2.423034
3173.000000	2.412008
3172.000000	2.403007
3171.000000	2.395015
3170.000000	2.386111
3169.000000	2.377166
3168.000000	2.369876
3167.000000	2.363075
3166.000000	2.354968
3165.000000	2.347042
3164.000000	2.341731
3163.000000	2.338036
3162.000000	2.333428
3161.000000	2.328382
3160.000000	2.325094
3159.000000	2.323362
3158.000000	2.321533
3157.000000	2.319787
3156.000000	2.318848
3155.000000	2.317308
3154.000000	2.314076
3153.000000	2.311745
3152.000000	2.313663
3151.000000	2.319364
3150.000000	2.326305
3149.000000	2.334115
3148.000000	2.343490
3147.000000	2.352933
3146.000000	2.360627
3145.000000	2.367776
3144.000000	2.376377
3143.000000	2.385476
3142.000000	2.393201
3141.000000	2.400687
3140.000000	2.410408
3139.000000	2.422394
3138.000000	2.435621
3137.000000	2.450971
3136.000000	2.469214
3135.000000	2.488092
3134.000000	2.505055
3133.000000	2.521157
3132.000000	2.538712
3131.000000	2.557277
3130.000000	2.575502
3129.000000	2.594637
3128.000000	2.616421
3127.000000	2.639462
3126.000000	2.661469
3125.000000	2.683068
3124.000000	2.705675
3123.000000	2.727782
3122.000000	2.747348
3121.000000	2.766085
3120.000000	2.787455
3119.000000	2.811977
3118.000000	2.838215
3117.000000	2.866598
3116.000000	2.898479
3115.000000	2.932896
3114.000000	2.967693
3113.000000	3.002457
3112.000000	3.037291
3111.000000	3.070680
3110.000000	3.101881
3109.000000	3.133503
3108.000000	3.168397
3107.000000	3.205650
3106.000000	3.242671
3105.000000	3.279256
3104.000000	3.316445
3103.000000	3.353597
3102.000000	3.389912
3101.000000	3.426967
3100.000000	3.466554
3099.000000	3.507732
3098.000000	3.548993
3097.000000	3.591234
3096.000000	3.635513
3095.000000	3.680091
3094.000000	3.722804
3093.000000	3.764396
3092.000000	3.806648
3091.000000	3.849410
3090.000000	3.892319
3089.000000	3.936921
3088.000000	3.983987
3087.000000	4.031166
3086.000000	4.076521
3085.000000	4.122058
3084.000000	4.170507
3083.000000	4.220966
3082.000000	4.271097
3081.000000	4.321296
3080.000000	4.373391
3079.000000	4.427357
3078.000000	4.482587
3077.000000	4.540242
3076.000000	4.600914
3075.000000	4.662135
3074.000000	4.721382
3073.000000	4.779504
3072.000000	4.838218
3071.000000	4.896551
3070.000000	4.953118
3069.000000	5.009703
3068.000000	5.069098
3067.000000	5.131324
3066.000000	5.195038
3065.000000	5.260634
3064.000000	5.328684
3063.000000	5.397345
3062.000000	5.464613
3061.000000	5.531316
3060.000000	5.598952
3059.000000	5.666544
3058.000000	5.732614
3057.000000	5.798368
3056.000000	5.865890
3055.000000	5.934910
3054.000000	6.004197
3053.000000	6.074256
3052.000000	6.146025
3051.000000	6.218750
3050.000000	6.291634
3049.000000	6.365480
3048.000000	6.440255
3047.000000	6.513441
3046.000000	6.583480
3045.000000	6.652524
3044.000000	6.723265
3043.000000	6.795533
3042.000000	6.868693
3041.000000	6.944486
3040.000000	7.024094
3039.000000	7.104809
3038.000000	7.183003
3037.000000	7.258605
3036.000000	7.333833
3035.000000	7.409531
3034.000000	7.485661
3033.000000	7.563224
3032.000000	7.642655
3031.000000	7.722125
3030.000000	7.800149
3029.000000	7.877893
3028.000000	7.956469
3027.000000	8.034347
3026.000000	8.110225
3025.000000	8.186071
3024.000000	8.264314
3023.000000	8.344115
3022.000000	8.423256
3021.000000	8.501614
3020.000000	8.579965
3019.000000	8.657450
3018.000000	8.733179
3017.000000	8.808405
3016.000000	8.884409
3015.000000	8.960235
3014.000000	9.035205
3013.000000	9.111563
3012.000000	9.191796
3011.000000	9.275269
3010.000000	9.359987
3009.000000	9.445525
3008.000000	9.531563
3007.000000	9.615928
3006.000000	9.697099
3005.000000	9.776849
3004.000000	9.857660
3003.000000	9.939186
3002.000000	10.019779
3001.000000	10.099544
3000.000000	10.179321
2999.000000	10.258425
2998.000000	10.336056
2997.000000	10.413367
2996.000000	10.491779
2995.000000	10.570865
2994.000000	10.650038
2993.000000	10.730590
2992.000000	10.813850
2991.000000	10.899050
2990.000000	10.984895
2989.000000	11.071323
2988.000000	11.157874
2987.000000	11.242576
2986.000000	11.324464
2985.000000	11.405079
2984.000000	11.485590
2983.000000	11.564905
2982.000000	11.642664
2981.000000	11.721457
2980.000000	11.803566
2979.000000	11.887783
2978.000000	11.971825
2977.000000	12.055627
2976.000000	12.140008
2975.000000	12.224495
2974.000000	12.308901
2973.000000	12.394659
2972.000000	12.482136
2971.000000	12.568888
2970.000000	12.653001
2969.000000	12.735870
2968.000000	12.819293
2967.000000	12.902400
2966.000000	12.984028
2965.000000	13.065581
2964.000000	13.148663
2963.000000	13.232277
2962.000000	13.315246
2961.000000	13.398958
2960.000000	13.484811
2959.000000	13.571257
2958.000000	13.656086
2957.000000	13.739286
2956.000000	13.821051
2955.000000	13.899850
2954.000000	13.975526
2953.000000	14.051600
2952.000000	14.131076
2951.000000	14.212103
2950.000000	14.290923
2949.000000	14.366948
2948.000000	14.442041
2947.000000	14.517076
2946.000000	14.592458
2945.000000	14.670176
2944.000000	14.751939
2943.000000	14.836430
2942.000000	14.920933
2941.000000	15.004359
2940.000000	15.086562
2939.000000	15.166657
2938.000000	15.244506
2937.000000	15.321990
2936.000000	15.400332
2935.000000	15.477951
2934.000000	15.553323
2933.000000	15.627907
2932.000000	15.703813
2931.000000	15.780742
2930.000000	15.857788
2929.000000	15.936025
2928.000000	16.016454
2927.000000	16.097436
2926.000000	16.176952
2925.000000	16.255375
2924.000000	16.333522
2923.000000	16.410173
2922.000000	16.484266
2921.000000	16.557304
2920.000000	16.630909
2919.000000	16.704179
2918.000000	16.775977
2917.000000	16.847592
2916.000000	16.920433
2915.000000	16.993174
2914.000000	17.063866
2913.000000	17.133074
2912.000000	17.202478
2911.000000	17.272053
2910.000000	17.340949
2909.000000	17.409516
2908.000000	17.478273
2907.000000	17.546414
2906.000000	17.613272
2905.000000	17.679734
2904.000000	17.746306
2903.000000	17.811796
2902.000000	17.875611
2901.000000	17.939479
2900.000000	18.005232
2899.000000	18.072418
2898.000000	18.140038
2897.000000	18.208387
2896.000000	18.277298
2895.000000	18.344701
2894.000000	18.409129
2893.000000	18.471828
2892.000000	18.534339
2891.000000	18.595931
2890.000000	18.655417
2889.000000	18.713549
2888.000000	18.771425
2887.000000	18.828373
2886.000000	18.883567
2885.000000	18.938082
2884.000000	18.993221
2883.000000	19.048410
2882.000000	19.102695
2881.000000	19.156691
2880.000000	19.211044
2879.000000	19.264625
2878.000000	19.316286
2877.000000	19.366806
2876.000000	19.417121
2875.000000	19.466168
2874.000000	19.512535
2873.000000	19.556864
2872.000000	19.600867
2871.000000	19.645473
2870.000000	19.691656
2869.000000	19.741319
2868.000000	19.795405
2867.000000	19.852709
2866.000000	19.912311
2865.000000	19.975407
2864.000000	20.043004
2863.000000	20.113632
2862.000000	20.185209
2861.000000	20.257394
2860.000000	20.330319
2859.000000	20.402951
2858.000000	20.474694
2857.000000	20.546820
2856.000000	20.620440
2855.000000	20.694848
2854.000000	20.769523
2853.000000	20.845698
2852.000000	20.924052
2851.000000	21.002892
2850.000000	21.080554
2849.000000	21.157645
2848.000000	21.235013
2847.000000	21.311402
2846.000000	21.385153
2845.000000	21.456505
2844.000000	21.526381
2843.000000	21.594570
2842.000000	21.660890
2841.000000	21.726431
2840.000000	21.791904
2839.000000	21.856423
2838.000000	21.919584
2837.000000	21.983061
2836.000000	22.048423
2835.000000	22.115026
2834.000000	22.181608
2833.000000	22.248190
2832.000000	22.314748
2831.000000	22.379911
2830.000000	22.442863
2829.000000	22.504804
2828.000000	22.566668
2827.000000	22.627105
2826.000000	22.684654
2825.000000	22.740233
2824.000000	22.795598
2823.000000	22.850950
2822.000000	22.906052
2821.000000	22.962105
2820.000000	23.020324
2819.000000	23.079971
2818.000000	23.139739
2817.000000	23.199775
2816.000000	23.260456
2815.000000	23.320523
2814.000000	23.378428
2813.000000	23.434373
2812.000000	23.489287
2811.000000	23.543005
2810.000000	23.595210
2809.000000	23.646945
2808.000000	23.699387
2807.000000	23.752276
2806.000000	23.805216
2805.000000	23.859266
2804.000000	23.915465
2803.000000	23.972924
2802.000000	24.030047
2801.000000	24.086545
2800.000000	24.142775
2799.000000	24.198311
2798.000000	24.252727
2797.000000	24.306589
2796.000000	24.360128
2795.000000	24.412139
2794.000000	24.461731
2793.000000	24.509959
2792.000000	24.558365
2791.000000	24.607245
2790.000000	24.656775
2789.000000	24.708211
2788.000000	24.762174
2787.000000	24.817050
2786.000000	24.870772
2785.000000	24.923038
2784.000000	24.974324
2783.000000	25.024084
2782.000000	25.071654
2781.000000	25.117685
2780.000000	25.162972
2779.000000	25.207051
2778.000000	25.249528
2777.000000	25.291593
2776.000000	25.334621
2775.000000	25.378435
2774.000000	25.422417
2773.000000	25.467127
2772.000000	25.513191
2771.000000	25.559747
2770.000000	25.605494
2769.000000	25.650176
2768.000000	25.693694
2767.000000	25.735166
2766.000000	25.774447
2765.000000	25.813251
2764.000000	25.853138
2763.000000	25.893545
2762.000000	25.933371
2761.000000	25.973223
2760.000000	26.014395
2759.000000	26.056786
2758.000000	26.099478
2757.000000	26.142304
2756.000000	26.185276
2755.000000	26.227456
2754.000000	26.267918
2753.000000	26.306878
2752.000000	26.344591
2751.000000	26.380371
2750.000000	26.414112
2749.000000	26.447492
2748.000000	26.482156
2747.000000	26.517836
2746.000000	26.553695
2745.000000	26.590246
2744.000000	26.628390
2743.000000	26.667759
2742.000000	26.707503
2741.000000	26.747515
2740.000000	26.787387
2739.000000	26.825522
2738.000000	26.860941
2737.000000	26.894804
2736.000000	26.928572
2735.000000	26.961866
2734.000000	26.993742
2733.000000	27.024903
2732.000000	27.056890
2731.000000	27.090109
2730.000000	27.124299
2729.000000	27.159877
2728.000000	27.197130
2727.000000	27.235007
2726.000000	27.272319
2725.000000	27.309229
2724.000000	27.346150
2723.000000	27.382197
2722.000000	27.416277
2721.000000	27.448713
2720.000000	27.480329
2719.000000	27.510930
2718.000000	27.540199
2717.000000	27.569089
2716.000000	27.598753
2715.000000	27.629077
2714.000000	27.659664
2713.000000	27.691220
2712.000000	27.724439
2711.000000	27.758508
2710.000000	27.792196
2709.000000	27.825414
2708.000000	27.858238
2707.000000	27.889455
2706.000000	27.917735
2705.000000	27.943443
2704.000000	27.967791
2703.000000	27.991080
2702.000000	28.013239
2701.000000	28.035135
2700.000000	28.057852
2699.000000	28.081371
2698.000000	28.105255
2697.000000	28.129775
2696.000000	28.155087
2695.000000	28.180298
2694.000000	28.204615
2693.000000	28.228432
2692.000000	28.252015
2691.000000	28.274194
2690.000000	28.293765
2689.000000	28.311123
2688.000000	28.327139
2687.000000	28.341636
2686.000000	28.354414
2685.000000	28.366693
2684.000000	28.379942
2683.000000	28.394153
2682.000000	28.408757
2681.000000	28.424182
2680.000000	28.440935
2679.000000	28.458094
2678.000000	28.474312
2677.000000	28.489561
2676.000000	28.504462
2675.000000	28.518799
2674.000000	28.532120
2673.000000	28.545019
2672.000000	28.558442
2671.000000	28.572635
2670.000000	28.588083
2669.000000	28.606495
2668.000000	28.629509
2667.000000	28.657135
2666.000000	28.688884
2665.000000	28.725372
2664.000000	28.767227
2663.000000	28.813529
2662.000000	28.862587
2661.000000	28.913615
2660.000000	28.966388
2659.000000	29.019982
2658.000000	29.073407
2657.000000	29.126683
2656.000000	29.180149
2655.000000	29.233598
2654.000000	29.287130
2653.000000	29.341962
2652.000000	29.399051
2651.000000	29.457748
2650.000000	29.517005
2649.000000	29.576944
2648.000000	29.638089
2647.000000	29.699926
2646.000000	29.761419
2645.000000	29.822107
2644.000000	29.881544
2643.000000	29.938663
2642.000000	29.992966
2641.000000	30.045484
2640.000000	30.097273
2639.000000	30.147889
2638.000000	30.196488
2637.000000	30.243506
2636.000000	30.290035
2635.000000	30.336332
2634.000000	30.382240
2633.000000	30.428149
2632.000000	30.474258
2631.000000	30.519728
2630.000000	30.563734
2629.000000	30.606548
2628.000000	30.648415
2627.000000	30.688359
2626.000000	30.725488
2625.000000	30.760458
2624.000000	30.794386
2623.000000	30.827207
2622.000000	30.858517
2621.000000	30.889242
2620.000000	30.920818
2619.000000	30.953393
2618.000000	30.986225
2617.000000	31.019224
2616.000000	31.052801
2615.000000	31.086730
2614.000000	31.120440
2613.000000	31.153903
2612.000000	31.187110
2611.000000	31.219323
2610.000000	31.249862
2609.000000	31.278937
2608.000000	31.306671
2607.000000	31.332138
2606.000000	31.354630
2605.000000	31.374891
2604.000000	31.393922
2603.000000	31.411469
2602.000000	31.426900
2601.000000	31.440827
2600.000000	31.454410
2599.000000	31.467811
2598.000000	31.480716
2597.000000	31.493611
2596.000000	31.507294
2595.000000	31.521949
2594.000000	31.538008
2593.000000	31.557111
2592.000000	31.580913
2591.000000	31.609540
2590.000000	31.642621
2589.000000	31.681042
2588.000000	31.726007
2587.000000	31.777470
2586.000000	31.834624
2585.000000	31.897383
2584.000000	31.965998
2583.000000	32.039453
2582.000000	32.116130
2581.000000	32.195287
2580.000000	32.276632
2579.000000	32.359080
2578.000000	32.441129
2577.000000	32.522488
2576.000000	32.603927
2575.000000	32.685890
2574.000000	32.768486
2573.000000	32.852435
2572.000000	32.938975
2571.000000	33.028846
2570.000000	33.122184
2569.000000	33.219141
2568.000000	33.319484
2567.000000	33.422068
2566.000000	33.525517
2565.000000	33.629056
2564.000000	33.732112
2563.000000	33.833669
2562.000000	33.933021
2561.000000	34.030570
2560.000000	34.126837
2559.000000	34.221187
2558.000000	34.312734
2557.000000	34.401902
2556.000000	34.489953
2555.000000	34.577342
2554.000000	34.663553
2553.000000	34.748347
2552.000000	34.831904
2551.000000	34.913900
2550.000000	34.993701
2549.000000	35.071247
2548.000000	35.146891
2547.000000	35.220438
2546.000000	35.291252
2545.000000	35.359330
2544.000000	35.425091
2543.000000	35.488457
2542.000000	35.549069
2541.000000	35.607162
2540.000000	35.663421
2539.000000	35.717769
2538.000000	35.769363
2537.000000	35.817558
2536.000000	35.861825
2535.000000	35.901226
2534.000000	35.934621
2533.000000	35.961480
2532.000000	35.981629
2531.000000	35.994184
2530.000000	35.998361
2529.000000	35.994743
2528.000000	35.985066
2527.000000	35.971018
2526.000000	35.953976
2525.000000	35.936016
2524.000000	35.919607
2523.000000	35.906487
2522.000000	35.897859
2521.000000	35.895522
2520.000000	35.901407
2519.000000	35.916171
2518.000000	35.939289
2517.000000	35.970140
2516.000000	36.008495
2515.000000	36.053627
2514.000000	36.104456
2513.000000	36.160508
2512.000000	36.221343
2511.000000	36.285769
2510.000000	36.352238
2509.000000	36.420117
2508.000000	36.489542
2507.000000	36.559961
2506.000000	36.630188
2505.000000	36.699580
2504.000000	36.767987
2503.000000	36.834457
2502.000000	36.897291
2501.000000	36.955600
2500.000000	37.009924
2499.000000	37.061158
2498.000000	37.109652
2497.000000	37.155718
2496.000000	37.199768
2495.000000	37.241868
2494.000000	37.282064
2493.000000	37.321205
2492.000000	37.360702
2491.000000	37.401092
2490.000000	37.441621
2489.000000	37.481303
2488.000000	37.519418
2487.000000	37.555145
2486.000000	37.587608
2485.000000	37.616590
2484.000000	37.642509
2483.000000	37.665578
2482.000000	37.686018
2481.000000	37.704928
2480.000000	37.723979
2479.000000	37.744182
2478.000000	37.765711
2477.000000	37.788907
2476.000000	37.814352
2475.000000	37.841924
2474.000000	37.870712
2473.000000	37.899857
2472.000000	37.928488
2471.000000	37.955048
2470.000000	37.977922
2469.000000	37.996942
2468.000000	38.013152
2467.000000	38.027223
2466.000000	38.039295
2465.000000	38.050397
2464.000000	38.062679
2463.000000	38.077783
2462.000000	38.096146
2461.000000	38.117993
2460.000000	38.143829
2459.000000	38.173367
2458.000000	38.205086
2457.000000	38.237159
2456.000000	38.268015
2455.000000	38.296003
2454.000000	38.319669
2453.000000	38.338820
2452.000000	38.354456
2451.000000	38.367579
2450.000000	38.379027
2449.000000	38.390629
2448.000000	38.405090
2447.000000	38.424338
2446.000000	38.448850
2445.000000	38.478727
2444.000000	38.513919
2443.000000	38.553071
2442.000000	38.593379
2441.000000	38.632227
2440.000000	38.668287
2439.000000	38.700699
2438.000000	38.728491
2437.000000	38.751340
2436.000000	38.770134
2435.000000	38.786143
2434.000000	38.800607
2433.000000	38.815330
2432.000000	38.832580
2431.000000	38.853868
2430.000000	38.879696
2429.000000	38.910744
2428.000000	38.948162
2427.000000	38.992184
2426.000000	39.041039
2425.000000	39.091855
2424.000000	39.141670
2423.000000	39.187605
2422.000000	39.227394
2421.000000	39.260623
2420.000000	39.288851
2419.000000	39.314106
2418.000000	39.338074
2417.000000	39.362882
2416.000000	39.391357
2415.000000	39.425551
2414.000000	39.465750
2413.000000	39.511269
2412.000000	39.561412
2411.000000	39.614888
2410.000000	39.669371
2409.000000	39.722367
2408.000000	39.772161
2407.000000	39.817669
2406.000000	39.858222
2405.000000	39.894043
2404.000000	39.926288
2403.000000	39.956375
2402.000000	39.985912
2401.000000	40.017433
2400.000000	40.053826
2399.000000	40.096570
2398.000000	40.145305
2397.000000	40.199525
2396.000000	40.259224
2395.000000	40.323323
2394.000000	40.388831
2393.000000	40.452458
2392.000000	40.512439
2391.000000	40.568101
2390.000000	40.618940
2389.000000	40.665056
2388.000000	40.707810
2387.000000	40.748904
2386.000000	40.789634
2385.000000	40.831733
2384.000000	40.877884
2383.000000	40.930366
2382.000000	40.989669
2381.000000	41.055245
2380.000000	41.126893
2379.000000	41.204397
2378.000000	41.286266
2377.000000	41.370205
2376.000000	41.454063
2375.000000	41.535548
2374.000000	41.612063
2373.000000	41.681591
2372.000000	41.744651
2371.000000	41.803457
2370.000000	41.859998
2369.000000	41.916219
2368.000000	41.975997
2367.000000	42.042934
2366.000000	42.116761
2365.000000	42.195811
2364.000000	42.281409
2363.000000	42.372190
2362.000000	42.464468
2361.000000	42.556347
2360.000000	42.645251
2359.000000	42.731291
2358.000000	42.812598
2357.000000	42.887103
2356.000000	42.958606
2355.000000	43.026472
2354.000000	43.091102
2353.000000	43.156077
2352.000000	43.235323
2351.000000	43.334261
2350.000000	43.434025
2349.000000	43.515933
2348.000000	43.575252
2347.000000	43.629732
2346.000000	43.702095
2345.000000	43.796684
2344.000000	43.903476
2343.000000	43.999241
2342.000000	44.080742
2341.000000	44.152345
2340.000000	44.220182
2339.000000	44.288492
2338.000000	44.357452
2337.000000	44.430638
2336.000000	44.509416
2335.000000	44.596410
2334.000000	44.686137
2333.000000	44.776834
2332.000000	44.865736
2331.000000	44.959248
2330.000000	45.049605
2329.000000	45.140055
2328.000000	45.223767
2327.000000	45.303900
2326.000000	45.376828
2325.000000	45.443668
2324.000000	45.511036
2323.000000	45.582507
2322.000000	45.660753
2321.000000	45.743467
2320.000000	45.830229
2319.000000	45.921733
2318.000000	46.013049
2317.000000	46.102488
2316.000000	46.184715
2315.000000	46.263466
2314.000000	46.335384
2313.000000	46.404933
2312.000000	46.470397
2311.000000	46.537597
2310.000000	46.603861
2309.000000	46.672476
2308.000000	46.742638
2307.000000	46.818623
2306.000000	46.898045
2305.000000	46.981145
2304.000000	47.065853
2303.000000	47.153673
2302.000000	47.241061
2301.000000	47.327134
2300.000000	47.409310
2299.000000	47.489161
2298.000000	47.564104
2297.000000	47.634573
2296.000000	47.700581
2295.000000	47.765577
2294.000000	47.829878
2293.000000	47.894568
2292.000000	47.961264
2291.000000	48.032182
2290.000000	48.106739
2289.000000	48.182935
2288.000000	48.260549
2287.000000	48.339822
2286.000000	48.419264
2285.000000	48.495419
2284.000000	48.566712
2283.000000	48.632806
2282.000000	48.693485
2281.000000	48.748553
2280.000000	48.800102
2279.000000	48.850887
2278.000000	48.902058
2277.000000	48.954037
2276.000000	49.008604
2275.000000	49.067985
2274.000000	49.131498
2273.000000	49.197029
2272.000000	49.263702
2271.000000	49.331561
2270.000000	49.398508
2269.000000	49.461169
2268.000000	49.517999
2267.000000	49.569133
2266.000000	49.613805
2265.000000	49.651297
2264.000000	49.683559
2263.000000	49.714401
2262.000000	49.746112
2261.000000	49.779198
2260.000000	49.815152
2259.000000	49.855697
2258.000000	49.900889
2257.000000	49.949368
2256.000000	50.000459
2255.000000	50.052924
2254.000000	50.102611
2253.000000	50.144810
2252.000000	50.177695
2251.000000	50.202010
2250.000000	50.217364
2249.000000	50.224204
2248.000000	50.224861
2247.000000	50.223616
2246.000000	50.222868
2245.000000	50.223671
2244.000000	50.228498
2243.000000	50.240185
2242.000000	50.258611
2241.000000	50.281081
2240.000000	50.305287
2239.000000	50.328915
2238.000000	50.347671
2237.000000	50.356950
2236.000000	50.355360
2235.000000	50.343830
2234.000000	50.322490
2233.000000	50.291707
2232.000000	50.255082
2231.000000	50.218221
2230.000000	50.184790
2229.000000	50.156763
2228.000000	50.136885
2227.000000	50.127522
2226.000000	50.127431
2225.000000	50.132775
2224.000000	50.140591
2223.000000	50.148491
2222.000000	50.152155
2221.000000	50.146757
2220.000000	50.130693
2219.000000	50.105106
2218.000000	50.071016
2217.000000	50.029997
2216.000000	49.986792
2215.000000	49.947466
2214.000000	49.915490
2213.000000	49.892149
2212.000000	49.879542
2211.000000	49.879653
2210.000000	49.890960
2209.000000	49.909199
2208.000000	49.930686
2207.000000	49.952359
2206.000000	49.969588
2205.000000	49.977899
2204.000000	49.976429
2203.000000	49.967057
2202.000000	49.951126
2201.000000	49.930275
2200.000000	49.909201
2199.000000	49.893865
2198.000000	49.887392
2197.000000	49.890499
2196.000000	49.904811
2195.000000	49.931808
2194.000000	49.969416
2193.000000	50.012832
2192.000000	50.058426
2191.000000	50.103581
2190.000000	50.144036
2189.000000	50.175263
2188.000000	50.196300
2187.000000	50.209067
2186.000000	50.214594
2185.000000	50.213619
2184.000000	50.209857
2183.000000	50.208963
2182.000000	50.214296
2181.000000	50.226969
2180.000000	50.248658
2179.000000	50.280647
2178.000000	50.320554
2177.000000	50.363657
2176.000000	50.406944
2175.000000	50.448549
2174.000000	50.484369
2173.000000	50.509462
2172.000000	50.522790
2171.000000	50.526795
2170.000000	50.523143
2169.000000	50.512695
2168.000000	50.499253
2167.000000	50.488958
2166.000000	50.485955
2165.000000	50.491711
2164.000000	50.507774
2163.000000	50.535341
2162.000000	50.572183
2161.000000	50.613602
2160.000000	50.656150
2159.000000	50.697449
2158.000000	50.733216
2157.000000	50.758783
2156.000000	50.773217
2155.000000	50.778647
2154.000000	50.776355
2153.000000	50.767418
2152.000000	50.756345
2151.000000	50.749770
2150.000000	50.751644
2149.000000	50.762898
2148.000000	50.784902
2147.000000	50.818649
2146.000000	50.861163
2145.000000	50.906539
2144.000000	50.950562
2143.000000	50.990699
2142.000000	51.023016
2141.000000	51.043576
2140.000000	51.052662
2139.000000	51.053704
2138.000000	51.048726
2137.000000	51.039076
2136.000000	51.029610
2135.000000	51.027387
2134.000000	51.035971
2133.000000	51.055106
2132.000000	51.084835
2131.000000	51.125527
2130.000000	51.173972
2129.000000	51.224020
2128.000000	51.271180
2127.000000	51.313027
2126.000000	51.346020
2125.000000	51.366740
2124.000000	51.376336
2123.000000	51.379367
2122.000000	51.378756
2121.000000	51.376148
2120.000000	51.376637
2119.000000	51.387680
2118.000000	51.413131
2117.000000	51.452109
2116.000000	51.503110
2115.000000	51.564564
2114.000000	51.631578
2113.000000	51.697099
2112.000000	51.757122
2111.000000	51.811001
2110.000000	51.857191
2109.000000	51.893748
2108.000000	51.922961
2107.000000	51.950964
2106.000000	51.982339
2105.000000	52.019394
2104.000000	52.065867
2103.000000	52.126325
2102.000000	52.201502
2101.000000	52.288243
2100.000000	52.384094
2099.000000	52.487239
2098.000000	52.592136
2097.000000	52.690582
2096.000000	52.778400
2095.000000	52.856857
2094.000000	52.927848
2093.000000	52.992406
2092.000000	53.053857
2091.000000	53.117106
2090.000000	53.184204
2089.000000	53.254741
2088.000000	53.330392
2087.000000	53.414186
2086.000000	53.505098
2085.000000	53.598265
2084.000000	53.690391
2083.000000	53.780235
2082.000000	53.863818
2081.000000	53.934898
2080.000000	53.991081
2079.000000	54.034547
2078.000000	54.067035
2077.000000	54.089232
2076.000000	54.104687
2075.000000	54.119447
2074.000000	54.136494
2073.000000	54.154853
2072.000000	54.173984
2071.000000	54.195211
2070.000000	54.219626
2069.000000	54.248480
2068.000000	54.284247
2067.000000	54.326303
2066.000000	54.367404
2065.000000	54.399601
2064.000000	54.422150
2063.000000	54.439113
2062.000000	54.451826
2061.000000	54.459904
2060.000000	54.467735
2059.000000	54.482926
2058.000000	54.508827
2057.000000	54.544757
2056.000000	54.591971
2055.000000	54.652898
2054.000000	54.725163
2053.000000	54.802554
2052.000000	54.881532
2051.000000	54.961851
2050.000000	55.040770
2049.000000	55.112895
2048.000000	55.176331
2047.000000	55.234328
2046.000000	55.291392
2045.000000	55.352377
2044.000000	55.424156
2043.000000	55.511956
2042.000000	55.614484
2041.000000	55.727748
2040.000000	55.852030
2039.000000	55.989757
2038.000000	56.138116
2037.000000	56.290100
2036.000000	56.442346
2035.000000	56.594919
2034.000000	56.744468
2033.000000	56.885294
2032.000000	57.016806
2031.000000	57.143370
2030.000000	57.266729
2029.000000	57.386600
2028.000000	57.507369
2027.000000	57.637417
2026.000000	57.779777
2025.000000	57.929652
2024.000000	58.081856
2023.000000	58.235888
2022.000000	58.394018
2021.000000	58.560210
2020.000000	58.739095
2019.000000	58.928413
2018.000000	59.114522
2017.000000	59.282809
2016.000000	59.430442
2015.000000	59.563156
2014.000000	59.683911
2013.000000	59.793545
2012.000000	59.899796
2011.000000	60.014619
2010.000000	60.142186
2009.000000	60.279183
2008.000000	60.424498
2007.000000	60.579609
2006.000000	60.739332
2005.000000	60.893123
2004.000000	61.036557
2003.000000	61.170608
2002.000000	61.293255
2001.000000	61.398692
2000.000000	61.483298
1999.000000	61.545299
1998.000000	61.584069
1997.000000	61.609244
1996.000000	61.645136
1995.000000	61.712495
1994.000000	61.807963
1993.000000	61.915911
1992.000000	62.034927
1991.000000	62.172688
1990.000000	62.321742
1989.000000	62.461394
1988.000000	62.580965
1987.000000	62.684351
1986.000000	62.773126
1985.000000	62.842294
1984.000000	62.894370
1983.000000	62.939490
1982.000000	62.982716
1981.000000	63.023140
1980.000000	63.065851
1979.000000	63.120364
1978.000000	63.187658
1977.000000	63.261320
1976.000000	63.339561
1975.000000	63.421849
1974.000000	63.496298
1973.000000	63.547699
1972.000000	63.579418
1971.000000	63.612873
1970.000000	63.662277
1969.000000	63.721314
1968.000000	63.778152
1967.000000	63.830699
1966.000000	63.879590
1965.000000	63.922318
1964.000000	63.961773
1963.000000	64.006008
1962.000000	64.055827
1961.000000	64.104730
1960.000000	64.152909
1959.000000	64.208118
1958.000000	64.270962
1957.000000	64.332701
1956.000000	64.388794
1955.000000	64.442692
1954.000000	64.491248
1953.000000	64.524017
1952.000000	64.540172
1951.000000	64.548619
1950.000000	64.548630
1949.000000	64.529396
1948.000000	64.494901
1947.000000	64.472299
1946.000000	64.487331
1945.000000	64.540465
1944.000000	64.611653
1943.000000	64.686171
1942.000000	64.762217
1941.000000	64.835947
1940.000000	64.900054
1939.000000	64.950746
1938.000000	64.986024
1937.000000	65.005850
1936.000000	65.016745
1935.000000	65.028800
1934.000000	65.041625
1933.000000	65.047436
1932.000000	65.047559
1931.000000	65.048467
1930.000000	65.043983
1929.000000	65.015809
1928.000000	64.967509
1927.000000	64.930808
1926.000000	64.928901
1925.000000	64.948556
1924.000000	64.966297
1923.000000	64.988942
1922.000000	65.037094
1921.000000	65.102793
1920.000000	65.152997
1919.000000	65.166871
1918.000000	65.156517
1917.000000	65.141361
1916.000000	65.122760
1915.000000	65.093826
1914.000000	65.055645
1913.000000	65.021883
1912.000000	65.009855
1911.000000	65.024791
1910.000000	65.056842
1909.000000	65.088811
1908.000000	65.113750
1907.000000	65.134152
1906.000000	65.147153
1905.000000	65.146053
1904.000000	65.133383
1903.000000	65.116037
1902.000000	65.091314
1901.000000	65.049432
1900.000000	64.996994
1899.000000	64.959148
1898.000000	64.949265
1897.000000	64.950151
1896.000000	64.938473
1895.000000	64.916913
1894.000000	64.906475
1893.000000	64.921201
1892.000000	64.957554
1891.000000	64.995125
1890.000000	65.016681
1889.000000	65.026576
1888.000000	65.039435
1887.000000	65.060133
1886.000000	65.076734
1885.000000	65.077118
1884.000000	65.067145
1883.000000	65.061381
1882.000000	65.064216
1881.000000	65.068513
1880.000000	65.071273
1879.000000	65.078716
1878.000000	65.087504
1877.000000	65.075273
1876.000000	65.023068
1875.000000	64.937688
1874.000000	64.843926
1873.000000	64.765815
1872.000000	64.721581
1871.000000	64.717543
1870.000000	64.736511
1869.000000	64.760214
1868.000000	64.791304
1867.000000	64.830156
1866.000000	64.857954
1865.000000	64.858923
1864.000000	64.841047
1863.000000	64.822911
1862.000000	64.810451
1861.000000	64.798425
1860.000000	64.785351
1859.000000	64.775146
1858.000000	64.761152
1857.000000	64.744881
1856.000000	64.712382
1855.000000	64.679789
1854.000000	64.649353
1853.000000	64.616405
1852.000000	64.573447
1851.000000	64.540038
1850.000000	64.487869
1849.000000	64.464470
1848.000000	64.144527
1847.000000	64.170817
1846.000000	64.243411
1845.000000	64.213456
1844.000000	64.155447
1843.000000	64.109194
1842.000000	64.089459
1841.000000	64.054834
1840.000000	64.001277
1839.000000	63.949474
1838.000000	63.898983
1837.000000	63.823974
1836.000000	63.721469
1835.000000	63.624666
1834.000000	63.568386
1833.000000	63.552507
1832.000000	63.537949
1831.000000	63.478811
1830.000000	63.383516
1829.000000	63.303679
1828.000000	63.265893
1827.000000	63.246179
1826.000000	63.202000
1825.000000	63.129408
1824.000000	63.060787
1823.000000	63.009890
1822.000000	62.960175
1821.000000	62.900170
1820.000000	62.845335
1819.000000	62.808634
1818.000000	62.769321
1817.000000	62.701104
1816.000000	62.609470
1815.000000	62.523974
1814.000000	62.457342
1813.000000	62.390864
1812.000000	62.308235
1811.000000	62.219209
1810.000000	62.134162
1809.000000	62.042058
1808.000000	61.927576
1807.000000	61.791082
1806.000000	61.646902
1805.000000	61.527124
1804.000000	61.465985
1803.000000	61.466191
1802.000000	61.482668
1801.000000	61.461801
1800.000000	61.389830
1799.000000	61.285785
1798.000000	61.169079
1797.000000	61.060212
1796.000000	60.981832
1795.000000	60.936723
1794.000000	60.893445
1793.000000	60.813659
1792.000000	60.711092
1791.000000	60.633774
1790.000000	60.591229
1789.000000	60.561418
1788.000000	60.533198
1787.000000	60.500224
1786.000000	60.443934
1785.000000	60.369185
1784.000000	60.306345
1783.000000	60.269691
1782.000000	60.227059
1781.000000	60.136094
1780.000000	59.996633
1779.000000	59.828454
1778.000000	59.647215
1777.000000	59.494367
1776.000000	59.430480
1775.000000	59.452775
1774.000000	59.469764
1773.000000	59.406357
1772.000000	59.311523
1771.000000	59.278746
1770.000000	59.298173
1769.000000	59.279482
1768.000000	59.186630
1767.000000	59.074123
1766.000000	58.994392
1765.000000	58.942082
1764.000000	58.866526
1763.000000	58.726591
1762.000000	58.543473
1761.000000	58.388175
1760.000000	58.314970
1759.000000	58.296088
1758.000000	58.237230
1757.000000	58.090674
1756.000000	57.910219
1755.000000	57.766759
1754.000000	57.663767
1753.000000	57.555586
1752.000000	57.433562
1751.000000	57.337049
1750.000000	57.268736
1749.000000	57.179129
1748.000000	57.048427
1747.000000	56.911601
1746.000000	56.795629
1745.000000	56.698675
1744.000000	56.633737
1743.000000	56.619939
1742.000000	56.599372
1741.000000	56.462739
1740.000000	56.197480
1739.000000	55.926432
1738.000000	55.778049
1737.000000	55.744181
1736.000000	55.682662
1735.000000	55.485646
1734.000000	55.227952
1733.000000	55.034788
1732.000000	54.925203
1731.000000	54.837686
1730.000000	54.705511
1729.000000	54.514448
1728.000000	54.298502
1727.000000	54.097382
1726.000000	53.906407
1725.000000	53.678204
1724.000000	53.392048
1723.000000	53.081093
1722.000000	52.785528
1721.000000	52.517639
1720.000000	52.285641
1719.000000	52.079841
1718.000000	51.870471
1717.000000	51.645556
1716.000000	51.408748
1715.000000	51.165770
1714.000000	50.915056
1713.000000	50.648784
1712.000000	50.366486
1711.000000	50.077432
1710.000000	49.797670
1709.000000	49.535111
1708.000000	49.269781
1707.000000	48.945001
1706.000000	48.542507
1705.000000	48.168421
1704.000000	47.977623
1703.000000	47.899078
1702.000000	47.627193
1701.000000	47.037669
1700.000000	46.391347
1699.000000	46.033698
1698.000000	45.941028
1697.000000	45.782245
1696.000000	45.411415
1695.000000	44.976058
1694.000000	44.606343
1693.000000	44.280454
1692.000000	43.928875
1691.000000	43.505509
1690.000000	43.014747
1689.000000	42.534132
1688.000000	42.182349
1687.000000	41.993233
1686.000000	41.814788
1685.000000	41.404230
1684.000000	40.802291
1683.000000	40.286562
1682.000000	39.924283
1681.000000	39.597395
1680.000000	39.258519
1679.000000	38.961777
1678.000000	38.707839
1677.000000	38.379881
1676.000000	37.897606
1675.000000	37.353054
1674.000000	36.893813
1673.000000	36.550815
1672.000000	36.258314
1671.000000	35.923884
1670.000000	35.487414
1669.000000	34.978801
1668.000000	34.493791
1667.000000	34.105267
1666.000000	33.794609
1665.000000	33.478439
1664.000000	33.090212
1663.000000	32.641531
1662.000000	32.193020
1661.000000	31.763051
1660.000000	31.322517
1659.000000	30.854523
1658.000000	30.400665
1657.000000	30.047775
1656.000000	29.866218
1655.000000	29.721491
1654.000000	29.319666
1653.000000	28.681124
1652.000000	28.106375
1651.000000	27.732250
1650.000000	27.502097
1649.000000	27.316550
1648.000000	27.056450
1647.000000	26.687492
1646.000000	26.301888
1645.000000	25.961122
1644.000000	25.657909
1643.000000	25.369559
1642.000000	25.066373
1641.000000	24.733904
1640.000000	24.416257
1639.000000	24.185734
1638.000000	24.040202
1637.000000	23.847546
1636.000000	23.521676
1635.000000	23.163765
1634.000000	22.879677
1633.000000	22.657993
1632.000000	22.461747
1631.000000	22.279279
1630.000000	22.097658
1629.000000	21.895346
1628.000000	21.682188
1627.000000	21.502667
1626.000000	21.370858
1625.000000	21.242081
1624.000000	21.071525
1623.000000	20.876085
1622.000000	20.703246
1621.000000	20.574823
1620.000000	20.498911
1619.000000	20.470340
1618.000000	20.447333
1617.000000	20.389175
1616.000000	20.311419
1615.000000	20.258514
1614.000000	20.236500
1613.000000	20.217883
1612.000000	20.191750
1611.000000	20.176002
1610.000000	20.180590
1609.000000	20.189776
1608.000000	20.193684
1607.000000	20.204950
1606.000000	20.233138
1605.000000	20.269815
1604.000000	20.310126
1603.000000	20.364459
1602.000000	20.435811
1601.000000	20.508816
1600.000000	20.574336
1599.000000	20.642929
1598.000000	20.722730
1597.000000	20.804291
1596.000000	20.878674
1595.000000	20.951747
1594.000000	21.028177
1593.000000	21.099815
1592.000000	21.162910
1591.000000	21.227818
1590.000000	21.301082
1589.000000	21.374401
1588.000000	21.443595
1587.000000	21.517577
1586.000000	21.601265
1585.000000	21.686603
1584.000000	21.763114
1583.000000	21.824442
1582.000000	21.864349
1581.000000	21.885093
1580.000000	21.914832
1579.000000	21.994098
1578.000000	22.113957
1577.000000	22.210294
1576.000000	22.256874
1575.000000	22.287053
1574.000000	22.332705
1573.000000	22.398569
1572.000000	22.476303
1571.000000	22.554785
1570.000000	22.629874
1569.000000	22.707690
1568.000000	22.790474
1567.000000	22.868700
1566.000000	22.918698
1565.000000	22.926590
1564.000000	22.912343
1563.000000	22.937307
1562.000000	23.021483
1561.000000	23.175925
1560.000000	23.315831
1559.000000	23.390353
1558.000000	23.492496
1557.000000	23.623039
1556.000000	23.747894
1555.000000	23.863388
1554.000000	23.982853
1553.000000	24.121592
1552.000000	24.281585
1551.000000	24.458842
1550.000000	24.638068
1549.000000	24.799159
1548.000000	24.925634
1547.000000	25.028748
1546.000000	25.144728
1545.000000	25.296436
1544.000000	25.487053
1543.000000	25.742504
1542.000000	26.104468
1541.000000	26.517417
1540.000000	26.908559
1539.000000	27.271695
1538.000000	27.589068
1537.000000	27.870278
1536.000000	28.159846
1535.000000	28.490337
1534.000000	28.870000
1533.000000	29.269364
1532.000000	29.636116
1531.000000	29.951744
1530.000000	30.244865
1529.000000	30.553319
1528.000000	30.891660
1527.000000	31.250007
1526.000000	31.616689
1525.000000	31.988331
1524.000000	32.391229
1523.000000	32.858971
1522.000000	33.387963
1521.000000	33.938922
1520.000000	34.452229
1519.000000	34.929868
1518.000000	35.419878
1517.000000	35.926007
1516.000000	36.417194
1515.000000	36.857210
1514.000000	37.217463
1513.000000	37.487494
1512.000000	37.682756
1511.000000	37.871621
1510.000000	38.181298
1509.000000	38.785345
1508.000000	39.604271
1507.000000	40.420646
1506.000000	41.182802
1505.000000	41.796788
1504.000000	42.242881
1503.000000	42.629872
1502.000000	43.019639
1501.000000	43.418440
1500.000000	43.832049
1499.000000	44.296306
1498.000000	44.811729
1497.000000	45.313943
1496.000000	45.749119
1495.000000	46.110168
1494.000000	46.405365
1493.000000	46.656219
1492.000000	46.942968
1491.000000	47.368126
1490.000000	47.940636
1489.000000	48.555784
1488.000000	49.117087
1487.000000	49.607828
1486.000000	50.030956
1485.000000	50.377933
1484.000000	50.663377
1483.000000	50.920667
1482.000000	51.147541
1481.000000	51.308090
1480.000000	51.388769
1479.000000	51.408788
1478.000000	51.373069
1477.000000	51.282992
1476.000000	51.193092
1475.000000	51.162686
1474.000000	51.096599
1473.000000	50.770059
1472.000000	50.130125
1471.000000	49.314951
1470.000000	48.371635
1469.000000	47.241478
1468.000000	45.891234
1467.000000	44.266157
1466.000000	42.191462
1465.000000	39.558208
1464.000000	36.621883
1463.000000	33.776249
1462.000000	31.131769
1461.000000	28.614340
1460.000000	26.211557
1459.000000	23.883628
1458.000000	21.395257
1457.000000	18.756090
1456.000000	16.554432
1455.000000	15.147072
1454.000000	14.270169
1453.000000	13.624245
1452.000000	13.160366
1451.000000	12.931411
1450.000000	12.926150
1449.000000	13.108376
1448.000000	13.499130
1447.000000	14.092145
1446.000000	14.800555
1445.000000	15.563544
1444.000000	16.400550
1443.000000	17.320917
1442.000000	18.266992
1441.000000	19.182036
1440.000000	20.076191
1439.000000	21.007306
1438.000000	22.040206
1437.000000	23.222595
1436.000000	24.502754
1435.000000	25.728643
1434.000000	26.836085
1433.000000	27.901089
1432.000000	29.008856
1431.000000	30.159539
1430.000000	31.271284
1429.000000	32.258219
1428.000000	33.080013
1427.000000	33.736718
1426.000000	34.259174
1425.000000	34.680926
1424.000000	35.016387
1423.000000	35.276673
1422.000000	35.490267
1421.000000	35.711244
1420.000000	35.998964
1419.000000	36.381976
1418.000000	36.850926
1417.000000	37.380162
1416.000000	37.952325
1415.000000	38.563442
1414.000000	39.224740
1413.000000	39.958351
1412.000000	40.767167
1411.000000	41.619797
1410.000000	42.475368
1409.000000	43.314523
1408.000000	44.144437
1407.000000	44.981325
1406.000000	45.835349
1405.000000	46.695551
1404.000000	47.516404
1403.000000	48.244276
1402.000000	48.878621
1401.000000	49.475505
1400.000000	50.077071
1399.000000	50.679213
1398.000000	51.277361
1397.000000	51.891227
1396.000000	52.506854
1395.000000	53.055062
1394.000000	53.482441
1393.000000	53.773121
1392.000000	53.911652
1391.000000	53.892071
1390.000000	53.734657
1389.000000	53.430792
1388.000000	52.901080
1387.000000	52.129015
1386.000000	51.322648
1385.000000	50.798011
1384.000000	50.748253
1383.000000	51.173394
1382.000000	51.909337
1381.000000	52.701388
1380.000000	53.321339
1379.000000	53.665906
1378.000000	53.774313
1377.000000	53.756909
1376.000000	53.697459
1375.000000	53.610516
1374.000000	53.483795
1373.000000	53.319687
1372.000000	53.117235
1371.000000	52.868601
1370.000000	52.573976
1369.000000	52.227336
1368.000000	51.809821
1367.000000	51.317729
1366.000000	50.785902
1365.000000	50.267663
1364.000000	49.782654
1363.000000	49.308957
1362.000000	48.840182
1361.000000	48.394592
1360.000000	47.977145
1359.000000	47.595513
1358.000000	47.290912
1357.000000	47.114409
1356.000000	47.084154
1355.000000	47.181915
1354.000000	47.372532
1353.000000	47.603477
1352.000000	47.803631
1351.000000	47.902844
1350.000000	47.848649
1349.000000	47.599657
1348.000000	47.115395
1347.000000	46.368574
1346.000000	45.351944
1345.000000	44.070800
1344.000000	42.549683
1343.000000	40.842223
1342.000000	39.016704
1341.000000	37.115745
1340.000000	35.151861
1339.000000	33.155616
1338.000000	31.174062
1337.000000	29.215909
1336.000000	27.252256
1335.000000	25.271132
1334.000000	23.294998
1333.000000	21.353013
1332.000000	19.473322
1331.000000	17.699976
1330.000000	16.080698
1329.000000	14.631778
1328.000000	13.342852
1327.000000	12.202908
1326.000000	11.196197
1325.000000	10.291313
1324.000000	9.458215
1323.000000	8.692687
1322.000000	8.001677
1321.000000	7.380087
1320.000000	6.828093
1319.000000	6.370248
1318.000000	6.037068
1317.000000	5.836462
1316.000000	5.760455
1315.000000	5.807184
1314.000000	5.969816
1313.000000	6.224089
1312.000000	6.546014
1311.000000	6.928682
1310.000000	7.374180
1309.000000	7.878524
1308.000000	8.440241
1307.000000	9.068915
1306.000000	9.769358
1305.000000	10.531752
1304.000000	11.343225
1303.000000	12.198752
1302.000000	13.092775
1301.000000	14.009489
1300.000000	14.932060
1299.000000	15.851242
1298.000000	16.757669
1297.000000	17.634908
1296.000000	18.469461
1295.000000	19.265632
1294.000000	20.044846
1293.000000	20.834658
1292.000000	21.663207
1291.000000	22.557348
1290.000000	23.537603
1289.000000	24.610763
1288.000000	25.769022
1287.000000	26.996470
1286.000000	28.273177
1285.000000	29.576455
1284.000000	30.881114
1283.000000	32.162331
1282.000000	33.400576
1281.000000	34.581947
1280.000000	35.696266
1279.000000	36.742848
1278.000000	37.738228
1277.000000	38.708026
1276.000000	39.671580
1275.000000	40.638752
1274.000000	41.616900
1273.000000	42.609131
1272.000000	43.603505
1271.000000	44.578680
1270.000000	45.521331
1269.000000	46.428595
1268.000000	47.296679
1267.000000	48.118382
1266.000000	48.894545
1265.000000	49.632520
1264.000000	50.333004
1263.000000	50.995121
1262.000000	51.629942
1261.000000	52.253670
1260.000000	52.867503
1259.000000	53.460141
1258.000000	54.030106
1257.000000	54.585172
1256.000000	55.124160
1255.000000	55.638889
1254.000000	56.131428
1253.000000	56.611782
1252.000000	57.078737
1251.000000	57.522582
1250.000000	57.944291
1249.000000	58.352657
1248.000000	58.746213
1247.000000	59.116289
1246.000000	59.466408
1245.000000	59.808915
1244.000000	60.143285
1243.000000	60.458755
1242.000000	60.755526
1241.000000	61.043425
1240.000000	61.322093
1239.000000	61.582053
1238.000000	61.825064
1237.000000	62.062146
1236.000000	62.293318
1235.000000	62.509961
1234.000000	62.714247
1233.000000	62.916800
1232.000000	63.116411
1231.000000	63.302391
1230.000000	63.475765
1229.000000	63.648052
1228.000000	63.821822
1227.000000	63.992482
1226.000000	64.166245
1225.000000	64.355471
1224.000000	64.558435
1223.000000	64.764267
1222.000000	64.975541
1221.000000	65.205190
1220.000000	65.453237
1219.000000	65.707636
1218.000000	65.965167
1217.000000	66.230443
1216.000000	66.497368
1215.000000	66.753450
1214.000000	67.001076
1213.000000	67.252948
1212.000000	67.508382
1211.000000	67.755748
1210.000000	67.996239
1209.000000	68.242189
1208.000000	68.493548
1207.000000	68.738850
1206.000000	68.977436
1205.000000	69.217990
1204.000000	69.455970
1203.000000	69.676203
1202.000000	69.877325
1201.000000	70.070646
1200.000000	70.257253
1199.000000	70.428851
1198.000000	70.589911
1197.000000	70.756133
1196.000000	70.930932
1195.000000	71.106077
1194.000000	71.282977
1193.000000	71.469660
1192.000000	71.658459
1191.000000	71.829747
1190.000000	71.978022
1189.000000	72.111464
1188.000000	72.227821
1187.000000	72.316517
1186.000000	72.383940
1185.000000	72.452572
1184.000000	72.532094
1183.000000	72.611575
1182.000000	72.681564
1181.000000	72.744800
1180.000000	72.806995
1179.000000	72.876974
1178.000000	72.972370
1177.000000	73.102523
1176.000000	73.247203
1175.000000	73.372109
1174.000000	73.462001
1173.000000	73.520250
1172.000000	73.545280
1171.000000	73.532792
1170.000000	73.497397
1169.000000	73.466447
1168.000000	73.453361
1167.000000	73.458611
1166.000000	73.491305
1165.000000	73.564546
1164.000000	73.671386
1163.000000	73.788753
1162.000000	73.902929
1161.000000	74.009024
1160.000000	74.090197
1159.000000	74.123947
1158.000000	74.107893
1157.000000	74.057788
1156.000000	73.983439
1155.000000	73.890082
1154.000000	73.798541
1153.000000	73.736680
1152.000000	73.712430
1151.000000	73.717344
1150.000000	73.752327
1149.000000	73.824805
1148.000000	73.923931
1147.000000	74.022966
1146.000000	74.105082
1145.000000	74.164455
1144.000000	74.186619
1143.000000	74.153506
1142.000000	74.068095
1141.000000	73.951229
1140.000000	73.816155
1139.000000	73.669843
1138.000000	73.532584
1137.000000	73.430505
1136.000000	73.369847
1135.000000	73.339806
1134.000000	73.336555
1133.000000	73.361790
1132.000000	73.400710
1131.000000	73.425453
1130.000000	73.419796
1129.000000	73.380393
1128.000000	73.297167
1127.000000	73.156977
1126.000000	72.965772
1125.000000	72.742390
1124.000000	72.495272
1123.000000	72.225149
1122.000000	71.945311
1121.000000	71.676535
1120.000000	71.422678
1119.000000	71.173574
1118.000000	70.926636
1117.000000	70.683019
1116.000000	70.427561
1115.000000	70.132812
1114.000000	69.783042
1113.000000	69.373350
1112.000000	68.888689
1111.000000	68.311036
1110.000000	67.638621
1109.000000	66.882114
1108.000000	66.044630
1107.000000	65.120863
1106.000000	64.117962
1105.000000	63.048422
1104.000000	61.911192
1103.000000	60.695603
1102.000000	59.392677
1101.000000	57.992626
1100.000000	56.471658
1099.000000	54.800988
1098.000000	52.965573
1097.000000	50.956704
1096.000000	48.766768
1095.000000	46.395982
1094.000000	43.860805
1093.000000	41.190251
1092.000000	38.414696
1091.000000	35.574563
1090.000000	32.722153
1089.000000	29.910298
1088.000000	27.186345
1087.000000	24.597882
1086.000000	22.185522
1085.000000	19.974221
1084.000000	17.980706
1083.000000	16.211767
1082.000000	14.663888
1081.000000	13.318267
1080.000000	12.153349
1079.000000	11.157251
1078.000000	10.308337
1077.000000	9.577903
1076.000000	8.944449
1075.000000	8.397630
1074.000000	7.928735
1073.000000	7.520667
1072.000000	7.164021
1071.000000	6.860184
1070.000000	6.605528
1069.000000	6.390263
1068.000000	6.210073
1067.000000	6.070353
1066.000000	5.971444
1065.000000	5.904299
1064.000000	5.867110
1063.000000	5.866523
1062.000000	5.903401
1061.000000	5.970490
1060.000000	6.066250
1059.000000	6.198934
1058.000000	6.370479
1057.000000	6.574596
1056.000000	6.812251
1055.000000	7.092584
1054.000000	7.419399
1053.000000	7.786845
1052.000000	8.193960
1051.000000	8.648890
1050.000000	9.152722
1049.000000	9.698102
1048.000000	10.281895
1047.000000	10.908291
1046.000000	11.578420
1045.000000	12.286850
1044.000000	13.034660
1043.000000	13.829544
1042.000000	14.674183
1041.000000	15.565572
1040.000000	16.501930
1039.000000	17.485368
1038.000000	18.513456
1037.000000	19.577817
1036.000000	20.672394
1035.000000	21.792027
1034.000000	22.926611
1033.000000	24.062311
1032.000000	25.190025
1031.000000	26.308578
1030.000000	27.419089
1029.000000	28.521345
1028.000000	29.615315
1027.000000	30.702950
1026.000000	31.786316
1025.000000	32.865987
1024.000000	33.940319
1023.000000	35.005910
1022.000000	36.058679
1021.000000	37.091862
1020.000000	38.096186
1019.000000	39.063246
1018.000000	39.989971
1017.000000	40.878589
1016.000000	41.730728
1015.000000	42.548687
1014.000000	43.339330
1013.000000	44.110863
1012.000000	44.867490
1011.000000	45.610029
1010.000000	46.342272
1009.000000	47.068470
1008.000000	47.785046
1007.000000	48.483811
1006.000000	49.160941
1005.000000	49.816973
1004.000000	50.448610
1003.000000	51.049501
1002.000000	51.620926
1001.000000	52.170744
1000.000000	52.703257
999.000000	53.218285
998.000000	53.718835
997.000000	54.211622
996.000000	54.698454
995.000000	55.177027
994.000000	55.649420
993.000000	56.119448
992.000000	56.583968
991.000000	57.035503
990.000000	57.473197
989.000000	57.901316
988.000000	58.317387
987.000000	58.714497
986.000000	59.092844
985.000000	59.458302
984.000000	59.811116
983.000000	60.146664
982.000000	60.467612
981.000000	60.782709
980.000000	61.095127
979.000000	61.404070
978.000000	61.714766
977.000000	62.034817
976.000000	62.361206
975.000000	62.682984
974.000000	62.996035
973.000000	63.301486
972.000000	63.592811
971.000000	63.857830
970.000000	64.092770
969.000000	64.302619
968.000000	64.488564
967.000000	64.650491
966.000000	64.799778
965.000000	64.954838
964.000000	65.125353
963.000000	65.312170
962.000000	65.519263
961.000000	65.750845
960.000000	65.997532
959.000000	66.240103
958.000000	66.465205
957.000000	66.665380
956.000000	66.827581
955.000000	66.938135
954.000000	67.000296
953.000000	67.031185
952.000000	67.044142
951.000000	67.048325
950.000000	67.060989
949.000000	67.103482
948.000000	67.184561
947.000000	67.300391
946.000000	67.447767
945.000000	67.621717
944.000000	67.802375
943.000000	67.960596
942.000000	68.077710
941.000000	68.147821
940.000000	68.164263
939.000000	68.123082
938.000000	68.037690
937.000000	67.933476
936.000000	67.829272
935.000000	67.736323
934.000000	67.670943
933.000000	67.649905
932.000000	67.673403
931.000000	67.726703
930.000000	67.796229
929.000000	67.869982
928.000000	67.925981
927.000000	67.937836
926.000000	67.893422
925.000000	67.793766
924.000000	67.638779
923.000000	67.430005
922.000000	67.183257
921.000000	66.923282
920.000000	66.665006
919.000000	66.414068
918.000000	66.181009
917.000000	65.977252
916.000000	65.799501
915.000000	65.631604
914.000000	65.460171
913.000000	65.275592
912.000000	65.060324
911.000000	64.793927
910.000000	64.468055
909.000000	64.084384
908.000000	63.642060
907.000000	63.139211
906.000000	62.586269
905.000000	62.001175
904.000000	61.394513
903.000000	60.773164
902.000000	60.151016
901.000000	59.543091
900.000000	58.950439
899.000000	58.361855
898.000000	57.767702
897.000000	57.158287
896.000000	56.514280
895.000000	55.812142
894.000000	55.037843
893.000000	54.187923
892.000000	53.258650
891.000000	52.249263
890.000000	51.172149
889.000000	50.047853
888.000000	48.894744
887.000000	47.727600
886.000000	46.562065
885.000000	45.409736
884.000000	44.269415
883.000000	43.130115
882.000000	41.978481
881.000000	40.800132
880.000000	39.579253
879.000000	38.303704
878.000000	36.970757
877.000000	35.585118
876.000000	34.156303
875.000000	32.699969
874.000000	31.236387
873.000000	29.785125
872.000000	28.362777
871.000000	26.983515
870.000000	25.655708
869.000000	24.380046
868.000000	23.152089
867.000000	21.965867
866.000000	20.813835
865.000000	19.687172
864.000000	18.582851
863.000000	17.503732
862.000000	16.452027
861.000000	15.429518
860.000000	14.443520
859.000000	13.509571
858.000000	12.642380
857.000000	11.853149
856.000000	11.158145
855.000000	10.575420
854.000000	10.115925
853.000000	9.778535
852.000000	9.554063
851.000000	9.426776
850.000000	9.367438
849.000000	9.342407
848.000000	9.328548
847.000000	9.315109
846.000000	9.296175
845.000000	9.268942
844.000000	9.241557
843.000000	9.229823
842.000000	9.244619
841.000000	9.291002
840.000000	9.375923
839.000000	9.508668
838.000000	9.692525
837.000000	9.923987
836.000000	10.201779
835.000000	10.526406
834.000000	10.893640
833.000000	11.295573
832.000000	11.726949
831.000000	12.185454
830.000000	12.665023
829.000000	13.157517
828.000000	13.660545
827.000000	14.177836
826.000000	14.715624
825.000000	15.282947
824.000000	15.893819
823.000000	16.561471
822.000000	17.288687
821.000000	18.068022
820.000000	18.886214
819.000000	19.725842
818.000000	20.567579
817.000000	21.395574
816.000000	22.200945
815.000000	22.979069
814.000000	23.727716
813.000000	24.449000
812.000000	25.149954
811.000000	25.838981
810.000000	26.523581
809.000000	27.211022
808.000000	27.907530
807.000000	28.616343
806.000000	29.337560
805.000000	30.068860
804.000000	30.804030
803.000000	31.532630
802.000000	32.244966
801.000000	32.936062
800.000000	33.603943
799.000000	34.248197
798.000000	34.872867
797.000000	35.487542
796.000000	36.102061
795.000000	36.723004
794.000000	37.356075
793.000000	38.006101
792.000000	38.671931
791.000000	39.345436
790.000000	40.017198
789.000000	40.678568
788.000000	41.317584
787.000000	41.920852
786.000000	42.482469
785.000000	43.005418
784.000000	43.493970
783.000000	43.951596
782.000000	44.387700
781.000000	44.817301
780.000000	45.251387
779.000000	45.694342
778.000000	46.150489
777.000000	46.624343
776.000000	47.111808
775.000000	47.599196
774.000000	48.073832
773.000000	48.528471
772.000000	48.955497
771.000000	49.347182
770.000000	49.704159
769.000000	50.035621
768.000000	50.348930
767.000000	50.647853
766.000000	50.941298
765.000000	51.243470
764.000000	51.563585
763.000000	51.903440
762.000000	52.265220
761.000000	52.650751
760.000000	53.051112
759.000000	53.447421
758.000000	53.824363
757.000000	54.174173
756.000000	54.487938
755.000000	54.755058
754.000000	54.974231
753.000000	55.153954
752.000000	55.301552
751.000000	55.422700
750.000000	55.531365
749.000000	55.648139
748.000000	55.786130
747.000000	55.948398
746.000000	56.138093
745.000000	56.357591
744.000000	56.595521
743.000000	56.827193
742.000000	57.030775
741.000000	57.193270
740.000000	57.301667
739.000000	57.344674
738.000000	57.327263
737.000000	57.270969
736.000000	57.197293
735.000000	57.122087
734.000000	57.067128
733.000000	57.061207
732.000000	57.124185
731.000000	57.258775
730.000000	57.459528
729.000000	57.717043
728.000000	58.009558
727.000000	58.303911
726.000000	58.571700
725.000000	58.796515
724.000000	58.965918
723.000000	59.072425
722.000000	59.127080
721.000000	59.160318
720.000000	59.204025
719.000000	59.281016
718.000000	59.411721
717.000000	59.616215
716.000000	59.902415
715.000000	60.260880
714.000000	60.673213
713.000000	61.114576
712.000000	61.547311
711.000000	61.928361
710.000000	62.230367
709.000000	62.446858
708.000000	62.580435
707.000000	62.641607
706.000000	62.659401
705.000000	62.675658
704.000000	62.723163
703.000000	62.818794
702.000000	62.975790
701.000000	63.205961
700.000000	63.505366
699.000000	63.851136
698.000000	64.216033
697.000000	64.573307
696.000000	64.888612
695.000000	65.128224
694.000000	65.279610
693.000000	65.352545
692.000000	65.362985
691.000000	65.331054
690.000000	65.292714
689.000000	65.291299
688.000000	65.349952
687.000000	65.466658
686.000000	65.637315
685.000000	65.863122
684.000000	66.130991
683.000000	66.409048
682.000000	66.669370
681.000000	66.898282
680.000000	67.082363
679.000000	67.207285
678.000000	67.274936
677.000000	67.303575
676.000000	67.310198
675.000000	67.304220
674.000000	67.301732
673.000000	67.328755
672.000000	67.403328
671.000000	67.529880
670.000000	67.711140
669.000000	67.947738
668.000000	68.218120
667.000000	68.436028
666.000000	68.538910
665.000000	68.587888
664.000000	68.645604
663.000000	68.713532
662.000000	68.776832
661.000000	68.832563
660.000000	68.883927
659.000000	68.927100
658.000000	68.962366
657.000000	68.998489
656.000000	69.041543
655.000000	69.089868
654.000000	69.147149
653.000000	69.225540
652.000000	69.331142
651.000000	69.458564
650.000000	69.600564
649.000000	69.750731
648.000000	69.893798
647.000000	70.010324
646.000000	70.095478
645.000000	70.156915
644.000000	70.192118
643.000000	70.188578
642.000000	70.150468
641.000000	70.103131
640.000000	70.065762
639.000000	70.040218
638.000000	70.031431
637.000000	70.057882
636.000000	70.133198
635.000000	70.252227
634.000000	70.399387
633.000000	70.556173
632.000000	70.697219
631.000000	70.794314
630.000000	70.833058
629.000000	70.816226
628.000000	70.751413
627.000000	70.652585
626.000000	70.551235
625.000000	70.481855
624.000000	70.453542
623.000000	70.455177
622.000000	70.485443
621.000000	70.552936
620.000000	70.649543
619.000000	70.749233
618.000000	70.835840
617.000000	70.909480
616.000000	70.961649
615.000000	70.971176
614.000000	70.932258
613.000000	70.863675
612.000000	70.785919
611.000000	70.710470
610.000000	70.653584
609.000000	70.634995
608.000000	70.654874
607.000000	70.694045
606.000000	70.739805
605.000000	70.788390
604.000000	70.821280
603.000000	70.807217
602.000000	70.736146
601.000000	70.625611
600.000000	70.482896
599.000000	70.290184
598.000000	70.036012
597.000000	69.733617
596.000000	69.405895
595.000000	69.082513
594.000000	68.819359
593.000000	68.687797
592.000000	68.725141
591.000000	68.903299
590.000000	69.154603
589.000000	69.417158
588.000000	69.650364
587.000000	69.838159
586.000000	69.991911
585.000000	70.133720
584.000000	70.268236
583.000000	70.388679
582.000000	70.508401
581.000000	70.654337
580.000000	70.821848
579.000000	70.972306
578.000000	71.088786
577.000000	71.197521
576.000000	71.319879
575.000000	71.431691
574.000000	71.492186
573.000000	71.488547
572.000000	71.435263
571.000000	71.357908
570.000000	71.290820
569.000000	71.264818
568.000000	71.284542
567.000000	71.331473
566.000000	71.391406
565.000000	71.463981
564.000000	71.543836
563.000000	71.617234
562.000000	71.680501
561.000000	71.741786
560.000000	71.802157
559.000000	71.854984
558.000000	71.905119
557.000000	71.968781
556.000000	72.051357
555.000000	72.142328
554.000000	72.234130
553.000000	72.325420
552.000000	72.406258
551.000000	72.461888
550.000000	72.494245
549.000000	72.517965
548.000000	72.536667
547.000000	72.547608
546.000000	72.566793
545.000000	72.619761
544.000000	72.707034
543.000000	72.806815
542.000000	72.909436
541.000000	73.020257
540.000000	73.127217
539.000000	73.198529
538.000000	73.219076
537.000000	73.203677
536.000000	73.167876
535.000000	73.114695
534.000000	73.054477
533.000000	73.013707
532.000000	73.013593
531.000000	73.055217
530.000000	73.130891
529.000000	73.235769
528.000000	73.367644
527.000000	73.533648
526.000000	73.748835
525.000000	73.991356
524.000000	74.177168
523.000000	74.211917
522.000000	74.067339
521.000000	73.793085
520.000000	73.465876
519.000000	73.153983
518.000000	72.918964
517.000000	72.801935
516.000000	72.788234
515.000000	72.817291
514.000000	72.837372
513.000000	72.830115
512.000000	72.781112
511.000000	72.658121
510.000000	72.430713
509.000000	72.091212
508.000000	71.637140
507.000000	71.062868
506.000000	70.385438
505.000000	69.650103
504.000000	68.913102
503.000000	68.244105
502.000000	67.718522
501.000000	67.363952
500.000000	67.133308
499.000000	66.965605
498.000000	66.859430
497.000000	66.849368
496.000000	66.932304
495.000000	67.057704
494.000000	67.188013
493.000000	67.333586
492.000000	67.508607
491.000000	67.697897
490.000000	67.888409
489.000000	68.102611
488.000000	68.387602
487.000000	68.787296
486.000000	69.330570
485.000000	70.010221
484.000000	70.753787
483.000000	71.448927
482.000000	72.020417
481.000000	72.455059
480.000000	72.749735
479.000000	72.892944
478.000000	72.903194
477.000000	72.832775
476.000000	72.714664
475.000000	72.556430
474.000000	72.410648
473.000000	72.387447
472.000000	72.532438
471.000000	72.765857
470.000000	73.010722
469.000000	73.280875
468.000000	73.612192
467.000000	73.970908
466.000000	74.273562
465.000000	74.479294
464.000000	74.608987
463.000000	74.700347
462.000000	74.776989
461.000000	74.830963
460.000000	74.826107
459.000000	74.761025
458.000000	74.718201
457.000000	74.766263
456.000000	74.850106
455.000000	74.876507
454.000000	74.862980
453.000000	74.936436
452.000000	75.163112
451.000000	75.446563
450.000000	75.660738
449.000000	75.795828
448.000000	75.916347
447.000000	76.041005
446.000000	76.135335
445.000000	76.191580
444.000000	76.243680
443.000000	76.321801
442.000000	76.434137
441.000000	76.567024
440.000000	76.675998
439.000000	76.717066
438.000000	76.728148
437.000000	76.847150
436.000000	77.175936
435.000000	77.651845
434.000000	78.126760
433.000000	78.523098
432.000000	78.833338
431.000000	79.031926
430.000000	79.081775
429.000000	78.986202
428.000000	78.758265
427.000000	78.405975
426.000000	78.014926
425.000000	77.769920
424.000000	77.797728
423.000000	78.004170
422.000000	78.168365
421.000000	78.172765
420.000000	78.137434
419.000000	78.368825
418.000000	78.952827
417.000000	79.635972
416.000000	80.139613
415.000000	80.305876
414.000000	80.181933
413.000000	79.995019
412.000000	79.920444
411.000000	79.925571
410.000000	79.951565
409.000000	80.070004
408.000000	80.305963
407.000000	80.564251
406.000000	80.729596
405.000000	80.864823
404.000000	81.028945
403.000000	81.088064
402.000000	80.890077
401.000000	80.521117
400.000000	80.146292
