PE IR       SUBTECH     SPECTRUM    ASCII       PEDS        4.00        
   -1
23MS002_nitro.asc
24/09/10
16:14:31.00
24/09/10
16:14:31.00
Administrator
Sample 1157 By Administrator Date Tuesday, September 10 2024
400.000000
#HDR
-1
-1
#GR
cm-1
%T
1.0
0.0
4000.000000
-1.000000
3601
8
85.605940
3.102119
#DATA
4000.000000	50.639384
3999.000000	50.679286
3998.000000	50.718704
3997.000000	50.757347
3996.000000	50.794809
3995.000000	50.830679
3994.000000	50.865087
3993.000000	50.899154
3992.000000	50.934510
3991.000000	50.972125
3990.000000	51.011566
3989.000000	51.051443
3988.000000	51.090540
3987.000000	51.128368
3986.000000	51.164871
3985.000000	51.199976
3984.000000	51.233658
3983.000000	51.266288
3982.000000	51.298525
3981.000000	51.330834
3980.000000	51.363389
3979.000000	51.396513
3978.000000	51.430864
3977.000000	51.466932
3976.000000	51.504208
3975.000000	51.540937
3974.000000	51.575003
3973.000000	51.605325
3972.000000	51.632747
3971.000000	51.659543
3970.000000	51.688079
3969.000000	51.719487
3968.000000	51.753243
3967.000000	51.787913
3966.000000	51.822197
3965.000000	51.855710
3964.000000	51.888954
3963.000000	51.922472
3962.000000	51.955932
3961.000000	51.988208
3960.000000	52.018750
3959.000000	52.048330
3958.000000	52.078403
3957.000000	52.109772
3956.000000	52.141926
3955.000000	52.173881
3954.000000	52.205106
3953.000000	52.235934
3952.000000	52.267144
3951.000000	52.299441
3950.000000	52.333201
3949.000000	52.367505
3948.000000	52.399921
3947.000000	52.428309
3946.000000	52.453486
3945.000000	52.479735
3944.000000	52.511680
3943.000000	52.550206
3942.000000	52.591208
3941.000000	52.629559
3940.000000	52.664574
3939.000000	52.699650
3938.000000	52.737379
3937.000000	52.776447
3936.000000	52.812749
3935.000000	52.843650
3934.000000	52.870357
3933.000000	52.896721
3932.000000	52.925475
3931.000000	52.955794
3930.000000	52.985336
3929.000000	53.013277
3928.000000	53.041619
3927.000000	53.074535
3926.000000	53.114654
3925.000000	53.159183
3924.000000	53.200385
3923.000000	53.231883
3922.000000	53.254209
3921.000000	53.272904
3920.000000	53.294179
3919.000000	53.322498
3918.000000	53.359224
3917.000000	53.401935
3916.000000	53.445552
3915.000000	53.486190
3914.000000	53.523794
3913.000000	53.560038
3912.000000	53.596273
3911.000000	53.632222
3910.000000	53.666180
3909.000000	53.696650
3908.000000	53.723467
3907.000000	53.748325
3906.000000	53.772812
3905.000000	53.796161
3904.000000	53.814548
3903.000000	53.824517
3902.000000	53.829474
3901.000000	53.839647
3900.000000	53.863303
3899.000000	53.900589
3898.000000	53.944859
3897.000000	53.989666
3896.000000	54.033106
3895.000000	54.076074
3894.000000	54.120457
3893.000000	54.167803
3892.000000	54.216812
3891.000000	54.260902
3890.000000	54.291865
3889.000000	54.309218
3888.000000	54.319303
3887.000000	54.331020
3886.000000	54.353616
3885.000000	54.385733
3884.000000	54.414610
3883.000000	54.434296
3882.000000	54.452560
3881.000000	54.482648
3880.000000	54.527828
3879.000000	54.575409
3878.000000	54.612872
3877.000000	54.640594
3876.000000	54.668074
3875.000000	54.705539
3874.000000	54.751382
3873.000000	54.791090
3872.000000	54.813441
3871.000000	54.823333
3870.000000	54.836049
3869.000000	54.856694
3868.000000	54.878867
3867.000000	54.900043
3866.000000	54.923813
3865.000000	54.957478
3864.000000	55.005475
3863.000000	55.059265
3862.000000	55.105219
3861.000000	55.138744
3860.000000	55.168485
3859.000000	55.208953
3858.000000	55.266799
3857.000000	55.333326
3856.000000	55.386709
3855.000000	55.409024
3854.000000	55.408933
3853.000000	55.404040
3852.000000	55.395833
3851.000000	55.392482
3850.000000	55.408726
3849.000000	55.445781
3848.000000	55.499016
3847.000000	55.562734
3846.000000	55.628964
3845.000000	55.689632
3844.000000	55.740714
3843.000000	55.781436
3842.000000	55.813206
3841.000000	55.838205
3840.000000	55.857832
3839.000000	55.873289
3838.000000	55.886990
3837.000000	55.903425
3836.000000	55.926237
3835.000000	55.955693
3834.000000	55.990238
3833.000000	56.029929
3832.000000	56.076180
3831.000000	56.127014
3830.000000	56.176350
3829.000000	56.220695
3828.000000	56.263709
3827.000000	56.310602
3826.000000	56.359586
3825.000000	56.401669
3824.000000	56.428314
3823.000000	56.439981
3822.000000	56.452206
3821.000000	56.480547
3820.000000	56.515969
3819.000000	56.542655
3818.000000	56.559758
3817.000000	56.577544
3816.000000	56.611173
3815.000000	56.663036
3814.000000	56.720815
3813.000000	56.775003
3812.000000	56.823973
3811.000000	56.869845
3810.000000	56.913826
3809.000000	56.953652
3808.000000	56.987566
3807.000000	57.017024
3806.000000	57.042579
3805.000000	57.062410
3804.000000	57.076447
3803.000000	57.087205
3802.000000	57.105289
3801.000000	57.137484
3800.000000	57.173221
3799.000000	57.204842
3798.000000	57.236807
3797.000000	57.277410
3796.000000	57.330932
3795.000000	57.392017
3794.000000	57.450678
3793.000000	57.501539
3792.000000	57.546078
3791.000000	57.588850
3790.000000	57.631852
3789.000000	57.673108
3788.000000	57.710664
3787.000000	57.745932
3786.000000	57.782483
3785.000000	57.820939
3784.000000	57.856989
3783.000000	57.885528
3782.000000	57.906791
3781.000000	57.927631
3780.000000	57.957285
3779.000000	57.997985
3778.000000	58.042906
3777.000000	58.085930
3776.000000	58.127428
3775.000000	58.169769
3774.000000	58.212393
3773.000000	58.252282
3772.000000	58.286865
3771.000000	58.316418
3770.000000	58.343098
3769.000000	58.367648
3768.000000	58.390285
3767.000000	58.415106
3766.000000	58.448057
3765.000000	58.490730
3764.000000	58.537094
3763.000000	58.578177
3762.000000	58.610762
3761.000000	58.639354
3760.000000	58.672425
3759.000000	58.712675
3758.000000	58.754129
3757.000000	58.791645
3756.000000	58.825610
3755.000000	58.857283
3754.000000	58.884371
3753.000000	58.904311
3752.000000	58.920238
3751.000000	58.937450
3750.000000	58.954854
3749.000000	58.970295
3748.000000	58.988213
3747.000000	59.010994
3746.000000	59.034402
3745.000000	59.064953
3744.000000	59.112830
3743.000000	59.166460
3742.000000	59.216261
3741.000000	59.263903
3740.000000	59.308009
3739.000000	59.349133
3738.000000	59.390843
3737.000000	59.438577
3736.000000	59.495523
3735.000000	59.556900
3734.000000	59.610845
3733.000000	59.651193
3732.000000	59.684734
3731.000000	59.722910
3730.000000	59.770769
3729.000000	59.824696
3728.000000	59.880018
3727.000000	59.938548
3726.000000	60.002435
3725.000000	60.065558
3724.000000	60.119566
3723.000000	60.163493
3722.000000	60.203667
3721.000000	60.244453
3720.000000	60.286154
3719.000000	60.329088
3718.000000	60.374200
3717.000000	60.421239
3716.000000	60.467275
3715.000000	60.507419
3714.000000	60.536978
3713.000000	60.557297
3712.000000	60.578482
3711.000000	60.608303
3710.000000	60.644197
3709.000000	60.682365
3708.000000	60.724259
3707.000000	60.773293
3706.000000	60.829013
3705.000000	60.886786
3704.000000	60.943521
3703.000000	61.000906
3702.000000	61.061524
3701.000000	61.120717
3700.000000	61.170361
3699.000000	61.209458
3698.000000	61.244311
3697.000000	61.280568
3696.000000	61.319300
3695.000000	61.357365
3694.000000	61.390907
3693.000000	61.419447
3692.000000	61.447202
3691.000000	61.478917
3690.000000	61.513520
3689.000000	61.545953
3688.000000	61.573916
3687.000000	61.603101
3686.000000	61.640658
3685.000000	61.686225
3684.000000	61.734561
3683.000000	61.782735
3682.000000	61.831337
3681.000000	61.881109
3680.000000	61.928909
3679.000000	61.966769
3678.000000	61.986474
3677.000000	61.990058
3676.000000	62.000154
3675.000000	62.031943
3674.000000	62.068888
3673.000000	62.093767
3672.000000	62.105504
3671.000000	62.120746
3670.000000	62.168050
3669.000000	62.248832
3668.000000	62.335299
3667.000000	62.410625
3666.000000	62.477237
3665.000000	62.542554
3664.000000	62.609526
3663.000000	62.675399
3662.000000	62.735432
3661.000000	62.785738
3660.000000	62.822768
3659.000000	62.845462
3658.000000	62.859043
3657.000000	62.874926
3656.000000	62.900259
3655.000000	62.929746
3654.000000	62.954748
3653.000000	62.969539
3652.000000	62.970771
3651.000000	62.964325
3650.000000	62.965359
3649.000000	62.980431
3648.000000	63.004692
3647.000000	63.036558
3646.000000	63.079547
3645.000000	63.133406
3644.000000	63.194998
3643.000000	63.262112
3642.000000	63.332330
3641.000000	63.399667
3640.000000	63.455915
3639.000000	63.497645
3638.000000	63.526699
3637.000000	63.546287
3636.000000	63.560148
3635.000000	63.574279
3634.000000	63.593861
3633.000000	63.615229
3632.000000	63.626571
3631.000000	63.618414
3630.000000	63.602277
3629.000000	63.606811
3628.000000	63.636047
3627.000000	63.669652
3626.000000	63.699593
3625.000000	63.727633
3624.000000	63.754879
3623.000000	63.781858
3622.000000	63.806018
3621.000000	63.823526
3620.000000	63.836400
3619.000000	63.851086
3618.000000	63.866938
3617.000000	63.878702
3616.000000	63.886170
3615.000000	63.895244
3614.000000	63.912511
3613.000000	63.936418
3612.000000	63.956361
3611.000000	63.964065
3610.000000	63.963738
3609.000000	63.970478
3608.000000	63.997129
3607.000000	64.041480
3606.000000	64.090202
3605.000000	64.132320
3604.000000	64.165154
3603.000000	64.192645
3602.000000	64.218586
3601.000000	64.241466
3600.000000	64.257057
3599.000000	64.263844
3598.000000	64.263984
3597.000000	64.262689
3596.000000	64.268110
3595.000000	64.287522
3594.000000	64.320115
3593.000000	64.354969
3592.000000	64.379312
3591.000000	64.386539
3590.000000	64.379075
3589.000000	64.369866
3588.000000	64.376971
3587.000000	64.405988
3586.000000	64.444393
3585.000000	64.479284
3584.000000	64.509150
3583.000000	64.539294
3582.000000	64.573850
3581.000000	64.611294
3580.000000	64.646546
3579.000000	64.675626
3578.000000	64.697809
3577.000000	64.714282
3576.000000	64.728205
3575.000000	64.743674
3574.000000	64.762799
3573.000000	64.783734
3572.000000	64.801535
3571.000000	64.811215
3570.000000	64.810238
3569.000000	64.803569
3568.000000	64.805241
3567.000000	64.827168
3566.000000	64.864361
3565.000000	64.903229
3564.000000	64.937891
3563.000000	64.971875
3562.000000	65.010158
3561.000000	65.053044
3560.000000	65.096292
3559.000000	65.135494
3558.000000	65.168776
3557.000000	65.195936
3556.000000	65.218188
3555.000000	65.238941
3554.000000	65.262286
3553.000000	65.289773
3552.000000	65.318640
3551.000000	65.344037
3550.000000	65.362958
3549.000000	65.376906
3548.000000	65.392576
3547.000000	65.418742
3546.000000	65.458385
3545.000000	65.504596
3544.000000	65.547456
3543.000000	65.582667
3542.000000	65.611612
3541.000000	65.636444
3540.000000	65.658806
3539.000000	65.681687
3538.000000	65.708470
3537.000000	65.740058
3536.000000	65.773866
3535.000000	65.806483
3534.000000	65.835730
3533.000000	65.860888
3532.000000	65.882551
3531.000000	65.902065
3530.000000	65.920151
3529.000000	65.936369
3528.000000	65.951175
3527.000000	65.967398
3526.000000	65.988618
3525.000000	66.016447
3524.000000	66.050164
3523.000000	66.087095
3522.000000	66.122633
3521.000000	66.152125
3520.000000	66.174345
3519.000000	66.192169
3518.000000	66.208830
3517.000000	66.225120
3516.000000	66.240997
3515.000000	66.257570
3514.000000	66.275526
3513.000000	66.293517
3512.000000	66.310377
3511.000000	66.327369
3510.000000	66.345728
3509.000000	66.363128
3508.000000	66.375103
3507.000000	66.379786
3506.000000	66.379597
3505.000000	66.379416
3504.000000	66.384195
3503.000000	66.395941
3502.000000	66.411661
3501.000000	66.425724
3500.000000	66.435330
3499.000000	66.442015
3498.000000	66.447794
3497.000000	66.451893
3496.000000	66.452326
3495.000000	66.448694
3494.000000	66.441633
3493.000000	66.431204
3492.000000	66.417920
3491.000000	66.404033
3490.000000	66.391988
3489.000000	66.382440
3488.000000	66.374638
3487.000000	66.367098
3486.000000	66.356945
3485.000000	66.340979
3484.000000	66.319146
3483.000000	66.295467
3482.000000	66.273238
3481.000000	66.250572
3480.000000	66.222586
3479.000000	66.186909
3478.000000	66.145549
3477.000000	66.102843
3476.000000	66.063368
3475.000000	66.030039
3474.000000	66.002226
3473.000000	65.976338
3472.000000	65.948817
3471.000000	65.917377
3470.000000	65.879215
3469.000000	65.830866
3468.000000	65.771586
3467.000000	65.705064
3466.000000	65.636469
3465.000000	65.569406
3464.000000	65.506324
3463.000000	65.448951
3462.000000	65.395794
3461.000000	65.340937
3460.000000	65.277682
3459.000000	65.203115
3458.000000	65.118653
3457.000000	65.028030
3456.000000	64.935839
3455.000000	64.846270
3454.000000	64.761204
3453.000000	64.679634
3452.000000	64.599258
3451.000000	64.517630
3450.000000	64.431930
3449.000000	64.339636
3448.000000	64.240736
3447.000000	64.137624
3446.000000	64.032015
3445.000000	63.923706
3444.000000	63.812857
3443.000000	63.701464
3442.000000	63.591494
3441.000000	63.482995
3440.000000	63.375039
3439.000000	63.266911
3438.000000	63.157026
3437.000000	63.041882
3436.000000	62.917674
3435.000000	62.782724
3434.000000	62.637963
3433.000000	62.486065
3432.000000	62.330194
3431.000000	62.172366
3430.000000	62.012246
3429.000000	61.848102
3428.000000	61.679693
3427.000000	61.508776
3426.000000	61.336699
3425.000000	61.162661
3424.000000	60.984569
3423.000000	60.800512
3422.000000	60.608640
3421.000000	60.407485
3420.000000	60.197511
3419.000000	59.981426
3418.000000	59.762595
3417.000000	59.543450
3416.000000	59.325255
3415.000000	59.107471
3414.000000	58.886502
3413.000000	58.656841
3412.000000	58.414128
3411.000000	58.156897
3410.000000	57.885660
3409.000000	57.601820
3408.000000	57.308473
3407.000000	57.010382
3406.000000	56.712129
3405.000000	56.416492
3404.000000	56.123647
3403.000000	55.830453
3402.000000	55.529812
3401.000000	55.212833
3400.000000	54.873741
3399.000000	54.513009
3398.000000	54.136634
3397.000000	53.752806
3396.000000	53.368196
3395.000000	52.985528
3394.000000	52.602972
3393.000000	52.216123
3392.000000	51.820530
3391.000000	51.412488
3390.000000	50.989793
3389.000000	50.552739
3388.000000	50.104140
3387.000000	49.647026
3386.000000	49.182540
3385.000000	48.711286
3384.000000	48.234697
3383.000000	47.754030
3382.000000	47.268806
3381.000000	46.777612
3380.000000	46.280039
3379.000000	45.776158
3378.000000	45.265216
3377.000000	44.746265
3376.000000	44.219150
3375.000000	43.684150
3374.000000	43.141417
3373.000000	42.591888
3372.000000	42.037753
3371.000000	41.480277
3370.000000	40.918711
3369.000000	40.352030
3368.000000	39.780598
3367.000000	39.205304
3366.000000	38.626167
3365.000000	38.043110
3364.000000	37.456427
3363.000000	36.865670
3362.000000	36.269786
3361.000000	35.669180
3360.000000	35.066334
3359.000000	34.463643
3358.000000	33.862251
3357.000000	33.263573
3356.000000	32.669509
3355.000000	32.080162
3354.000000	31.493245
3353.000000	30.906571
3352.000000	30.319455
3351.000000	29.731398
3350.000000	29.141842
3349.000000	28.552122
3348.000000	27.965513
3347.000000	27.384399
3346.000000	26.809344
3345.000000	26.241077
3344.000000	25.680849
3343.000000	25.128250
3342.000000	24.580870
3341.000000	24.037085
3340.000000	23.497166
3339.000000	22.961458
3338.000000	22.430056
3337.000000	21.904318
3336.000000	21.386565
3335.000000	20.877764
3334.000000	20.377573
3333.000000	19.886779
3332.000000	19.406646
3331.000000	18.936260
3330.000000	18.473004
3329.000000	18.015603
3328.000000	17.564939
3327.000000	17.121723
3326.000000	16.686371
3325.000000	16.260638
3324.000000	15.846252
3323.000000	15.442641
3322.000000	15.048125
3321.000000	14.662996
3320.000000	14.288922
3319.000000	13.925463
3318.000000	13.571012
3317.000000	13.225735
3316.000000	12.890904
3315.000000	12.566085
3314.000000	12.249579
3313.000000	11.941532
3312.000000	11.643243
3311.000000	11.354336
3310.000000	11.074207
3309.000000	10.804755
3308.000000	10.549296
3307.000000	10.309180
3306.000000	10.084252
3305.000000	9.875672
3304.000000	9.683612
3303.000000	9.504302
3302.000000	9.332591
3301.000000	9.166826
3300.000000	9.008625
3299.000000	8.858703
3298.000000	8.717045
3297.000000	8.585721
3296.000000	8.467069
3295.000000	8.360297
3294.000000	8.262823
3293.000000	8.174589
3292.000000	8.097503
3291.000000	8.030812
3290.000000	7.971455
3289.000000	7.917619
3288.000000	7.869192
3287.000000	7.825508
3286.000000	7.785586
3285.000000	7.750490
3284.000000	7.721747
3283.000000	7.698526
3282.000000	7.679017
3281.000000	7.663231
3280.000000	7.651698
3279.000000	7.642489
3278.000000	7.633008
3277.000000	7.623708
3276.000000	7.616713
3275.000000	7.611999
3274.000000	7.608081
3273.000000	7.605637
3272.000000	7.607237
3271.000000	7.614038
3270.000000	7.625458
3269.000000	7.640819
3268.000000	7.658500
3267.000000	7.674994
3266.000000	7.687829
3265.000000	7.698606
3264.000000	7.710564
3263.000000	7.724306
3262.000000	7.738696
3261.000000	7.754043
3260.000000	7.771252
3259.000000	7.789235
3258.000000	7.806360
3257.000000	7.823476
3256.000000	7.842436
3255.000000	7.862876
3254.000000	7.883172
3253.000000	7.903337
3252.000000	7.924122
3251.000000	7.944634
3250.000000	7.963830
3249.000000	7.983203
3248.000000	8.005137
3247.000000	8.029675
3246.000000	8.055291
3245.000000	8.081397
3244.000000	8.107593
3243.000000	8.132080
3242.000000	8.153746
3241.000000	8.174404
3240.000000	8.196338
3239.000000	8.218916
3238.000000	8.240159
3237.000000	8.260015
3236.000000	8.279654
3235.000000	8.299346
3234.000000	8.319567
3233.000000	8.342272
3232.000000	8.368060
3231.000000	8.393777
3230.000000	8.415929
3229.000000	8.434890
3228.000000	8.453089
3227.000000	8.470932
3226.000000	8.487456
3225.000000	8.503298
3224.000000	8.519692
3223.000000	8.535892
3222.000000	8.550421
3221.000000	8.563653
3220.000000	8.576530
3219.000000	8.588095
3218.000000	8.597038
3217.000000	8.604152
3216.000000	8.610739
3215.000000	8.616190
3214.000000	8.619655
3213.000000	8.622512
3212.000000	8.626375
3211.000000	8.630209
3210.000000	8.632018
3209.000000	8.631765
3208.000000	8.630222
3207.000000	8.626627
3206.000000	8.620070
3205.000000	8.611662
3204.000000	8.602722
3203.000000	8.592554
3202.000000	8.580399
3201.000000	8.567661
3200.000000	8.555729
3199.000000	8.543289
3198.000000	8.528417
3197.000000	8.511495
3196.000000	8.493520
3195.000000	8.473604
3194.000000	8.450760
3193.000000	8.426384
3192.000000	8.402317
3191.000000	8.378169
3190.000000	8.353116
3189.000000	8.328292
3188.000000	8.304810
3187.000000	8.281347
3186.000000	8.256314
3185.000000	8.230569
3184.000000	8.205387
3183.000000	8.179800
3182.000000	8.152619
3181.000000	8.125142
3180.000000	8.099135
3179.000000	8.074051
3178.000000	8.048846
3177.000000	8.024573
3176.000000	8.002507
3175.000000	7.981645
3174.000000	7.960723
3173.000000	7.940712
3172.000000	7.922684
3171.000000	7.905285
3170.000000	7.886979
3169.000000	7.868884
3168.000000	7.852806
3167.000000	7.838378
3166.000000	7.824840
3165.000000	7.813464
3164.000000	7.805494
3163.000000	7.799636
3162.000000	7.794155
3161.000000	7.789679
3160.000000	7.787360
3159.000000	7.786283
3158.000000	7.785222
3157.000000	7.784819
3156.000000	7.785777
3155.000000	7.787181
3154.000000	7.789182
3153.000000	7.795044
3152.000000	7.807476
3151.000000	7.824998
3150.000000	7.844356
3149.000000	7.864449
3148.000000	7.885431
3147.000000	7.906273
3146.000000	7.926274
3145.000000	7.946978
3144.000000	7.969783
3143.000000	7.993597
3142.000000	8.017312
3141.000000	8.042773
3140.000000	8.072686
3139.000000	8.107241
3138.000000	8.145167
3137.000000	8.185966
3136.000000	8.228841
3135.000000	8.271584
3134.000000	8.312935
3133.000000	8.354494
3132.000000	8.398095
3131.000000	8.443454
3130.000000	8.490340
3129.000000	8.540444
3128.000000	8.594778
3127.000000	8.651377
3126.000000	8.707928
3125.000000	8.764455
3124.000000	8.821252
3123.000000	8.876953
3122.000000	8.931212
3121.000000	8.986846
3120.000000	9.046687
3119.000000	9.110346
3118.000000	9.176640
3117.000000	9.246680
3116.000000	9.321784
3115.000000	9.400506
3114.000000	9.480259
3113.000000	9.560119
3112.000000	9.639765
3111.000000	9.718034
3110.000000	9.795133
3109.000000	9.874101
3108.000000	9.957488
3107.000000	10.044310
3106.000000	10.132363
3105.000000	10.221466
3104.000000	10.312118
3103.000000	10.403352
3102.000000	10.494402
3101.000000	10.586482
3100.000000	10.680668
3099.000000	10.775827
3098.000000	10.870904
3097.000000	10.967164
3096.000000	11.065879
3095.000000	11.165899
3094.000000	11.265723
3093.000000	11.366133
3092.000000	11.468665
3091.000000	11.573241
3090.000000	11.679200
3089.000000	11.786588
3088.000000	11.894620
3087.000000	12.001108
3086.000000	12.105442
3085.000000	12.210180
3084.000000	12.317639
3083.000000	12.427012
3082.000000	12.536801
3081.000000	12.647788
3080.000000	12.761520
3079.000000	12.877820
3078.000000	12.995825
3077.000000	13.115460
3076.000000	13.235839
3075.000000	13.354371
3074.000000	13.469576
3073.000000	13.582993
3072.000000	13.696542
3071.000000	13.810045
3070.000000	13.923280
3069.000000	14.038199
3068.000000	14.156761
3067.000000	14.278231
3066.000000	14.400547
3065.000000	14.522706
3064.000000	14.644071
3063.000000	14.763295
3062.000000	14.879904
3061.000000	14.995342
3060.000000	15.110855
3059.000000	15.226124
3058.000000	15.341349
3057.000000	15.458502
3056.000000	15.578699
3055.000000	15.700228
3054.000000	15.820976
3053.000000	15.940962
3052.000000	16.060780
3051.000000	16.179489
3050.000000	16.295887
3049.000000	16.410271
3048.000000	16.523420
3047.000000	16.635550
3046.000000	16.747714
3045.000000	16.862343
3044.000000	16.980750
3043.000000	17.101683
3042.000000	17.223494
3041.000000	17.345743
3040.000000	17.467373
3039.000000	17.585637
3038.000000	17.698860
3037.000000	17.808650
3036.000000	17.917972
3035.000000	18.028637
3034.000000	18.141781
3033.000000	18.258647
3032.000000	18.378988
3031.000000	18.500394
3030.000000	18.620666
3029.000000	18.739328
3028.000000	18.855883
3027.000000	18.968799
3026.000000	19.077830
3025.000000	19.185329
3024.000000	19.293651
3023.000000	19.403020
3022.000000	19.513235
3021.000000	19.625354
3020.000000	19.739899
3019.000000	19.855151
3018.000000	19.968923
3017.000000	20.080559
3016.000000	20.190009
3015.000000	20.296840
3014.000000	20.401733
3013.000000	20.507260
3012.000000	20.615577
3011.000000	20.726657
3010.000000	20.839746
3009.000000	20.954776
3008.000000	21.071139
3007.000000	21.186961
3006.000000	21.300922
3005.000000	21.413280
3004.000000	21.524003
3003.000000	21.631667
3002.000000	21.735411
3001.000000	21.836374
3000.000000	21.936298
2999.000000	22.036401
2998.000000	22.138374
2997.000000	22.244201
2996.000000	22.353683
2995.000000	22.464123
2994.000000	22.573716
2993.000000	22.683296
2992.000000	22.793521
2991.000000	22.902593
2990.000000	23.008462
2989.000000	23.111428
2988.000000	23.212930
2987.000000	23.313533
2986.000000	23.413740
2985.000000	23.515125
2984.000000	23.618858
2983.000000	23.724285
2982.000000	23.830349
2981.000000	23.936980
2980.000000	24.043739
2979.000000	24.148568
2978.000000	24.249514
2977.000000	24.346787
2976.000000	24.442111
2975.000000	24.537355
2974.000000	24.634676
2973.000000	24.736278
2972.000000	24.842559
2971.000000	24.951515
2970.000000	25.060909
2969.000000	25.169697
2968.000000	25.276600
2967.000000	25.379273
2966.000000	25.476358
2965.000000	25.569065
2964.000000	25.659710
2963.000000	25.750075
2962.000000	25.842109
2961.000000	25.938115
2960.000000	26.038721
2959.000000	26.141968
2958.000000	26.245392
2957.000000	26.347479
2956.000000	26.446449
2955.000000	26.540076
2954.000000	26.628327
2953.000000	26.714339
2952.000000	26.801244
2951.000000	26.889545
2950.000000	26.978903
2949.000000	27.070431
2948.000000	27.165456
2947.000000	27.263467
2946.000000	27.362967
2945.000000	27.463162
2944.000000	27.563257
2943.000000	27.661306
2942.000000	27.755351
2941.000000	27.845169
2940.000000	27.931910
2939.000000	28.017091
2938.000000	28.102715
2937.000000	28.190997
2936.000000	28.282596
2935.000000	28.375882
2934.000000	28.468795
2933.000000	28.560389
2932.000000	28.650118
2931.000000	28.737249
2930.000000	28.821935
2929.000000	28.905431
2928.000000	28.988269
2927.000000	29.069709
2926.000000	29.149880
2925.000000	29.230783
2924.000000	29.314115
2923.000000	29.399597
2922.000000	29.486396
2921.000000	29.574364
2920.000000	29.662728
2919.000000	29.749184
2918.000000	29.831711
2917.000000	29.910193
2916.000000	29.985569
2915.000000	30.058868
2914.000000	30.131902
2913.000000	30.207247
2912.000000	30.286299
2911.000000	30.368355
2910.000000	30.452243
2909.000000	30.537445
2908.000000	30.622875
2907.000000	30.706181
2906.000000	30.785513
2905.000000	30.861009
2904.000000	30.933729
2903.000000	31.004472
2902.000000	31.074412
2901.000000	31.145770
2900.000000	31.220501
2899.000000	31.298865
2898.000000	31.380153
2897.000000	31.463107
2896.000000	31.545397
2895.000000	31.624046
2894.000000	31.697657
2893.000000	31.767375
2892.000000	31.835131
2891.000000	31.902170
2890.000000	31.969879
2889.000000	32.040384
2888.000000	32.114955
2887.000000	32.192693
2886.000000	32.271680
2885.000000	32.350518
2884.000000	32.427958
2883.000000	32.502341
2882.000000	32.572721
2881.000000	32.639918
2880.000000	32.705715
2879.000000	32.771784
2878.000000	32.840090
2877.000000	32.913054
2876.000000	32.991703
2875.000000	33.073836
2874.000000	33.154912
2873.000000	33.230800
2872.000000	33.299766
2871.000000	33.362897
2870.000000	33.423321
2869.000000	33.484428
2868.000000	33.547964
2867.000000	33.613867
2866.000000	33.681828
2865.000000	33.752099
2864.000000	33.824693
2863.000000	33.898763
2862.000000	33.973031
2861.000000	34.045930
2860.000000	34.115317
2859.000000	34.179521
2858.000000	34.239337
2857.000000	34.297997
2856.000000	34.358625
2855.000000	34.422526
2854.000000	34.489995
2853.000000	34.561261
2852.000000	34.635844
2851.000000	34.712025
2850.000000	34.787597
2849.000000	34.860533
2848.000000	34.929028
2847.000000	34.992337
2846.000000	35.052065
2845.000000	35.111565
2844.000000	35.173642
2843.000000	35.239552
2842.000000	35.309897
2841.000000	35.384511
2840.000000	35.460976
2839.000000	35.535152
2838.000000	35.604564
2837.000000	35.670283
2836.000000	35.734687
2835.000000	35.798549
2834.000000	35.861197
2833.000000	35.922379
2832.000000	35.982783
2831.000000	36.043426
2830.000000	36.105568
2829.000000	36.170714
2828.000000	36.239810
2827.000000	36.312656
2826.000000	36.388420
2825.000000	36.466002
2824.000000	36.543472
2823.000000	36.618157
2822.000000	36.688224
2821.000000	36.753800
2820.000000	36.816221
2819.000000	36.877044
2818.000000	36.938238
2817.000000	37.002272
2816.000000	37.070812
2815.000000	37.143558
2814.000000	37.218746
2813.000000	37.294090
2812.000000	37.366796
2811.000000	37.433769
2810.000000	37.493152
2809.000000	37.545732
2808.000000	37.594411
2807.000000	37.642630
2806.000000	37.693447
2805.000000	37.749048
2804.000000	37.809962
2803.000000	37.874751
2802.000000	37.940856
2801.000000	38.005578
2800.000000	38.066318
2799.000000	38.120976
2798.000000	38.169186
2797.000000	38.212998
2796.000000	38.255819
2795.000000	38.300755
2794.000000	38.349894
2793.000000	38.404153
2792.000000	38.462882
2791.000000	38.523941
2790.000000	38.584850
2789.000000	38.643881
2788.000000	38.700128
2787.000000	38.753354
2786.000000	38.804314
2785.000000	38.854668
2784.000000	38.905885
2783.000000	38.958375
2782.000000	39.011865
2781.000000	39.066061
2780.000000	39.120438
2779.000000	39.173958
2778.000000	39.225637
2777.000000	39.275110
2776.000000	39.322257
2775.000000	39.366521
2774.000000	39.406990
2773.000000	39.442866
2772.000000	39.473433
2771.000000	39.498183
2770.000000	39.517362
2769.000000	39.532047
2768.000000	39.543438
2767.000000	39.552289
2766.000000	39.559312
2765.000000	39.565400
2764.000000	39.570722
2763.000000	39.574138
2762.000000	39.573990
2761.000000	39.569326
2760.000000	39.560131
2759.000000	39.546998
2758.000000	39.531432
2757.000000	39.515999
2756.000000	39.503319
2755.000000	39.494760
2754.000000	39.490093
2753.000000	39.487786
2752.000000	39.485033
2751.000000	39.478084
2750.000000	39.463503
2749.000000	39.439321
2748.000000	39.405170
2747.000000	39.361847
2746.000000	39.311300
2745.000000	39.256438
2744.000000	39.199751
2743.000000	39.142183
2742.000000	39.083527
2741.000000	39.023526
2740.000000	38.962501
2739.000000	38.901638
2738.000000	38.843538
2737.000000	38.792605
2736.000000	38.754101
2735.000000	38.732671
2734.000000	38.731933
2733.000000	38.753929
2732.000000	38.798338
2731.000000	38.862460
2730.000000	38.942153
2729.000000	39.033575
2728.000000	39.133575
2727.000000	39.239457
2726.000000	39.349490
2725.000000	39.463084
2724.000000	39.580483
2723.000000	39.701848
2722.000000	39.826205
2721.000000	39.950976
2720.000000	40.072293
2719.000000	40.186351
2718.000000	40.290983
2717.000000	40.385973
2716.000000	40.472063
2715.000000	40.550378
2714.000000	40.622403
2713.000000	40.689682
2712.000000	40.752963
2711.000000	40.811459
2710.000000	40.863603
2709.000000	40.908047
2708.000000	40.944068
2707.000000	40.971921
2706.000000	40.992933
2705.000000	41.009287
2704.000000	41.022989
2703.000000	41.035050
2702.000000	41.045835
2701.000000	41.055340
2700.000000	41.063065
2699.000000	41.068058
2698.000000	41.069698
2697.000000	41.068475
2696.000000	41.065583
2695.000000	41.062160
2694.000000	41.059137
2693.000000	41.057222
2692.000000	41.056370
2691.000000	41.055346
2690.000000	41.052392
2689.000000	41.046407
2688.000000	41.037376
2687.000000	41.026135
2686.000000	41.014167
2685.000000	41.003368
2684.000000	40.995365
2683.000000	40.990798
2682.000000	40.989211
2681.000000	40.989303
2680.000000	40.989150
2679.000000	40.986731
2678.000000	40.981023
2677.000000	40.972752
2676.000000	40.964145
2675.000000	40.958096
2674.000000	40.957458
2673.000000	40.964460
2672.000000	40.979870
2671.000000	41.002681
2670.000000	41.030644
2669.000000	41.060970
2668.000000	41.091004
2667.000000	41.118851
2666.000000	41.143890
2665.000000	41.166607
2664.000000	41.187778
2663.000000	41.208088
2662.000000	41.228271
2661.000000	41.248718
2660.000000	41.268618
2659.000000	41.286080
2658.000000	41.299446
2657.000000	41.308373
2656.000000	41.313612
2655.000000	41.316470
2654.000000	41.318928
2653.000000	41.323571
2652.000000	41.332629
2651.000000	41.347184
2650.000000	41.367568
2649.000000	41.393991
2648.000000	41.426685
2647.000000	41.465741
2646.000000	41.511346
2645.000000	41.564190
2644.000000	41.624872
2643.000000	41.693543
2642.000000	41.769989
2641.000000	41.853416
2640.000000	41.942021
2639.000000	42.032727
2638.000000	42.122194
2637.000000	42.208091
2636.000000	42.289378
2635.000000	42.365846
2634.000000	42.437711
2633.000000	42.505262
2632.000000	42.568443
2631.000000	42.626812
2630.000000	42.679756
2629.000000	42.726971
2628.000000	42.768360
2627.000000	42.803773
2626.000000	42.833499
2625.000000	42.858575
2624.000000	42.880639
2623.000000	42.901223
2622.000000	42.921144
2621.000000	42.940470
2620.000000	42.958355
2619.000000	42.973210
2618.000000	42.983244
2617.000000	42.986994
2616.000000	42.983723
2615.000000	42.973390
2614.000000	42.956732
2613.000000	42.935132
2612.000000	42.909844
2611.000000	42.881613
2610.000000	42.850879
2609.000000	42.818320
2608.000000	42.785093
2607.000000	42.752774
2606.000000	42.723479
2605.000000	42.699938
2604.000000	42.684969
2603.000000	42.680772
2602.000000	42.688929
2601.000000	42.710081
2600.000000	42.743665
2599.000000	42.788052
2598.000000	42.840995
2597.000000	42.900547
2596.000000	42.964938
2595.000000	43.032569
2594.000000	43.102504
2593.000000	43.174385
2592.000000	43.248094
2591.000000	43.323226
2590.000000	43.399182
2589.000000	43.475503
2588.000000	43.551715
2587.000000	43.627357
2586.000000	43.702388
2585.000000	43.777474
2584.000000	43.853559
2583.000000	43.931244
2582.000000	44.010886
2581.000000	44.092987
2580.000000	44.178038
2579.000000	44.265966
2578.000000	44.355909
2577.000000	44.446604
2576.000000	44.536700
2575.000000	44.624861
2574.000000	44.710004
2573.000000	44.791701
2572.000000	44.870130
2571.000000	44.945674
2570.000000	45.018750
2569.000000	45.089771
2568.000000	45.158965
2567.000000	45.225658
2566.000000	45.288127
2565.000000	45.344513
2564.000000	45.393285
2563.000000	45.433155
2562.000000	45.462495
2561.000000	45.479551
2560.000000	45.483366
2559.000000	45.473597
2558.000000	45.450532
2557.000000	45.415200
2556.000000	45.369812
2555.000000	45.318371
2554.000000	45.266539
2553.000000	45.221276
2552.000000	45.189839
2551.000000	45.178301
2550.000000	45.190192
2549.000000	45.226473
2548.000000	45.285472
2547.000000	45.363237
2546.000000	45.454792
2545.000000	45.554955
2544.000000	45.659470
2543.000000	45.764891
2542.000000	45.868142
2541.000000	45.966871
2540.000000	46.059659
2539.000000	46.145981
2538.000000	46.225958
2537.000000	46.300383
2536.000000	46.370633
2535.000000	46.438225
2534.000000	46.504096
2533.000000	46.568493
2532.000000	46.631288
2531.000000	46.691838
2530.000000	46.749200
2529.000000	46.802745
2528.000000	46.852721
2527.000000	46.899975
2526.000000	46.945186
2525.000000	46.988988
2524.000000	47.032322
2523.000000	47.076057
2522.000000	47.120329
2521.000000	47.164593
2520.000000	47.208386
2519.000000	47.251444
2518.000000	47.293219
2517.000000	47.332929
2516.000000	47.370157
2515.000000	47.405152
2514.000000	47.438536
2513.000000	47.471021
2512.000000	47.503392
2511.000000	47.536232
2510.000000	47.569735
2509.000000	47.603915
2508.000000	47.638727
2507.000000	47.673717
2506.000000	47.707846
2505.000000	47.740179
2504.000000	47.770502
2503.000000	47.798880
2502.000000	47.825128
2501.000000	47.849264
2500.000000	47.872203
2499.000000	47.895283
2498.000000	47.919231
2497.000000	47.944271
2496.000000	47.970810
2495.000000	47.999156
2494.000000	48.028601
2493.000000	48.057422
2492.000000	48.083857
2491.000000	48.106652
2490.000000	48.125126
2489.000000	48.139679
2488.000000	48.152241
2487.000000	48.165543
2486.000000	48.181730
2485.000000	48.201850
2484.000000	48.226122
2483.000000	48.253708
2482.000000	48.282302
2481.000000	48.308745
2480.000000	48.330416
2479.000000	48.346025
2478.000000	48.355649
2477.000000	48.360997
2476.000000	48.365408
2475.000000	48.372575
2474.000000	48.384937
2473.000000	48.403318
2472.000000	48.427289
2471.000000	48.454907
2470.000000	48.482444
2469.000000	48.505740
2468.000000	48.522363
2467.000000	48.532319
2466.000000	48.537204
2465.000000	48.539614
2464.000000	48.543092
2463.000000	48.551185
2462.000000	48.565838
2461.000000	48.586808
2460.000000	48.612340
2459.000000	48.639679
2458.000000	48.665266
2457.000000	48.685757
2456.000000	48.699608
2455.000000	48.707601
2454.000000	48.712069
2453.000000	48.716066
2452.000000	48.722735
2451.000000	48.734190
2450.000000	48.750617
2449.000000	48.770770
2448.000000	48.793186
2447.000000	48.816424
2446.000000	48.838587
2445.000000	48.857762
2444.000000	48.873172
2443.000000	48.885380
2442.000000	48.895467
2441.000000	48.904647
2440.000000	48.914456
2439.000000	48.926365
2438.000000	48.940988
2437.000000	48.958112
2436.000000	48.977390
2435.000000	48.998476
2434.000000	49.020654
2433.000000	49.042939
2432.000000	49.064415
2431.000000	49.083951
2430.000000	49.100040
2429.000000	49.111826
2428.000000	49.120216
2427.000000	49.127428
2426.000000	49.135727
2425.000000	49.147119
2424.000000	49.163542
2423.000000	49.186010
2422.000000	49.213448
2421.000000	49.242992
2420.000000	49.271296
2419.000000	49.295198
2418.000000	49.312082
2417.000000	49.321158
2416.000000	49.324659
2415.000000	49.327025
2414.000000	49.332841
2413.000000	49.345720
2412.000000	49.368014
2411.000000	49.399719
2410.000000	49.437383
2409.000000	49.475103
2408.000000	49.507114
2407.000000	49.529609
2406.000000	49.541344
2405.000000	49.544288
2404.000000	49.543713
2403.000000	49.546290
2402.000000	49.557350
2401.000000	49.579549
2400.000000	49.612741
2399.000000	49.653693
2398.000000	49.696349
2397.000000	49.734114
2396.000000	49.762680
2395.000000	49.780942
2394.000000	49.790383
2393.000000	49.795038
2392.000000	49.801236
2391.000000	49.815247
2390.000000	49.840266
2389.000000	49.875647
2388.000000	49.918448
2387.000000	49.964246
2386.000000	50.007570
2385.000000	50.043873
2384.000000	50.071682
2383.000000	50.093164
2382.000000	50.112257
2381.000000	50.133659
2380.000000	50.162558
2379.000000	50.202749
2378.000000	50.254946
2377.000000	50.316810
2376.000000	50.384906
2375.000000	50.454953
2374.000000	50.522089
2373.000000	50.582506
2372.000000	50.635420
2371.000000	50.682720
2370.000000	50.725651
2369.000000	50.764409
2368.000000	50.800064
2367.000000	50.835090
2366.000000	50.871013
2365.000000	50.907639
2364.000000	50.948452
2363.000000	50.996823
2362.000000	51.049870
2361.000000	51.107290
2360.000000	51.168352
2359.000000	51.230086
2358.000000	51.289703
2357.000000	51.340663
2356.000000	51.384448
2355.000000	51.423346
2354.000000	51.459785
2353.000000	51.499732
2352.000000	51.548564
2351.000000	51.613357
2350.000000	51.681773
2349.000000	51.735905
2348.000000	51.772282
2347.000000	51.804699
2346.000000	51.856772
2345.000000	51.923951
2344.000000	51.986274
2343.000000	52.026372
2342.000000	52.048577
2341.000000	52.076189
2340.000000	52.118545
2339.000000	52.178508
2338.000000	52.248291
2337.000000	52.319689
2336.000000	52.382874
2335.000000	52.432107
2334.000000	52.465088
2333.000000	52.487067
2332.000000	52.505196
2331.000000	52.533347
2330.000000	52.576059
2329.000000	52.633166
2328.000000	52.703543
2327.000000	52.777824
2326.000000	52.854010
2325.000000	52.920561
2324.000000	52.978157
2323.000000	53.025330
2322.000000	53.063085
2321.000000	53.094760
2320.000000	53.123563
2319.000000	53.158996
2318.000000	53.202565
2317.000000	53.254862
2316.000000	53.311463
2315.000000	53.370786
2314.000000	53.429414
2313.000000	53.483108
2312.000000	53.529830
2311.000000	53.569635
2310.000000	53.606283
2309.000000	53.641100
2308.000000	53.677969
2307.000000	53.717926
2306.000000	53.762112
2305.000000	53.807287
2304.000000	53.852323
2303.000000	53.896995
2302.000000	53.942408
2301.000000	53.988595
2300.000000	54.036087
2299.000000	54.084725
2298.000000	54.133307
2297.000000	54.178289
2296.000000	54.218124
2295.000000	54.251835
2294.000000	54.280871
2293.000000	54.306268
2292.000000	54.333040
2291.000000	54.366239
2290.000000	54.409344
2289.000000	54.460634
2288.000000	54.516548
2287.000000	54.572193
2286.000000	54.621883
2285.000000	54.660168
2284.000000	54.685527
2283.000000	54.701580
2282.000000	54.714654
2281.000000	54.731979
2280.000000	54.760246
2279.000000	54.803687
2278.000000	54.860376
2277.000000	54.923268
2276.000000	54.983812
2275.000000	55.035450
2274.000000	55.073710
2273.000000	55.097326
2272.000000	55.110402
2271.000000	55.121105
2270.000000	55.137524
2269.000000	55.164728
2268.000000	55.205130
2267.000000	55.257852
2266.000000	55.316935
2265.000000	55.372828
2264.000000	55.417493
2263.000000	55.447432
2262.000000	55.463446
2261.000000	55.469427
2260.000000	55.472712
2259.000000	55.481600
2258.000000	55.500932
2257.000000	55.530579
2256.000000	55.566968
2255.000000	55.604675
2254.000000	55.636037
2253.000000	55.653802
2252.000000	55.655068
2251.000000	55.642327
2250.000000	55.620320
2249.000000	55.593775
2248.000000	55.567692
2247.000000	55.545598
2246.000000	55.526906
2245.000000	55.507100
2244.000000	55.481345
2243.000000	55.446134
2242.000000	55.398460
2241.000000	55.336636
2240.000000	55.262759
2239.000000	55.182349
2238.000000	55.100974
2237.000000	55.022861
2236.000000	54.952229
2235.000000	54.893043
2234.000000	54.846835
2233.000000	54.812645
2232.000000	54.789515
2231.000000	54.776939
2230.000000	54.772881
2229.000000	54.773696
2228.000000	54.776489
2227.000000	54.779796
2226.000000	54.781681
2225.000000	54.779837
2224.000000	54.774069
2223.000000	54.766771
2222.000000	54.760649
2221.000000	54.757740
2220.000000	54.760510
2219.000000	54.770977
2218.000000	54.787814
2217.000000	54.806094
2216.000000	54.820485
2215.000000	54.827264
2214.000000	54.823970
2213.000000	54.810329
2212.000000	54.790520
2211.000000	54.772214
2210.000000	54.762261
2209.000000	54.764296
2208.000000	54.779470
2207.000000	54.806258
2206.000000	54.838803
2205.000000	54.868168
2204.000000	54.886910
2203.000000	54.891749
2202.000000	54.882715
2201.000000	54.862791
2200.000000	54.838903
2199.000000	54.820198
2198.000000	54.813521
2197.000000	54.821081
2196.000000	54.841517
2195.000000	54.870401
2194.000000	54.899509
2193.000000	54.918931
2192.000000	54.922021
2191.000000	54.907672
2190.000000	54.878578
2189.000000	54.839894
2188.000000	54.799552
2187.000000	54.766406
2186.000000	54.746236
2185.000000	54.740247
2184.000000	54.746868
2183.000000	54.762641
2182.000000	54.781497
2181.000000	54.796481
2180.000000	54.803738
2179.000000	54.803662
2178.000000	54.798436
2177.000000	54.790935
2176.000000	54.786030
2175.000000	54.789770
2174.000000	54.805957
2173.000000	54.834872
2172.000000	54.875302
2171.000000	54.925300
2170.000000	54.980602
2169.000000	55.035040
2168.000000	55.083679
2167.000000	55.124206
2166.000000	55.155554
2165.000000	55.178089
2164.000000	55.195675
2163.000000	55.214809
2162.000000	55.240679
2161.000000	55.275565
2160.000000	55.320563
2159.000000	55.375658
2158.000000	55.437347
2157.000000	55.498920
2156.000000	55.554297
2155.000000	55.600124
2154.000000	55.634602
2153.000000	55.657622
2152.000000	55.672937
2151.000000	55.687428
2150.000000	55.707071
2149.000000	55.735029
2148.000000	55.772988
2147.000000	55.821030
2146.000000	55.875521
2145.000000	55.929874
2144.000000	55.978687
2143.000000	56.019475
2142.000000	56.050958
2141.000000	56.073273
2140.000000	56.090528
2139.000000	56.110015
2138.000000	56.137641
2137.000000	56.175847
2136.000000	56.225313
2135.000000	56.285125
2134.000000	56.350668
2133.000000	56.414626
2132.000000	56.471411
2131.000000	56.518764
2130.000000	56.555463
2129.000000	56.581262
2128.000000	56.599664
2127.000000	56.617319
2126.000000	56.639467
2125.000000	56.668077
2124.000000	56.704161
2123.000000	56.748276
2122.000000	56.797898
2121.000000	56.847511
2120.000000	56.892524
2119.000000	56.930894
2118.000000	56.961206
2117.000000	56.982917
2116.000000	56.999313
2115.000000	57.016889
2114.000000	57.040757
2113.000000	57.072847
2112.000000	57.114088
2111.000000	57.164450
2110.000000	57.220097
2109.000000	57.274021
2108.000000	57.320609
2107.000000	57.357214
2106.000000	57.381738
2105.000000	57.393032
2104.000000	57.394376
2103.000000	57.392901
2102.000000	57.394332
2101.000000	57.400729
2100.000000	57.413141
2099.000000	57.431603
2098.000000	57.451972
2097.000000	57.466356
2096.000000	57.468097
2095.000000	57.454626
2094.000000	57.425916
2093.000000	57.384458
2092.000000	57.337447
2091.000000	57.295047
2090.000000	57.264891
2089.000000	57.249895
2088.000000	57.250584
2087.000000	57.265690
2086.000000	57.289928
2085.000000	57.315316
2084.000000	57.336561
2083.000000	57.353002
2082.000000	57.365821
2081.000000	57.377058
2080.000000	57.391734
2079.000000	57.416580
2078.000000	57.455138
2077.000000	57.506473
2076.000000	57.568144
2075.000000	57.637544
2074.000000	57.709492
2073.000000	57.777437
2072.000000	57.838470
2071.000000	57.893561
2070.000000	57.943493
2069.000000	57.988775
2068.000000	58.034030
2067.000000	58.087299
2066.000000	58.153376
2065.000000	58.231064
2064.000000	58.317429
2063.000000	58.410417
2062.000000	58.506374
2061.000000	58.599707
2060.000000	58.687119
2059.000000	58.769009
2058.000000	58.845795
2057.000000	58.916750
2056.000000	58.983280
2055.000000	59.049497
2054.000000	59.117857
2053.000000	59.188256
2052.000000	59.262028
2051.000000	59.341593
2050.000000	59.425460
2049.000000	59.508367
2048.000000	59.586600
2047.000000	59.658666
2046.000000	59.721569
2045.000000	59.772174
2044.000000	59.813274
2043.000000	59.853388
2042.000000	59.899993
2041.000000	59.956894
2040.000000	60.027229
2039.000000	60.112970
2038.000000	60.210139
2037.000000	60.309528
2036.000000	60.403658
2035.000000	60.489280
2034.000000	60.563858
2033.000000	60.625676
2032.000000	60.678705
2031.000000	60.732459
2030.000000	60.794673
2029.000000	60.868904
2028.000000	60.957235
2027.000000	61.059904
2026.000000	61.170487
2025.000000	61.277477
2024.000000	61.372567
2023.000000	61.451760
2022.000000	61.511657
2021.000000	61.551941
2020.000000	61.582532
2019.000000	61.620860
2018.000000	61.679779
2017.000000	61.761657
2016.000000	61.862865
2015.000000	61.977068
2014.000000	62.093265
2013.000000	62.198531
2012.000000	62.286436
2011.000000	62.359587
2010.000000	62.423523
2009.000000	62.484045
2008.000000	62.549557
2007.000000	62.629352
2006.000000	62.725997
2005.000000	62.834118
2004.000000	62.948038
2003.000000	63.062991
2002.000000	63.172697
2001.000000	63.269612
2000.000000	63.353023
1999.000000	63.430653
1998.000000	63.506323
1997.000000	63.575890
1996.000000	63.637742
1995.000000	63.699492
1994.000000	63.769781
1993.000000	63.850438
1992.000000	63.938930
1991.000000	64.032545
1990.000000	64.127254
1989.000000	64.218320
1988.000000	64.304679
1987.000000	64.388624
1986.000000	64.470244
1985.000000	64.546572
1984.000000	64.617452
1983.000000	64.685377
1982.000000	64.750965
1981.000000	64.811579
1980.000000	64.868405
1979.000000	64.928080
1978.000000	64.993094
1977.000000	65.059725
1976.000000	65.125569
1975.000000	65.191791
1974.000000	65.255041
1973.000000	65.306037
1972.000000	65.339395
1971.000000	65.359080
1970.000000	65.373123
1969.000000	65.391129
1968.000000	65.426587
1967.000000	65.490291
1966.000000	65.577842
1965.000000	65.672091
1964.000000	65.758439
1963.000000	65.830317
1962.000000	65.882868
1961.000000	65.912875
1960.000000	65.926711
1959.000000	65.938644
1958.000000	65.959861
1957.000000	65.995804
1956.000000	66.051169
1955.000000	66.127941
1954.000000	66.215569
1953.000000	66.295917
1952.000000	66.356581
1951.000000	66.393303
1950.000000	66.406446
1949.000000	66.399516
1948.000000	66.381926
1947.000000	66.366373
1946.000000	66.362584
1945.000000	66.378833
1944.000000	66.424934
1943.000000	66.503423
1942.000000	66.597560
1941.000000	66.680691
1940.000000	66.739181
1939.000000	66.774743
1938.000000	66.790902
1937.000000	66.793261
1936.000000	66.797903
1935.000000	66.823780
1934.000000	66.873762
1933.000000	66.937191
1932.000000	67.003561
1931.000000	67.064949
1930.000000	67.114236
1929.000000	67.141560
1928.000000	67.145190
1927.000000	67.130128
1926.000000	67.105296
1925.000000	67.086797
1924.000000	67.088656
1923.000000	67.111832
1922.000000	67.143196
1921.000000	67.173385
1920.000000	67.207855
1919.000000	67.250266
1918.000000	67.290892
1917.000000	67.322735
1916.000000	67.355677
1915.000000	67.401464
1914.000000	67.449986
1913.000000	67.481254
1912.000000	67.492777
1911.000000	67.499952
1910.000000	67.514982
1909.000000	67.535692
1908.000000	67.563509
1907.000000	67.603248
1906.000000	67.652049
1905.000000	67.704168
1904.000000	67.755973
1903.000000	67.807290
1902.000000	67.853194
1901.000000	67.881056
1900.000000	67.885516
1899.000000	67.871492
1898.000000	67.846964
1897.000000	67.825512
1896.000000	67.824113
1895.000000	67.849241
1894.000000	67.885457
1893.000000	67.911053
1892.000000	67.921446
1891.000000	67.925941
1890.000000	67.928254
1889.000000	67.924348
1888.000000	67.917077
1887.000000	67.918318
1886.000000	67.933926
1885.000000	67.961354
1884.000000	68.000152
1883.000000	68.051923
1882.000000	68.108555
1881.000000	68.150476
1880.000000	68.167375
1879.000000	68.164476
1878.000000	68.146706
1877.000000	68.120475
1876.000000	68.100925
1875.000000	68.096705
1874.000000	68.095533
1873.000000	68.078412
1872.000000	68.043252
1871.000000	68.001643
1870.000000	67.960899
1869.000000	67.927880
1868.000000	67.919619
1867.000000	67.949362
1866.000000	68.008088
1865.000000	68.072380
1864.000000	68.129098
1863.000000	68.182206
1862.000000	68.235060
1861.000000	68.279997
1860.000000	68.309788
1859.000000	68.324089
1858.000000	68.319905
1857.000000	68.292586
1856.000000	68.251485
1855.000000	68.215933
1854.000000	68.198736
1853.000000	68.192066
1852.000000	68.189318
1851.000000	68.193579
1850.000000	68.187116
1849.000000	68.138324
1848.000000	68.046663
1847.000000	67.956279
1846.000000	67.906447
1845.000000	67.893351
1844.000000	67.893216
1843.000000	67.901791
1842.000000	67.929958
1841.000000	67.973055
1840.000000	68.010560
1839.000000	68.022629
1838.000000	68.008360
1837.000000	67.983144
1836.000000	67.953992
1835.000000	67.910807
1834.000000	67.838020
1833.000000	67.730237
1832.000000	67.609135
1831.000000	67.507332
1830.000000	67.433058
1829.000000	67.373797
1828.000000	67.329214
1827.000000	67.314596
1826.000000	67.326111
1825.000000	67.344594
1824.000000	67.368845
1823.000000	67.409082
1822.000000	67.452305
1821.000000	67.463819
1820.000000	67.428987
1819.000000	67.359484
1818.000000	67.267769
1817.000000	67.160856
1816.000000	67.048703
1815.000000	66.947711
1814.000000	66.861716
1813.000000	66.789380
1812.000000	66.744181
1811.000000	66.735187
1810.000000	66.746738
1809.000000	66.748849
1808.000000	66.723039
1807.000000	66.666576
1806.000000	66.577939
1805.000000	66.461879
1804.000000	66.337700
1803.000000	66.238191
1802.000000	66.182273
1801.000000	66.170802
1800.000000	66.199464
1799.000000	66.244126
1798.000000	66.257581
1797.000000	66.201321
1796.000000	66.083034
1795.000000	65.948850
1794.000000	65.832241
1793.000000	65.745891
1792.000000	65.713908
1791.000000	65.753467
1790.000000	65.838789
1789.000000	65.920221
1788.000000	65.964292
1787.000000	65.961458
1786.000000	65.907770
1785.000000	65.800839
1784.000000	65.653117
1783.000000	65.507994
1782.000000	65.394313
1781.000000	65.306882
1780.000000	65.241141
1779.000000	65.191269
1778.000000	65.131598
1777.000000	65.020482
1776.000000	64.855220
1775.000000	64.682405
1774.000000	64.528179
1773.000000	64.372350
1772.000000	64.224284
1771.000000	64.138655
1770.000000	64.138308
1769.000000	64.187992
1768.000000	64.225010
1767.000000	64.211764
1766.000000	64.150168
1765.000000	64.063534
1764.000000	63.975520
1763.000000	63.901929
1762.000000	63.833914
1761.000000	63.751006
1760.000000	63.656767
1759.000000	63.578358
1758.000000	63.523914
1757.000000	63.452822
1756.000000	63.340905
1755.000000	63.218737
1754.000000	63.113432
1753.000000	62.998798
1752.000000	62.836769
1751.000000	62.638499
1750.000000	62.460998
1749.000000	62.340029
1748.000000	62.263742
1747.000000	62.207859
1746.000000	62.135494
1745.000000	62.016761
1744.000000	61.862284
1743.000000	61.713529
1742.000000	61.602011
1741.000000	61.523977
1740.000000	61.439389
1739.000000	61.308986
1738.000000	61.138744
1737.000000	60.962908
1736.000000	60.790514
1735.000000	60.578613
1734.000000	60.297206
1733.000000	60.002574
1732.000000	59.788342
1731.000000	59.694936
1730.000000	59.679043
1729.000000	59.653245
1728.000000	59.569287
1727.000000	59.437622
1726.000000	59.257450
1725.000000	59.013641
1724.000000	58.715618
1723.000000	58.385545
1722.000000	58.037396
1721.000000	57.678250
1720.000000	57.323812
1719.000000	56.983441
1718.000000	56.656474
1717.000000	56.359538
1716.000000	56.126346
1715.000000	55.965079
1714.000000	55.831499
1713.000000	55.665519
1712.000000	55.444869
1711.000000	55.182201
1710.000000	54.880360
1709.000000	54.528804
1708.000000	54.153946
1707.000000	53.800772
1706.000000	53.468403
1705.000000	53.127922
1704.000000	52.800751
1703.000000	52.537402
1702.000000	52.303554
1701.000000	51.950703
1700.000000	51.441412
1699.000000	50.972001
1698.000000	50.692686
1697.000000	50.561260
1696.000000	50.434596
1695.000000	50.222728
1694.000000	49.967477
1693.000000	49.729220
1692.000000	49.501885
1691.000000	49.237403
1690.000000	48.907245
1689.000000	48.525149
1688.000000	48.144415
1687.000000	47.797655
1686.000000	47.443910
1685.000000	47.016295
1684.000000	46.562453
1683.000000	46.228445
1682.000000	46.048428
1681.000000	45.932946
1680.000000	45.789567
1679.000000	45.591644
1678.000000	45.359758
1677.000000	45.092639
1676.000000	44.756851
1675.000000	44.360785
1674.000000	43.964717
1673.000000	43.610215
1672.000000	43.301392
1671.000000	43.029967
1670.000000	42.794406
1669.000000	42.588273
1668.000000	42.398799
1667.000000	42.217047
1666.000000	42.021365
1665.000000	41.779879
1664.000000	41.474174
1663.000000	41.133700
1662.000000	40.814293
1661.000000	40.535835
1660.000000	40.285573
1659.000000	40.039984
1658.000000	39.769000
1657.000000	39.464138
1656.000000	39.156683
1655.000000	38.868144
1654.000000	38.565269
1653.000000	38.208480
1652.000000	37.826280
1651.000000	37.488537
1650.000000	37.219124
1649.000000	36.981252
1648.000000	36.742149
1647.000000	36.526822
1646.000000	36.366068
1645.000000	36.231122
1644.000000	36.084941
1643.000000	35.926671
1642.000000	35.745238
1641.000000	35.500076
1640.000000	35.185404
1639.000000	34.848742
1638.000000	34.535539
1637.000000	34.245890
1636.000000	33.982661
1635.000000	33.779220
1634.000000	33.641689
1633.000000	33.536779
1632.000000	33.428664
1631.000000	33.295097
1630.000000	33.121515
1629.000000	32.903371
1628.000000	32.658692
1627.000000	32.425907
1626.000000	32.225993
1625.000000	32.048757
1624.000000	31.885987
1623.000000	31.751969
1622.000000	31.652968
1621.000000	31.568647
1620.000000	31.488468
1619.000000	31.417243
1618.000000	31.344666
1617.000000	31.243347
1616.000000	31.114840
1615.000000	31.005039
1614.000000	30.943431
1613.000000	30.911518
1612.000000	30.876563
1611.000000	30.835311
1610.000000	30.807405
1609.000000	30.798173
1608.000000	30.795996
1607.000000	30.797379
1606.000000	30.800704
1605.000000	30.790527
1604.000000	30.760533
1603.000000	30.727658
1602.000000	30.709244
1601.000000	30.703349
1600.000000	30.704103
1599.000000	30.718177
1598.000000	30.749609
1597.000000	30.788196
1596.000000	30.825086
1595.000000	30.864375
1594.000000	30.906794
1593.000000	30.938275
1592.000000	30.948949
1591.000000	30.948665
1590.000000	30.951672
1589.000000	30.959312
1588.000000	30.971380
1587.000000	30.996767
1586.000000	31.042559
1585.000000	31.095303
1584.000000	31.139197
1583.000000	31.174686
1582.000000	31.194521
1581.000000	31.173712
1580.000000	31.107776
1579.000000	31.030228
1578.000000	30.971735
1577.000000	30.930833
1576.000000	30.891837
1575.000000	30.859166
1574.000000	30.847948
1573.000000	30.855171
1572.000000	30.862798
1571.000000	30.855294
1570.000000	30.838968
1569.000000	30.820958
1568.000000	30.800012
1567.000000	30.784628
1566.000000	30.782818
1565.000000	30.779175
1564.000000	30.759506
1563.000000	30.739287
1562.000000	30.732992
1561.000000	30.720841
1560.000000	30.689174
1559.000000	30.738715
1558.000000	30.917878
1557.000000	31.128053
1556.000000	31.329865
1555.000000	31.540889
1554.000000	31.744359
1553.000000	31.913931
1552.000000	32.069424
1551.000000	32.257767
1550.000000	32.494248
1549.000000	32.743354
1548.000000	32.959178
1547.000000	33.130631
1546.000000	33.262814
1545.000000	33.352949
1544.000000	33.409270
1543.000000	33.462298
1542.000000	33.560532
1541.000000	33.773807
1540.000000	34.150132
1539.000000	34.605140
1538.000000	34.993142
1537.000000	35.283732
1536.000000	35.532616
1535.000000	35.797384
1534.000000	36.108799
1533.000000	36.454258
1532.000000	36.794055
1531.000000	37.104370
1530.000000	37.390032
1529.000000	37.666426
1528.000000	37.955691
1527.000000	38.282668
1526.000000	38.639395
1525.000000	38.984684
1524.000000	39.315339
1523.000000	39.691897
1522.000000	40.168804
1521.000000	40.688101
1520.000000	41.132956
1519.000000	41.506823
1518.000000	41.909844
1517.000000	42.395960
1516.000000	42.929515
1515.000000	43.459682
1514.000000	43.975865
1513.000000	44.468214
1512.000000	44.896227
1511.000000	45.229578
1510.000000	45.482450
1509.000000	45.711083
1508.000000	46.024475
1507.000000	46.581727
1506.000000	47.340778
1505.000000	48.028577
1504.000000	48.544023
1503.000000	48.988103
1502.000000	49.433734
1501.000000	49.873342
1500.000000	50.285220
1499.000000	50.699085
1498.000000	51.158710
1497.000000	51.654936
1496.000000	52.114006
1495.000000	52.475671
1494.000000	52.744942
1493.000000	52.955008
1492.000000	53.144241
1491.000000	53.373970
1490.000000	53.708988
1489.000000	54.151406
1488.000000	54.642593
1487.000000	55.118887
1486.000000	55.531775
1485.000000	55.832479
1484.000000	56.016855
1483.000000	56.143463
1482.000000	56.264920
1481.000000	56.386720
1480.000000	56.495373
1479.000000	56.591266
1478.000000	56.659401
1477.000000	56.665855
1476.000000	56.602402
1475.000000	56.507354
1474.000000	56.406753
1473.000000	56.288000
1472.000000	56.157886
1471.000000	56.033477
1470.000000	55.878393
1469.000000	55.627300
1468.000000	55.247234
1467.000000	54.745810
1466.000000	54.123505
1465.000000	53.370211
1464.000000	52.550546
1463.000000	51.763738
1462.000000	51.021170
1461.000000	50.270973
1460.000000	49.504195
1459.000000	48.756530
1458.000000	48.014164
1457.000000	47.216626
1456.000000	46.400249
1455.000000	45.659154
1454.000000	44.948005
1453.000000	44.122416
1452.000000	43.115325
1451.000000	41.964728
1450.000000	40.679150
1449.000000	39.196551
1448.000000	37.525110
1447.000000	35.796589
1446.000000	34.087543
1445.000000	32.349604
1444.000000	30.550150
1443.000000	28.704347
1442.000000	26.804299
1441.000000	24.855701
1440.000000	22.934193
1439.000000	21.054446
1438.000000	19.036864
1437.000000	16.732904
1436.000000	14.419437
1435.000000	12.533631
1434.000000	11.097817
1433.000000	9.884811
1432.000000	8.817065
1431.000000	7.953584
1430.000000	7.301805
1429.000000	6.823699
1428.000000	6.562450
1427.000000	6.570633
1426.000000	6.801073
1425.000000	7.195840
1424.000000	7.777722
1423.000000	8.544423
1422.000000	9.409463
1421.000000	10.350086
1420.000000	11.484448
1419.000000	12.864196
1418.000000	14.302187
1417.000000	15.631005
1416.000000	16.909427
1415.000000	18.228633
1414.000000	19.563046
1413.000000	20.866451
1412.000000	22.168485
1411.000000	23.503725
1410.000000	24.834296
1409.000000	26.123327
1408.000000	27.402638
1407.000000	28.721282
1406.000000	30.090648
1405.000000	31.496299
1404.000000	32.902960
1403.000000	34.238562
1402.000000	35.455382
1401.000000	36.600021
1400.000000	37.762697
1399.000000	38.956173
1398.000000	40.115852
1397.000000	41.242313
1396.000000	42.432243
1395.000000	43.744521
1394.000000	45.107357
1393.000000	46.404578
1392.000000	47.593567
1391.000000	48.687432
1390.000000	49.709333
1389.000000	50.700026
1388.000000	51.698431
1387.000000	52.684475
1386.000000	53.592133
1385.000000	54.390136
1384.000000	55.091238
1383.000000	55.691904
1382.000000	56.167628
1381.000000	56.504855
1380.000000	56.685733
1379.000000	56.658502
1378.000000	56.360574
1377.000000	55.750697
1376.000000	54.785095
1375.000000	53.421183
1374.000000	51.692906
1373.000000	49.744449
1372.000000	47.749472
1371.000000	45.849261
1370.000000	44.194755
1369.000000	42.984690
1368.000000	42.403689
1367.000000	42.508699
1366.000000	43.219342
1365.000000	44.410691
1364.000000	45.972722
1363.000000	47.787636
1362.000000	49.691933
1361.000000	51.517353
1360.000000	53.157699
1359.000000	54.566083
1358.000000	55.713692
1357.000000	56.566681
1356.000000	57.077438
1355.000000	57.196365
1354.000000	56.897934
1353.000000	56.191148
1352.000000	55.106239
1351.000000	53.680615
1350.000000	51.960049
1349.000000	49.994901
1348.000000	47.820606
1347.000000	45.453824
1346.000000	42.905465
1345.000000	40.196928
1344.000000	37.374527
1343.000000	34.498276
1342.000000	31.616189
1341.000000	28.773730
1340.000000	26.067180
1339.000000	23.660412
1338.000000	21.708433
1337.000000	20.267965
1336.000000	19.297925
1335.000000	18.699228
1334.000000	18.321082
1333.000000	17.976573
1332.000000	17.489009
1331.000000	16.734974
1330.000000	15.660825
1329.000000	14.282091
1328.000000	12.680325
1327.000000	10.983482
1326.000000	9.322339
1325.000000	7.798459
1324.000000	6.488455
1323.000000	5.447848
1322.000000	4.688685
1321.000000	4.174910
1320.000000	3.855760
1319.000000	3.681668
1318.000000	3.594328
1317.000000	3.534185
1316.000000	3.468948
1315.000000	3.399218
1314.000000	3.328088
1313.000000	3.251013
1312.000000	3.175609
1311.000000	3.122372
1310.000000	3.102119
1309.000000	3.113408
1308.000000	3.166328
1307.000000	3.284452
1306.000000	3.478749
1305.000000	3.743904
1304.000000	4.079264
1303.000000	4.490312
1302.000000	4.968599
1301.000000	5.491522
1300.000000	6.047038
1299.000000	6.635835
1298.000000	7.251023
1297.000000	7.877632
1296.000000	8.509868
1295.000000	9.150520
1294.000000	9.792544
1293.000000	10.419743
1292.000000	11.024439
1291.000000	11.607546
1290.000000	12.160449
1289.000000	12.663109
1288.000000	13.096697
1287.000000	13.441451
1286.000000	13.670307
1285.000000	13.763818
1284.000000	13.740073
1283.000000	13.661828
1282.000000	13.610922
1281.000000	13.660370
1280.000000	13.860175
1279.000000	14.224385
1278.000000	14.724373
1277.000000	15.310588
1276.000000	15.943182
1275.000000	16.598627
1274.000000	17.257488
1273.000000	17.901718
1272.000000	18.523156
1271.000000	19.119396
1270.000000	19.683030
1269.000000	20.206212
1268.000000	20.693379
1267.000000	21.157976
1266.000000	21.609749
1265.000000	22.053716
1264.000000	22.497272
1263.000000	22.948041
1262.000000	23.404418
1261.000000	23.857857
1260.000000	24.302239
1259.000000	24.733346
1258.000000	25.144159
1257.000000	25.529458
1256.000000	25.893644
1255.000000	26.247185
1254.000000	26.597872
1253.000000	26.951115
1252.000000	27.313896
1251.000000	27.690842
1250.000000	28.078160
1249.000000	28.466708
1248.000000	28.849224
1247.000000	29.220280
1246.000000	29.573257
1245.000000	29.903773
1244.000000	30.214395
1243.000000	30.512373
1242.000000	30.804426
1241.000000	31.096902
1240.000000	31.397426
1239.000000	31.710950
1238.000000	32.035673
1237.000000	32.365300
1236.000000	32.693109
1235.000000	33.011843
1234.000000	33.313176
1233.000000	33.591834
1232.000000	33.849130
1231.000000	34.091383
1230.000000	34.327477
1229.000000	34.568308
1228.000000	34.824841
1227.000000	35.103117
1226.000000	35.401591
1225.000000	35.713584
1224.000000	36.029725
1223.000000	36.338085
1222.000000	36.626699
1221.000000	36.889328
1220.000000	37.128469
1219.000000	37.352924
1218.000000	37.574563
1217.000000	37.806306
1216.000000	38.058490
1215.000000	38.334600
1214.000000	38.630542
1213.000000	38.937357
1212.000000	39.242965
1211.000000	39.533411
1210.000000	39.797751
1209.000000	40.033206
1208.000000	40.245126
1207.000000	40.443902
1206.000000	40.643115
1205.000000	40.857379
1204.000000	41.096804
1203.000000	41.362319
1202.000000	41.646836
1201.000000	41.938738
1200.000000	42.223375
1199.000000	42.484719
1198.000000	42.710477
1197.000000	42.896503
1196.000000	43.044089
1195.000000	43.156994
1194.000000	43.240783
1193.000000	43.299861
1192.000000	43.332792
1191.000000	43.330131
1190.000000	43.282665
1189.000000	43.191439
1188.000000	43.071214
1187.000000	42.948868
1186.000000	42.857568
1185.000000	42.826423
1184.000000	42.870568
1183.000000	42.990388
1182.000000	43.177516
1181.000000	43.422914
1180.000000	43.717380
1179.000000	44.048634
1178.000000	44.402624
1177.000000	44.763241
1176.000000	45.111553
1175.000000	45.428696
1174.000000	45.703548
1173.000000	45.936223
1172.000000	46.134578
1171.000000	46.311406
1170.000000	46.485080
1169.000000	46.675658
1168.000000	46.894983
1167.000000	47.142902
1166.000000	47.412134
1165.000000	47.691755
1164.000000	47.965883
1163.000000	48.216800
1162.000000	48.434852
1161.000000	48.622274
1160.000000	48.787183
1159.000000	48.940076
1158.000000	49.095713
1157.000000	49.270150
1156.000000	49.471313
1155.000000	49.695966
1154.000000	49.936236
1153.000000	50.182643
1152.000000	50.420873
1151.000000	50.634638
1150.000000	50.816459
1149.000000	50.971172
1148.000000	51.107402
1147.000000	51.233074
1146.000000	51.359563
1145.000000	51.500310
1144.000000	51.661657
1143.000000	51.840183
1142.000000	52.030232
1141.000000	52.227090
1140.000000	52.421706
1139.000000	52.601249
1138.000000	52.757976
1137.000000	52.891981
1136.000000	53.005107
1135.000000	53.100282
1134.000000	53.188269
1133.000000	53.285619
1132.000000	53.403242
1131.000000	53.542993
1130.000000	53.704681
1129.000000	53.886966
1128.000000	54.079679
1127.000000	54.264414
1126.000000	54.426567
1125.000000	54.560996
1124.000000	54.667253
1123.000000	54.749781
1122.000000	54.824378
1121.000000	54.913883
1120.000000	55.033153
1119.000000	55.183785
1118.000000	55.361619
1117.000000	55.558809
1116.000000	55.757539
1115.000000	55.933717
1114.000000	56.072623
1113.000000	56.175398
1112.000000	56.250980
1111.000000	56.312719
1110.000000	56.382367
1109.000000	56.483921
1108.000000	56.627821
1107.000000	56.806497
1106.000000	57.004802
1105.000000	57.205052
1104.000000	57.383622
1103.000000	57.517684
1102.000000	57.601519
1101.000000	57.649389
1100.000000	57.681556
1099.000000	57.717811
1098.000000	57.780969
1097.000000	57.890625
1096.000000	58.048007
1095.000000	58.235026
1094.000000	58.430032
1093.000000	58.616075
1092.000000	58.776499
1091.000000	58.898354
1090.000000	58.985590
1089.000000	59.058546
1088.000000	59.137445
1087.000000	59.234934
1086.000000	59.361772
1085.000000	59.524461
1084.000000	59.713496
1083.000000	59.905624
1082.000000	60.081264
1081.000000	60.232014
1080.000000	60.353051
1079.000000	60.442033
1078.000000	60.507834
1077.000000	60.565616
1076.000000	60.621252
1075.000000	60.670031
1074.000000	60.707989
1073.000000	60.732885
1072.000000	60.730530
1071.000000	60.675835
1070.000000	60.548472
1069.000000	60.332581
1068.000000	60.007867
1067.000000	59.552494
1066.000000	58.964778
1065.000000	58.275329
1064.000000	57.540138
1063.000000	56.835502
1062.000000	56.252686
1061.000000	55.875312
1060.000000	55.746593
1059.000000	55.862467
1058.000000	56.182363
1057.000000	56.646125
1056.000000	57.184119
1055.000000	57.727392
1054.000000	58.229369
1053.000000	58.669587
1052.000000	59.043529
1051.000000	59.359216
1050.000000	59.642959
1049.000000	59.930563
1048.000000	60.244373
1047.000000	60.584376
1046.000000	60.938348
1045.000000	61.288201
1044.000000	61.604521
1043.000000	61.855349
1042.000000	62.028373
1041.000000	62.137282
1040.000000	62.208540
1039.000000	62.273039
1038.000000	62.367810
1037.000000	62.525425
1036.000000	62.752611
1035.000000	63.027286
1034.000000	63.316063
1033.000000	63.585990
1032.000000	63.804135
1031.000000	63.946765
1030.000000	64.017997
1029.000000	64.049221
1028.000000	64.078107
1027.000000	64.136264
1026.000000	64.250587
1025.000000	64.435604
1024.000000	64.677803
1023.000000	64.939370
1022.000000	65.182508
1021.000000	65.382891
1020.000000	65.525124
1019.000000	65.605314
1018.000000	65.642474
1017.000000	65.672109
1016.000000	65.722811
1015.000000	65.807913
1014.000000	65.934138
1013.000000	66.100990
1012.000000	66.290280
1011.000000	66.472753
1010.000000	66.629895
1009.000000	66.760124
1008.000000	66.865506
1007.000000	66.947975
1006.000000	67.018788
1005.000000	67.095080
1004.000000	67.183218
1003.000000	67.277222
1002.000000	67.374297
1001.000000	67.478374
1000.000000	67.589196
999.000000	67.702175
998.000000	67.820276
997.000000	67.951256
996.000000	68.091566
995.000000	68.225431
994.000000	68.340998
993.000000	68.434610
992.000000	68.501364
991.000000	68.538184
990.000000	68.558834
989.000000	68.591493
988.000000	68.658149
987.000000	68.766327
986.000000	68.916675
985.000000	69.101243
984.000000	69.292493
983.000000	69.450790
982.000000	69.549614
981.000000	69.586207
980.000000	69.572310
979.000000	69.531199
978.000000	69.502471
977.000000	69.529314
976.000000	69.632405
975.000000	69.802061
974.000000	70.012360
973.000000	70.228449
972.000000	70.404775
971.000000	70.499653
970.000000	70.502642
969.000000	70.439508
968.000000	70.351929
967.000000	70.284134
966.000000	70.280512
965.000000	70.370655
964.000000	70.547435
963.000000	70.769370
962.000000	70.986221
961.000000	71.155575
960.000000	71.243765
959.000000	71.236564
958.000000	71.156621
957.000000	71.055914
956.000000	70.984998
955.000000	70.976104
954.000000	71.046644
953.000000	71.194593
952.000000	71.386618
951.000000	71.569067
950.000000	71.699810
949.000000	71.762688
948.000000	71.758468
947.000000	71.701544
946.000000	71.626124
945.000000	71.574357
944.000000	71.570970
943.000000	71.616413
942.000000	71.700223
941.000000	71.805791
940.000000	71.905001
939.000000	71.969440
938.000000	71.992624
937.000000	71.989140
936.000000	71.972550
935.000000	71.949245
934.000000	71.929829
933.000000	71.925641
932.000000	71.931509
931.000000	71.929933
930.000000	71.913493
929.000000	71.889659
928.000000	71.865446
927.000000	71.844094
926.000000	71.835223
925.000000	71.847805
924.000000	71.870183
923.000000	71.872863
922.000000	71.832944
921.000000	71.743365
920.000000	71.602388
919.000000	71.416531
918.000000	71.214977
917.000000	71.040033
916.000000	70.918048
915.000000	70.848594
914.000000	70.815943
913.000000	70.792518
912.000000	70.731449
911.000000	70.581856
910.000000	70.321520
909.000000	69.967223
908.000000	69.556118
907.000000	69.131234
906.000000	68.739927
905.000000	68.418298
904.000000	68.165999
903.000000	67.946563
902.000000	67.710422
901.000000	67.410319
900.000000	67.003581
899.000000	66.466268
898.000000	65.814434
897.000000	65.096239
896.000000	64.362458
895.000000	63.648773
894.000000	62.974081
893.000000	62.336054
892.000000	61.702295
891.000000	61.023275
890.000000	60.259401
889.000000	59.390845
888.000000	58.412481
887.000000	57.333611
886.000000	56.182710
885.000000	54.995703
884.000000	53.793322
883.000000	52.578740
882.000000	51.346861
881.000000	50.087457
880.000000	48.784187
879.000000	47.422525
878.000000	46.002202
877.000000	44.534791
876.000000	43.034098
875.000000	41.515122
874.000000	39.997256
873.000000	38.500695
872.000000	37.040848
871.000000	35.629760
870.000000	34.277899
869.000000	32.994569
868.000000	31.785664
867.000000	30.654352
866.000000	29.601376
865.000000	28.622197
864.000000	27.711616
863.000000	26.865859
862.000000	26.082095
861.000000	25.358540
860.000000	24.693618
859.000000	24.087997
858.000000	23.540716
857.000000	23.047645
856.000000	22.605793
855.000000	22.212882
854.000000	21.866266
853.000000	21.562347
852.000000	21.300054
851.000000	21.083495
850.000000	20.916436
849.000000	20.801933
848.000000	20.745827
847.000000	20.757094
846.000000	20.845010
845.000000	21.013956
844.000000	21.266929
843.000000	21.607363
842.000000	22.034147
841.000000	22.540796
840.000000	23.117641
839.000000	23.759333
838.000000	24.465124
837.000000	25.233112
836.000000	26.059665
835.000000	26.940623
834.000000	27.865941
833.000000	28.798623
832.000000	29.650474
831.000000	30.231796
830.000000	30.208937
829.000000	29.138513
828.000000	26.710108
827.000000	23.131322
826.000000	19.281469
825.000000	16.346648
824.000000	15.141659
823.000000	15.695078
822.000000	17.427924
821.000000	19.664735
820.000000	21.954640
819.000000	24.077834
818.000000	25.953085
817.000000	27.578040
816.000000	29.000506
815.000000	30.267359
814.000000	31.407220
813.000000	32.448330
812.000000	33.426438
811.000000	34.362288
810.000000	35.256424
809.000000	36.107745
808.000000	36.916765
807.000000	37.676323
806.000000	38.375994
805.000000	39.019661
804.000000	39.622189
803.000000	40.191234
802.000000	40.731688
801.000000	41.261135
800.000000	41.803088
799.000000	42.366254
798.000000	42.944364
797.000000	43.531541
796.000000	44.121336
795.000000	44.697500
794.000000	45.243402
793.000000	45.757584
792.000000	46.248511
791.000000	46.721476
790.000000	47.183355
789.000000	47.650553
788.000000	48.136219
787.000000	48.635668
786.000000	49.135783
785.000000	49.630678
784.000000	50.117111
783.000000	50.585052
782.000000	51.027028
781.000000	51.448734
780.000000	51.858305
779.000000	52.254518
778.000000	52.636316
777.000000	53.013523
776.000000	53.395164
775.000000	53.776459
774.000000	54.149282
773.000000	54.515802
772.000000	54.881038
771.000000	55.241750
770.000000	55.593039
769.000000	55.935847
768.000000	56.267125
767.000000	56.574012
766.000000	56.848809
765.000000	57.099258
764.000000	57.336133
763.000000	57.563010
762.000000	57.787525
761.000000	58.027756
760.000000	58.295028
759.000000	58.581154
758.000000	58.871471
757.000000	59.157201
756.000000	59.426347
755.000000	59.659361
754.000000	59.848729
753.000000	60.011560
752.000000	60.172983
751.000000	60.349307
750.000000	60.554158
749.000000	60.802747
748.000000	61.095494
747.000000	61.409200
746.000000	61.714857
745.000000	61.992641
744.000000	62.224715
743.000000	62.395190
742.000000	62.511532
741.000000	62.610360
740.000000	62.728724
739.000000	62.881175
738.000000	63.069971
737.000000	63.295212
736.000000	63.540661
735.000000	63.767322
734.000000	63.938806
733.000000	64.042945
732.000000	64.082650
731.000000	64.066183
730.000000	64.018410
729.000000	63.980946
728.000000	63.984157
727.000000	64.029699
726.000000	64.106521
725.000000	64.205872
724.000000	64.311667
723.000000	64.398448
722.000000	64.456225
721.000000	64.503830
720.000000	64.566703
719.000000	64.658235
718.000000	64.791841
717.000000	64.987251
716.000000	65.246381
715.000000	65.540068
714.000000	65.834125
713.000000	66.113098
712.000000	66.369430
711.000000	66.592990
710.000000	66.788730
709.000000	66.983929
708.000000	67.201265
707.000000	67.440152
706.000000	67.693291
705.000000	67.958567
704.000000	68.221437
703.000000	68.449105
702.000000	68.622391
701.000000	68.756997
700.000000	68.879709
699.000000	69.005985
698.000000	69.150665
697.000000	69.333513
696.000000	69.553656
695.000000	69.778273
694.000000	69.975572
693.000000	70.139965
692.000000	70.272462
691.000000	70.368085
690.000000	70.441207
689.000000	70.536649
688.000000	70.690419
687.000000	70.896097
686.000000	71.129389
685.000000	71.374970
684.000000	71.607862
683.000000	71.785491
682.000000	71.889008
681.000000	71.947337
680.000000	72.000987
679.000000	72.069730
678.000000	72.174853
677.000000	72.347874
676.000000	72.590705
675.000000	72.863595
674.000000	73.120953
673.000000	73.334175
672.000000	73.486895
671.000000	73.584183
670.000000	73.670276
669.000000	73.822617
668.000000	74.059894
667.000000	74.254860
666.000000	74.347137
665.000000	74.430985
664.000000	74.574287
663.000000	74.756903
662.000000	74.920032
661.000000	75.026282
660.000000	75.079519
659.000000	75.107306
658.000000	75.152308
657.000000	75.256356
656.000000	75.432221
655.000000	75.661124
654.000000	75.909323
653.000000	76.140816
652.000000	76.324925
651.000000	76.445225
650.000000	76.510724
649.000000	76.551446
648.000000	76.599315
647.000000	76.678855
646.000000	76.808123
645.000000	76.991824
644.000000	77.206521
643.000000	77.406532
642.000000	77.557451
641.000000	77.656582
640.000000	77.719070
639.000000	77.764575
638.000000	77.822184
637.000000	77.925273
636.000000	78.088052
635.000000	78.294543
634.000000	78.515497
633.000000	78.722618
632.000000	78.884823
631.000000	78.976582
630.000000	79.005641
629.000000	79.014941
628.000000	79.049736
627.000000	79.137861
626.000000	79.296783
625.000000	79.529414
624.000000	79.800867
623.000000	80.044547
622.000000	80.209044
621.000000	80.285434
620.000000	80.286994
619.000000	80.236687
618.000000	80.185488
617.000000	80.205896
616.000000	80.339901
615.000000	80.568938
614.000000	80.839460
613.000000	81.093641
612.000000	81.269205
611.000000	81.309231
610.000000	81.196883
609.000000	80.958828
608.000000	80.624643
607.000000	80.193643
606.000000	79.639258
605.000000	78.889732
604.000000	77.774183
603.000000	76.022291
602.000000	73.316429
601.000000	69.405110
600.000000	64.271638
599.000000	58.331642
598.000000	52.454319
597.000000	47.670450
596.000000	44.769369
595.000000	44.035227
594.000000	45.206598
593.000000	47.661780
592.000000	50.744725
591.000000	53.944630
590.000000	56.930993
589.000000	59.570719
588.000000	61.871290
587.000000	63.891928
586.000000	65.686766
585.000000	67.300085
584.000000	68.755901
583.000000	70.057410
582.000000	71.205696
581.000000	72.212639
580.000000	73.081378
579.000000	73.794439
578.000000	74.365102
577.000000	74.864817
576.000000	75.370694
575.000000	75.905091
574.000000	76.442241
573.000000	76.952536
572.000000	77.402499
571.000000	77.745960
570.000000	77.963554
569.000000	78.093104
568.000000	78.195741
567.000000	78.317303
566.000000	78.497579
565.000000	78.776197
564.000000	79.151600
563.000000	79.559258
562.000000	79.915768
561.000000	80.168156
560.000000	80.290783
559.000000	80.279859
558.000000	80.187243
557.000000	80.119558
556.000000	80.168307
555.000000	80.357533
554.000000	80.663229
553.000000	81.040843
552.000000	81.413403
551.000000	81.677427
550.000000	81.769406
549.000000	81.710276
548.000000	81.568344
547.000000	81.420869
546.000000	81.360499
545.000000	81.472517
544.000000	81.765056
543.000000	82.154035
542.000000	82.533671
541.000000	82.833088
540.000000	82.998900
539.000000	82.989597
538.000000	82.831845
537.000000	82.638341
536.000000	82.529352
535.000000	82.563558
534.000000	82.748539
533.000000	83.060872
532.000000	83.425482
531.000000	83.720562
530.000000	83.854339
529.000000	83.818826
528.000000	83.657374
527.000000	83.434615
526.000000	83.254168
525.000000	83.219052
524.000000	83.327896
523.000000	83.460700
522.000000	83.485815
521.000000	83.327488
520.000000	82.938458
519.000000	82.291755
518.000000	81.448073
517.000000	80.579457
516.000000	79.870726
515.000000	79.426840
514.000000	79.275910
513.000000	79.392487
512.000000	79.674229
511.000000	79.948268
510.000000	80.058629
509.000000	79.937025
508.000000	79.564279
507.000000	78.918373
506.000000	77.985717
505.000000	76.765325
504.000000	75.253911
503.000000	73.513965
502.000000	71.794295
501.000000	70.460700
500.000000	69.754022
499.000000	69.688811
498.000000	70.164528
497.000000	71.040869
496.000000	72.126877
495.000000	73.203968
494.000000	74.107387
493.000000	74.786487
492.000000	75.265298
491.000000	75.595649
490.000000	75.859424
489.000000	76.158015
488.000000	76.554636
487.000000	77.062720
486.000000	77.704230
485.000000	78.524930
484.000000	79.510363
483.000000	80.529069
482.000000	81.411762
481.000000	82.053196
480.000000	82.408749
479.000000	82.479765
478.000000	82.360502
477.000000	82.229517
476.000000	82.225906
475.000000	82.374691
474.000000	82.666036
473.000000	83.115029
472.000000	83.666262
471.000000	84.126093
470.000000	84.318888
469.000000	84.245932
468.000000	84.025008
467.000000	83.777660
466.000000	83.605475
465.000000	83.590904
464.000000	83.752628
463.000000	84.018114
462.000000	84.276431
461.000000	84.442709
460.000000	84.454775
459.000000	84.281393
458.000000	84.012773
457.000000	83.839216
456.000000	83.823381
455.000000	83.841095
454.000000	83.797437
453.000000	83.732200
452.000000	83.692779
451.000000	83.614147
450.000000	83.406772
449.000000	83.077157
448.000000	82.671316
447.000000	82.167861
446.000000	81.499381
445.000000	80.597410
444.000000	79.350741
443.000000	77.618955
442.000000	75.373606
441.000000	72.762279
440.000000	69.968742
439.000000	67.133030
438.000000	64.432324
437.000000	62.168987
436.000000	60.682512
435.000000	60.146708
434.000000	60.474335
433.000000	61.448631
432.000000	62.884620
431.000000	64.585336
430.000000	66.352631
429.000000	68.118853
428.000000	69.923822
427.000000	71.759069
426.000000	73.562800
425.000000	75.338673
424.000000	77.066758
423.000000	78.539934
422.000000	79.512654
421.000000	79.984103
420.000000	80.148561
419.000000	80.249505
418.000000	80.533384
417.000000	81.114907
416.000000	81.926550
415.000000	82.801745
414.000000	83.599972
413.000000	84.304718
412.000000	84.890505
411.000000	85.187693
410.000000	85.100349
409.000000	84.823201
408.000000	84.594257
407.000000	84.427878
406.000000	84.335327
405.000000	84.470816
404.000000	84.915616
403.000000	85.398622
402.000000	85.605940
401.000000	85.564768
400.000000	85.422227
