PE IR       SUBTECH     SPECTRUM    ASCII       PEDS        4.00        
   -1
23MS119_nitro.asc
24/09/12
16:00:25.00
24/09/12
16:00:25.00
Administrator
Sample 1173 By Administrator Date Thursday, September 12 2024
400.000000
#HDR
-1
-1
#GR
cm-1
%T
1.0
0.0
4000.000000
-1.000000
3601
8
81.011533
1.553910
#DATA
4000.000000	56.361533
3999.000000	56.414789
3998.000000	56.468497
3997.000000	56.522598
3996.000000	56.576436
3995.000000	56.629426
3994.000000	56.681844
3993.000000	56.734588
3992.000000	56.787978
3991.000000	56.840948
3990.000000	56.891860
3989.000000	56.940418
3988.000000	56.988289
3987.000000	57.037407
3986.000000	57.088014
3985.000000	57.138627
3984.000000	57.187692
3983.000000	57.234750
3982.000000	57.280367
3981.000000	57.325592
3980.000000	57.371543
3979.000000	57.419215
3978.000000	57.468861
3977.000000	57.519243
3976.000000	57.568130
3975.000000	57.613723
3974.000000	57.655920
3973.000000	57.696220
3972.000000	57.736365
3971.000000	57.777267
3970.000000	57.818562
3969.000000	57.859526
3968.000000	57.900362
3967.000000	57.942173
3966.000000	57.985945
3965.000000	58.031667
3964.000000	58.078307
3963.000000	58.124221
3962.000000	58.168193
3961.000000	58.210004
3960.000000	58.250582
3959.000000	58.291606
3958.000000	58.333704
3957.000000	58.376323
3956.000000	58.419368
3955.000000	58.464065
3954.000000	58.512116
3953.000000	58.563553
3952.000000	58.616373
3951.000000	58.667678
3950.000000	58.714909
3949.000000	58.757183
3948.000000	58.796247
3947.000000	58.836321
3946.000000	58.881815
3945.000000	58.933719
3944.000000	58.987306
3943.000000	59.034130
3942.000000	59.070123
3941.000000	59.100347
3940.000000	59.133753
3939.000000	59.175198
3938.000000	59.221548
3937.000000	59.267298
3936.000000	59.312616
3935.000000	59.362158
3934.000000	59.418047
3933.000000	59.474325
3932.000000	59.522814
3931.000000	59.561887
3930.000000	59.596687
3929.000000	59.634944
3928.000000	59.680622
3927.000000	59.732325
3926.000000	59.784278
3925.000000	59.828897
3924.000000	59.864127
3923.000000	59.896453
3922.000000	59.934127
3921.000000	59.979506
3920.000000	60.028194
3919.000000	60.074938
3918.000000	60.117673
3917.000000	60.156114
3916.000000	60.190201
3915.000000	60.220755
3914.000000	60.251548
3913.000000	60.286345
3912.000000	60.324939
3911.000000	60.366381
3910.000000	60.411903
3909.000000	60.466101
3908.000000	60.533491
3907.000000	60.610805
3906.000000	60.687050
3905.000000	60.749241
3904.000000	60.793593
3903.000000	60.829957
3902.000000	60.870062
3901.000000	60.915809
3900.000000	60.957550
3899.000000	60.983547
3898.000000	60.994571
3897.000000	61.004529
3896.000000	61.027289
3895.000000	61.068087
3894.000000	61.121135
3893.000000	61.175778
3892.000000	61.221954
3891.000000	61.255697
3890.000000	61.282180
3889.000000	61.313697
3888.000000	61.362714
3887.000000	61.427717
3886.000000	61.488205
3885.000000	61.527297
3884.000000	61.553935
3883.000000	61.590588
3882.000000	61.642540
3881.000000	61.689417
3880.000000	61.710945
3879.000000	61.714033
3878.000000	61.725471
3877.000000	61.764229
3876.000000	61.825956
3875.000000	61.888598
3874.000000	61.933785
3873.000000	61.965657
3872.000000	62.004703
3871.000000	62.060214
3870.000000	62.115646
3869.000000	62.152771
3868.000000	62.177383
3867.000000	62.210744
3866.000000	62.260871
3865.000000	62.309186
3864.000000	62.336042
3863.000000	62.347790
3862.000000	62.363902
3861.000000	62.394331
3860.000000	62.436714
3859.000000	62.489814
3858.000000	62.560623
3857.000000	62.653741
3856.000000	62.758982
3855.000000	62.846283
3854.000000	62.892753
3853.000000	62.914856
3852.000000	62.935260
3851.000000	62.952451
3850.000000	62.959889
3849.000000	62.958328
3848.000000	62.952375
3847.000000	62.953453
3846.000000	62.973357
3845.000000	63.014009
3844.000000	63.066951
3843.000000	63.121544
3842.000000	63.174210
3841.000000	63.230096
3840.000000	63.289250
3839.000000	63.344944
3838.000000	63.395617
3837.000000	63.443658
3836.000000	63.488360
3835.000000	63.524836
3834.000000	63.550570
3833.000000	63.567947
3832.000000	63.580385
3831.000000	63.593003
3830.000000	63.613912
3829.000000	63.648190
3828.000000	63.693112
3827.000000	63.740781
3826.000000	63.783865
3825.000000	63.825469
3824.000000	63.876981
3823.000000	63.944166
3822.000000	64.014612
3821.000000	64.065512
3820.000000	64.092400
3819.000000	64.115895
3818.000000	64.155839
3817.000000	64.206404
3816.000000	64.243693
3815.000000	64.260589
3814.000000	64.277366
3813.000000	64.310070
3812.000000	64.351662
3811.000000	64.387794
3810.000000	64.416573
3809.000000	64.448333
3808.000000	64.491370
3807.000000	64.540734
3806.000000	64.586468
3805.000000	64.631784
3804.000000	64.687013
3803.000000	64.754478
3802.000000	64.815210
3801.000000	64.851540
3800.000000	64.875443
3799.000000	64.909379
3798.000000	64.955327
3797.000000	64.992768
3796.000000	65.006197
3795.000000	65.006488
3794.000000	65.018082
3793.000000	65.050365
3792.000000	65.092403
3791.000000	65.131898
3790.000000	65.167619
3789.000000	65.205312
3788.000000	65.249014
3787.000000	65.297884
3786.000000	65.348215
3785.000000	65.395631
3784.000000	65.437802
3783.000000	65.478072
3782.000000	65.522427
3781.000000	65.571222
3780.000000	65.616862
3779.000000	65.653477
3778.000000	65.684941
3777.000000	65.720345
3776.000000	65.763450
3775.000000	65.810347
3774.000000	65.855955
3773.000000	65.900149
3772.000000	65.947561
3771.000000	66.000209
3770.000000	66.051970
3769.000000	66.096631
3768.000000	66.137269
3767.000000	66.180882
3766.000000	66.226329
3765.000000	66.263213
3764.000000	66.289798
3763.000000	66.321234
3762.000000	66.371393
3761.000000	66.434799
3760.000000	66.492121
3759.000000	66.536728
3758.000000	66.578858
3757.000000	66.625514
3756.000000	66.674753
3755.000000	66.723784
3754.000000	66.773830
3753.000000	66.824612
3752.000000	66.874961
3751.000000	66.934889
3750.000000	67.015217
3749.000000	67.106091
3748.000000	67.189823
3747.000000	67.262959
3746.000000	67.326518
3745.000000	67.368316
3744.000000	67.381530
3743.000000	67.385544
3742.000000	67.402127
3741.000000	67.432926
3740.000000	67.464932
3739.000000	67.492068
3738.000000	67.527727
3737.000000	67.587905
3736.000000	67.669352
3735.000000	67.747312
3734.000000	67.806244
3733.000000	67.851918
3732.000000	67.888078
3731.000000	67.910588
3730.000000	67.921188
3729.000000	67.932459
3728.000000	67.955623
3727.000000	67.987689
3726.000000	68.020870
3725.000000	68.057530
3724.000000	68.106285
3723.000000	68.164401
3722.000000	68.217787
3721.000000	68.260213
3720.000000	68.296043
3719.000000	68.332197
3718.000000	68.369638
3717.000000	68.405220
3716.000000	68.440711
3715.000000	68.480795
3714.000000	68.527483
3713.000000	68.577947
3712.000000	68.630917
3711.000000	68.691446
3710.000000	68.761531
3709.000000	68.832224
3708.000000	68.889408
3707.000000	68.926268
3706.000000	68.948738
3705.000000	68.968620
3704.000000	68.994194
3703.000000	69.026174
3702.000000	69.061719
3701.000000	69.100335
3700.000000	69.142740
3699.000000	69.189267
3698.000000	69.238821
3697.000000	69.286269
3696.000000	69.326906
3695.000000	69.364162
3694.000000	69.407264
3693.000000	69.461554
3692.000000	69.522061
3691.000000	69.580226
3690.000000	69.635038
3689.000000	69.693187
3688.000000	69.754124
3687.000000	69.805397
3686.000000	69.840152
3685.000000	69.861191
3684.000000	69.871455
3683.000000	69.875727
3682.000000	69.886241
3681.000000	69.914017
3680.000000	69.958408
3679.000000	70.007035
3678.000000	70.053283
3677.000000	70.103626
3676.000000	70.164390
3675.000000	70.233352
3674.000000	70.300720
3673.000000	70.362627
3672.000000	70.418958
3671.000000	70.461286
3670.000000	70.480166
3669.000000	70.488060
3668.000000	70.507279
3667.000000	70.537116
3666.000000	70.557288
3665.000000	70.557328
3664.000000	70.547381
3663.000000	70.548025
3662.000000	70.570244
3661.000000	70.607824
3660.000000	70.650022
3659.000000	70.689155
3658.000000	70.721837
3657.000000	70.748013
3656.000000	70.772867
3655.000000	70.805227
3654.000000	70.847998
3653.000000	70.895390
3652.000000	70.934566
3651.000000	70.950865
3650.000000	70.946580
3649.000000	70.951505
3648.000000	70.990291
3647.000000	71.045152
3646.000000	71.078972
3645.000000	71.078661
3644.000000	71.057401
3643.000000	71.031899
3642.000000	71.007584
3641.000000	70.985498
3640.000000	70.971572
3639.000000	70.970534
3638.000000	70.978047
3637.000000	70.985836
3636.000000	70.993250
3635.000000	71.005903
3634.000000	71.024936
3633.000000	71.047059
3632.000000	71.069908
3631.000000	71.090512
3630.000000	71.100780
3629.000000	71.099588
3628.000000	71.102082
3627.000000	71.119374
3626.000000	71.139179
3625.000000	71.141729
3624.000000	71.122544
3623.000000	71.096023
3622.000000	71.080370
3621.000000	71.079271
3620.000000	71.080460
3619.000000	71.074796
3618.000000	71.067407
3617.000000	71.064372
3616.000000	71.062220
3615.000000	71.051785
3614.000000	71.027006
3613.000000	70.992801
3612.000000	70.963483
3611.000000	70.949758
3610.000000	70.950218
3609.000000	70.955987
3608.000000	70.959481
3607.000000	70.960721
3606.000000	70.961828
3605.000000	70.958743
3604.000000	70.944327
3603.000000	70.915569
3602.000000	70.878394
3601.000000	70.844182
3600.000000	70.820540
3599.000000	70.806850
3598.000000	70.798676
3597.000000	70.791480
3596.000000	70.784549
3595.000000	70.779835
3594.000000	70.779647
3593.000000	70.785685
3592.000000	70.796502
3591.000000	70.807945
3590.000000	70.816218
3589.000000	70.820667
3588.000000	70.824285
3587.000000	70.831646
3586.000000	70.842897
3585.000000	70.851550
3584.000000	70.849257
3583.000000	70.832170
3582.000000	70.803850
3581.000000	70.772699
3580.000000	70.746944
3579.000000	70.730036
3578.000000	70.720270
3577.000000	70.713606
3576.000000	70.706542
3575.000000	70.698742
3574.000000	70.692333
3573.000000	70.690566
3572.000000	70.695337
3571.000000	70.704223
3570.000000	70.710720
3569.000000	70.709694
3568.000000	70.702835
3567.000000	70.698872
3566.000000	70.704713
3565.000000	70.717464
3564.000000	70.727050
3563.000000	70.724711
3562.000000	70.707034
3561.000000	70.677218
3560.000000	70.643436
3559.000000	70.614093
3558.000000	70.593030
3557.000000	70.579085
3556.000000	70.569065
3555.000000	70.560345
3554.000000	70.550992
3553.000000	70.539267
3552.000000	70.524898
3551.000000	70.509212
3550.000000	70.493399
3549.000000	70.478588
3548.000000	70.465666
3547.000000	70.454721
3546.000000	70.443795
3545.000000	70.430039
3544.000000	70.411287
3543.000000	70.386030
3542.000000	70.352893
3541.000000	70.313271
3540.000000	70.273221
3539.000000	70.239363
3538.000000	70.212602
3537.000000	70.186869
3536.000000	70.156217
3535.000000	70.120281
3534.000000	70.083299
3533.000000	70.049384
3532.000000	70.019889
3531.000000	69.993971
3530.000000	69.969648
3529.000000	69.946292
3528.000000	69.926199
3527.000000	69.912469
3526.000000	69.904534
3525.000000	69.896464
3524.000000	69.880067
3523.000000	69.850719
3522.000000	69.810955
3521.000000	69.768564
3520.000000	69.730508
3519.000000	69.697799
3518.000000	69.667403
3517.000000	69.637910
3516.000000	69.611137
3515.000000	69.587063
3514.000000	69.560521
3513.000000	69.525687
3512.000000	69.482102
3511.000000	69.434007
3510.000000	69.385505
3509.000000	69.338998
3508.000000	69.296360
3507.000000	69.258622
3506.000000	69.224162
3505.000000	69.189305
3504.000000	69.150665
3503.000000	69.106082
3502.000000	69.054369
3501.000000	68.996202
3500.000000	68.934497
3499.000000	68.871134
3498.000000	68.804447
3497.000000	68.731915
3496.000000	68.654564
3495.000000	68.575997
3494.000000	68.497662
3493.000000	68.417905
3492.000000	68.335479
3491.000000	68.251204
3490.000000	68.166166
3489.000000	68.080618
3488.000000	67.994071
3487.000000	67.904676
3486.000000	67.809490
3485.000000	67.707320
3484.000000	67.601430
3483.000000	67.497257
3482.000000	67.397076
3481.000000	67.298169
3480.000000	67.195103
3479.000000	67.082881
3478.000000	66.959135
3477.000000	66.825930
3476.000000	66.689103
3475.000000	66.553946
3474.000000	66.422361
3473.000000	66.294655
3472.000000	66.171863
3471.000000	66.053416
3470.000000	65.933766
3469.000000	65.804886
3468.000000	65.661892
3467.000000	65.504842
3466.000000	65.336841
3465.000000	65.162777
3464.000000	64.988880
3463.000000	64.819770
3462.000000	64.655180
3461.000000	64.490952
3460.000000	64.322735
3459.000000	64.147990
3458.000000	63.965972
3457.000000	63.778051
3456.000000	63.587847
3455.000000	63.398031
3454.000000	63.208084
3453.000000	63.016266
3452.000000	62.822691
3451.000000	62.628553
3450.000000	62.432862
3449.000000	62.232774
3448.000000	62.027083
3447.000000	61.817131
3446.000000	61.604258
3445.000000	61.388152
3444.000000	61.167643
3443.000000	60.941943
3442.000000	60.711582
3441.000000	60.479497
3440.000000	60.249892
3439.000000	60.023971
3438.000000	59.797508
3437.000000	59.563845
3436.000000	59.318932
3435.000000	59.061970
3434.000000	58.793973
3433.000000	58.518253
3432.000000	58.239921
3431.000000	57.961849
3430.000000	57.681251
3429.000000	57.393088
3428.000000	57.096196
3427.000000	56.793358
3426.000000	56.487114
3425.000000	56.178439
3424.000000	55.868133
3423.000000	55.556078
3422.000000	55.239374
3421.000000	54.914493
3420.000000	54.581134
3419.000000	54.241510
3418.000000	53.897119
3417.000000	53.548568
3416.000000	53.197203
3415.000000	52.843682
3414.000000	52.485421
3413.000000	52.118856
3412.000000	51.743412
3411.000000	51.360928
3410.000000	50.971891
3409.000000	50.574812
3408.000000	50.169155
3407.000000	49.756290
3406.000000	49.338373
3405.000000	48.918236
3404.000000	48.498844
3403.000000	48.080112
3402.000000	47.656583
3401.000000	47.220549
3400.000000	46.767621
3399.000000	46.298643
3398.000000	45.818292
3397.000000	45.333130
3396.000000	44.848410
3395.000000	44.364355
3394.000000	43.875915
3393.000000	43.377651
3392.000000	42.867598
3391.000000	42.345978
3390.000000	41.813891
3389.000000	41.274348
3388.000000	40.731846
3387.000000	40.188440
3386.000000	39.642164
3385.000000	39.091196
3384.000000	38.536530
3383.000000	37.979155
3382.000000	37.417517
3381.000000	36.849785
3380.000000	36.276423
3379.000000	35.698573
3378.000000	35.116388
3377.000000	34.530608
3376.000000	33.943120
3375.000000	33.354763
3374.000000	32.764887
3373.000000	32.174065
3372.000000	31.584279
3371.000000	30.995010
3370.000000	30.402564
3369.000000	29.804448
3368.000000	29.201589
3367.000000	28.595524
3366.000000	27.986888
3365.000000	27.377849
3364.000000	26.772244
3363.000000	26.171705
3362.000000	25.574666
3361.000000	24.980086
3360.000000	24.388824
3359.000000	23.800652
3358.000000	23.213766
3357.000000	22.628404
3356.000000	22.047413
3355.000000	21.472164
3354.000000	20.901617
3353.000000	20.336098
3352.000000	19.777940
3351.000000	19.227702
3350.000000	18.683432
3349.000000	18.144702
3348.000000	17.613743
3347.000000	17.091350
3346.000000	16.575994
3345.000000	16.067433
3344.000000	15.567347
3343.000000	15.075978
3342.000000	14.591742
3341.000000	14.115311
3340.000000	13.649849
3339.000000	13.196421
3338.000000	12.753271
3337.000000	12.319640
3336.000000	11.896827
3335.000000	11.484827
3334.000000	11.081886
3333.000000	10.688286
3332.000000	10.305940
3331.000000	9.934440
3330.000000	9.571375
3329.000000	9.216647
3328.000000	8.873199
3327.000000	8.542447
3326.000000	8.223383
3325.000000	7.916032
3324.000000	7.621353
3323.000000	7.338263
3322.000000	7.064223
3321.000000	6.799199
3320.000000	6.545487
3319.000000	6.303043
3318.000000	6.069810
3317.000000	5.845590
3316.000000	5.632003
3315.000000	5.429004
3314.000000	5.234861
3313.000000	5.049709
3312.000000	4.874832
3311.000000	4.708948
3310.000000	4.549704
3309.000000	4.397803
3308.000000	4.256436
3307.000000	4.126829
3306.000000	4.007988
3305.000000	3.900199
3304.000000	3.803744
3303.000000	3.715768
3302.000000	3.632345
3301.000000	3.552947
3300.000000	3.479379
3299.000000	3.411106
3298.000000	3.346207
3297.000000	3.285690
3296.000000	3.232019
3295.000000	3.184670
3294.000000	3.141309
3293.000000	3.102630
3292.000000	3.071346
3291.000000	3.046632
3290.000000	3.024727
3289.000000	3.004093
3288.000000	2.985953
3287.000000	2.970400
3286.000000	2.956116
3285.000000	2.943753
3284.000000	2.935025
3283.000000	2.929059
3282.000000	2.923484
3281.000000	2.918350
3280.000000	2.915269
3279.000000	2.913482
3278.000000	2.911009
3277.000000	2.908772
3276.000000	2.909304
3275.000000	2.912167
3274.000000	2.914758
3273.000000	2.917158
3272.000000	2.922011
3271.000000	2.930073
3270.000000	2.939803
3269.000000	2.950694
3268.000000	2.963227
3267.000000	2.976204
3266.000000	2.987771
3265.000000	2.998505
3264.000000	3.010179
3263.000000	3.022341
3262.000000	3.033552
3261.000000	3.044652
3260.000000	3.057242
3259.000000	3.070277
3258.000000	3.081909
3257.000000	3.093458
3256.000000	3.107588
3255.000000	3.123795
3254.000000	3.139468
3253.000000	3.154238
3252.000000	3.169314
3251.000000	3.183845
3250.000000	3.196137
3249.000000	3.207556
3248.000000	3.221239
3247.000000	3.237606
3246.000000	3.254739
3245.000000	3.272139
3244.000000	3.290477
3243.000000	3.308627
3242.000000	3.324825
3241.000000	3.339876
3240.000000	3.355728
3239.000000	3.371719
3238.000000	3.385686
3237.000000	3.397781
3236.000000	3.409956
3235.000000	3.422805
3234.000000	3.436093
3233.000000	3.450996
3232.000000	3.468297
3231.000000	3.485703
3230.000000	3.500455
3229.000000	3.513312
3228.000000	3.526653
3227.000000	3.540184
3226.000000	3.552010
3225.000000	3.562475
3224.000000	3.573171
3223.000000	3.583557
3222.000000	3.592141
3221.000000	3.599755
3220.000000	3.608123
3219.000000	3.616430
3218.000000	3.622841
3217.000000	3.628059
3216.000000	3.633907
3215.000000	3.639773
3214.000000	3.643879
3213.000000	3.646791
3212.000000	3.650118
3211.000000	3.653063
3210.000000	3.653741
3209.000000	3.652635
3208.000000	3.651467
3207.000000	3.649914
3206.000000	3.646649
3205.000000	3.642382
3204.000000	3.638548
3203.000000	3.634386
3202.000000	3.628392
3201.000000	3.621265
3200.000000	3.614420
3199.000000	3.607102
3198.000000	3.598083
3197.000000	3.588503
3196.000000	3.579900
3195.000000	3.571111
3194.000000	3.560327
3193.000000	3.548481
3192.000000	3.537519
3191.000000	3.526988
3190.000000	3.515527
3189.000000	3.503908
3188.000000	3.493406
3187.000000	3.482925
3186.000000	3.470939
3185.000000	3.458542
3184.000000	3.447457
3183.000000	3.436887
3182.000000	3.425459
3181.000000	3.414347
3180.000000	3.405236
3179.000000	3.397111
3178.000000	3.388258
3177.000000	3.379562
3176.000000	3.372616
3175.000000	3.366515
3174.000000	3.359783
3173.000000	3.353458
3172.000000	3.349054
3171.000000	3.345481
3170.000000	3.341208
3169.000000	3.337477
3168.000000	3.336182
3167.000000	3.336470
3166.000000	3.336739
3165.000000	3.337879
3164.000000	3.341296
3163.000000	3.345802
3162.000000	3.349752
3161.000000	3.354318
3160.000000	3.361317
3159.000000	3.369757
3158.000000	3.377772
3157.000000	3.385938
3156.000000	3.395645
3155.000000	3.406284
3154.000000	3.417288
3153.000000	3.430817
3152.000000	3.448913
3151.000000	3.470021
3150.000000	3.491475
3149.000000	3.513390
3148.000000	3.537005
3147.000000	3.561321
3146.000000	3.584889
3145.000000	3.608865
3144.000000	3.634907
3143.000000	3.662046
3142.000000	3.688883
3141.000000	3.716995
3140.000000	3.748797
3139.000000	3.783739
3138.000000	3.819887
3137.000000	3.857321
3136.000000	3.896903
3135.000000	3.937588
3134.000000	3.978038
3133.000000	4.019304
3132.000000	4.062867
3131.000000	4.107906
3130.000000	4.153342
3129.000000	4.200472
3128.000000	4.250798
3127.000000	4.303101
3126.000000	4.355486
3125.000000	4.408300
3124.000000	4.462294
3123.000000	4.516320
3122.000000	4.569744
3121.000000	4.624920
3120.000000	4.684331
3119.000000	4.747213
3118.000000	4.811922
3117.000000	4.879252
3116.000000	4.950393
3115.000000	5.023854
3114.000000	5.097362
3113.000000	5.170953
3112.000000	5.245478
3111.000000	5.320340
3110.000000	5.395529
3109.000000	5.473426
3108.000000	5.555667
3107.000000	5.640327
3106.000000	5.724933
3105.000000	5.810111
3104.000000	5.897456
3103.000000	5.986374
3102.000000	6.075940
3101.000000	6.167440
3100.000000	6.262094
3099.000000	6.358321
3098.000000	6.454387
3097.000000	6.551555
3096.000000	6.651537
3095.000000	6.753155
3094.000000	6.854536
3093.000000	6.956620
3092.000000	7.061398
3091.000000	7.168465
3090.000000	7.276295
3089.000000	7.385077
3088.000000	7.495501
3087.000000	7.606616
3086.000000	7.717538
3085.000000	7.829585
3084.000000	7.944024
3083.000000	8.059614
3082.000000	8.175001
3081.000000	8.291547
3080.000000	8.411246
3079.000000	8.533583
3078.000000	8.656967
3077.000000	8.781311
3076.000000	8.906687
3075.000000	9.031543
3074.000000	9.154837
3073.000000	9.278027
3072.000000	9.402585
3071.000000	9.527511
3070.000000	9.651784
3069.000000	9.777091
3068.000000	9.905408
3067.000000	10.035830
3066.000000	10.166354
3065.000000	10.296961
3064.000000	10.428358
3063.000000	10.559602
3062.000000	10.689668
3061.000000	10.819591
3060.000000	10.950611
3059.000000	11.081914
3058.000000	11.212569
3057.000000	11.343805
3056.000000	11.476863
3055.000000	11.610446
3054.000000	11.742931
3053.000000	11.875399
3052.000000	12.009833
3051.000000	12.145744
3050.000000	12.281021
3049.000000	12.414800
3048.000000	12.547312
3047.000000	12.678404
3046.000000	12.808464
3045.000000	12.939415
3044.000000	13.072688
3043.000000	13.207486
3042.000000	13.342699
3041.000000	13.478764
3040.000000	13.615819
3039.000000	13.752055
3038.000000	13.886127
3037.000000	14.019424
3036.000000	14.153804
3035.000000	14.288764
3034.000000	14.422940
3033.000000	14.556666
3032.000000	14.690846
3031.000000	14.824947
3030.000000	14.958324
3029.000000	15.091947
3028.000000	15.226752
3027.000000	15.361863
3026.000000	15.496353
3025.000000	15.631037
3024.000000	15.766526
3023.000000	15.901269
3022.000000	16.033708
3021.000000	16.164796
3020.000000	16.296311
3019.000000	16.428247
3018.000000	16.559932
3017.000000	16.692140
3016.000000	16.825905
3015.000000	16.960629
3014.000000	17.095332
3013.000000	17.230414
3012.000000	17.366235
3011.000000	17.501421
3010.000000	17.634527
3009.000000	17.766072
3008.000000	17.897160
3007.000000	18.027632
3006.000000	18.157337
3005.000000	18.287619
3004.000000	18.419554
3003.000000	18.552011
3002.000000	18.683401
3001.000000	18.814058
3000.000000	18.945107
2999.000000	19.076284
2998.000000	19.206631
2997.000000	19.336140
2996.000000	19.465038
2995.000000	19.592764
2994.000000	19.719356
2993.000000	19.846555
2992.000000	19.975825
2991.000000	20.106523
2990.000000	20.237507
2989.000000	20.369011
2988.000000	20.501213
2987.000000	20.632525
2986.000000	20.761276
2985.000000	20.887916
2984.000000	21.013797
2983.000000	21.139099
2982.000000	21.263702
2981.000000	21.388707
2980.000000	21.515125
2979.000000	21.642172
2978.000000	21.768766
2977.000000	21.895605
2976.000000	22.023920
2975.000000	22.153150
2974.000000	22.281660
2973.000000	22.408782
2972.000000	22.534547
2971.000000	22.658451
2970.000000	22.780339
2969.000000	22.901678
2968.000000	23.024173
2967.000000	23.147877
2966.000000	23.272050
2965.000000	23.396893
2964.000000	23.522843
2963.000000	23.649101
2962.000000	23.774497
2961.000000	23.898918
2960.000000	24.022482
2959.000000	24.144376
2958.000000	24.263869
2957.000000	24.381490
2956.000000	24.497979
2955.000000	24.613423
2954.000000	24.728556
2953.000000	24.845188
2952.000000	24.963823
2951.000000	25.082448
2950.000000	25.199338
2949.000000	25.315442
2948.000000	25.432333
2947.000000	25.549470
2946.000000	25.665412
2945.000000	25.780278
2944.000000	25.894922
2943.000000	26.008934
2942.000000	26.121572
2941.000000	26.233686
2940.000000	26.346681
2939.000000	26.460465
2938.000000	26.574122
2937.000000	26.687616
2936.000000	26.800971
2935.000000	26.912821
2934.000000	27.021918
2933.000000	27.129231
2932.000000	27.236554
2931.000000	27.343841
2930.000000	27.450001
2929.000000	27.555644
2928.000000	27.662901
2927.000000	27.773062
2926.000000	27.886206
2925.000000	28.002401
2924.000000	28.121154
2923.000000	28.240102
2922.000000	28.356154
2921.000000	28.467626
2920.000000	28.573846
2919.000000	28.673661
2918.000000	28.766361
2917.000000	28.853517
2916.000000	28.937983
2915.000000	29.021211
2914.000000	29.102992
2913.000000	29.183323
2912.000000	29.263084
2911.000000	29.343102
2910.000000	29.423982
2909.000000	29.506533
2908.000000	29.591117
2907.000000	29.676858
2906.000000	29.762566
2905.000000	29.848063
2904.000000	29.933798
2903.000000	30.019546
2902.000000	30.105459
2901.000000	30.192639
2900.000000	30.282257
2899.000000	30.374033
2898.000000	30.466201
2897.000000	30.556872
2896.000000	30.644310
2895.000000	30.726929
2894.000000	30.804391
2893.000000	30.878446
2892.000000	30.951506
2891.000000	31.024786
2890.000000	31.098638
2889.000000	31.173947
2888.000000	31.251772
2887.000000	31.332057
2886.000000	31.413934
2885.000000	31.496987
2884.000000	31.581184
2883.000000	31.665952
2882.000000	31.750518
2881.000000	31.834891
2880.000000	31.919696
2879.000000	32.005657
2878.000000	32.094325
2877.000000	32.188522
2876.000000	32.290195
2875.000000	32.397671
2874.000000	32.506263
2873.000000	32.611869
2872.000000	32.713362
2871.000000	32.811865
2870.000000	32.908945
2869.000000	33.005571
2868.000000	33.101659
2867.000000	33.196171
2866.000000	33.288293
2865.000000	33.378756
2864.000000	33.469698
2863.000000	33.563151
2862.000000	33.659835
2861.000000	33.758847
2860.000000	33.858008
2859.000000	33.955095
2858.000000	34.049564
2857.000000	34.142880
2856.000000	34.236760
2855.000000	34.331657
2854.000000	34.427463
2853.000000	34.524692
2852.000000	34.623765
2851.000000	34.723371
2850.000000	34.820451
2849.000000	34.911685
2848.000000	34.994762
2847.000000	35.069283
2846.000000	35.137465
2845.000000	35.203471
2844.000000	35.271109
2843.000000	35.342109
2842.000000	35.416594
2841.000000	35.493904
2840.000000	35.572129
2839.000000	35.648436
2838.000000	35.721844
2837.000000	35.795156
2836.000000	35.872583
2835.000000	35.955661
2834.000000	36.042534
2833.000000	36.130652
2832.000000	36.218481
2831.000000	36.304724
2830.000000	36.387886
2829.000000	36.467381
2828.000000	36.544140
2827.000000	36.619771
2826.000000	36.695899
2825.000000	36.774354
2824.000000	36.856827
2823.000000	36.943835
2822.000000	37.034501
2821.000000	37.127310
2820.000000	37.220381
2819.000000	37.311280
2818.000000	37.397726
2817.000000	37.478837
2816.000000	37.555163
2815.000000	37.627779
2814.000000	37.698293
2813.000000	37.769322
2812.000000	37.843441
2811.000000	37.921280
2810.000000	38.001559
2809.000000	38.083019
2808.000000	38.165152
2807.000000	38.246904
2806.000000	38.326007
2805.000000	38.400200
2804.000000	38.468461
2803.000000	38.530992
2802.000000	38.589140
2801.000000	38.645607
2800.000000	38.703407
2799.000000	38.763993
2798.000000	38.827242
2797.000000	38.893331
2796.000000	38.963263
2795.000000	39.036984
2794.000000	39.112200
2793.000000	39.185869
2792.000000	39.255967
2791.000000	39.321279
2790.000000	39.380738
2789.000000	39.434370
2788.000000	39.484439
2787.000000	39.534692
2786.000000	39.588602
2785.000000	39.648411
2784.000000	39.714795
2783.000000	39.786461
2782.000000	39.860387
2781.000000	39.933131
2780.000000	40.001838
2779.000000	40.064288
2778.000000	40.119074
2777.000000	40.166299
2776.000000	40.207467
2775.000000	40.244136
2774.000000	40.277418
2773.000000	40.309074
2772.000000	40.341686
2771.000000	40.376821
2770.000000	40.413501
2769.000000	40.448956
2768.000000	40.480168
2767.000000	40.504118
2766.000000	40.517952
2765.000000	40.520316
2764.000000	40.512392
2763.000000	40.497199
2762.000000	40.478130
2761.000000	40.458574
2760.000000	40.441850
2759.000000	40.430161
2758.000000	40.423761
2757.000000	40.421318
2756.000000	40.420592
2755.000000	40.418591
2754.000000	40.412044
2753.000000	40.398676
2752.000000	40.377703
2751.000000	40.349124
2750.000000	40.313470
2749.000000	40.272518
2748.000000	40.229305
2747.000000	40.186513
2746.000000	40.145333
2745.000000	40.106105
2744.000000	40.068818
2743.000000	40.032540
2742.000000	39.995538
2741.000000	39.956873
2740.000000	39.917461
2739.000000	39.879439
2738.000000	39.845435
2737.000000	39.819377
2736.000000	39.806799
2735.000000	39.813081
2734.000000	39.841864
2733.000000	39.894606
2732.000000	39.970833
2731.000000	40.068055
2730.000000	40.181638
2729.000000	40.306142
2728.000000	40.436133
2727.000000	40.566052
2726.000000	40.691218
2725.000000	40.809737
2724.000000	40.923209
2723.000000	41.034689
2722.000000	41.146365
2721.000000	41.259556
2720.000000	41.375360
2719.000000	41.493613
2718.000000	41.611666
2717.000000	41.725280
2716.000000	41.830513
2715.000000	41.924519
2714.000000	42.005225
2713.000000	42.071814
2712.000000	42.125478
2711.000000	42.168565
2710.000000	42.203756
2709.000000	42.234202
2708.000000	42.263437
2707.000000	42.293910
2706.000000	42.325370
2705.000000	42.355749
2704.000000	42.382741
2703.000000	42.403800
2702.000000	42.415906
2701.000000	42.416725
2700.000000	42.406300
2699.000000	42.386666
2698.000000	42.360422
2697.000000	42.330789
2696.000000	42.301868
2695.000000	42.277358
2694.000000	42.258805
2693.000000	42.245548
2692.000000	42.235831
2691.000000	42.226997
2690.000000	42.215440
2689.000000	42.197867
2688.000000	42.172809
2687.000000	42.140588
2686.000000	42.102512
2685.000000	42.061069
2684.000000	42.020169
2683.000000	41.983724
2682.000000	41.953922
2681.000000	41.931210
2680.000000	41.915103
2679.000000	41.904023
2678.000000	41.895088
2677.000000	41.885268
2676.000000	41.872889
2675.000000	41.857529
2674.000000	41.839250
2673.000000	41.819247
2672.000000	41.800741
2671.000000	41.788247
2670.000000	41.785712
2669.000000	41.795416
2668.000000	41.817880
2667.000000	41.851333
2666.000000	41.891685
2665.000000	41.934037
2664.000000	41.974253
2663.000000	42.009265
2662.000000	42.036748
2661.000000	42.055812
2660.000000	42.068012
2659.000000	42.076799
2658.000000	42.086100
2657.000000	42.099625
2656.000000	42.120661
2655.000000	42.151213
2654.000000	42.191210
2653.000000	42.239249
2652.000000	42.293558
2651.000000	42.351917
2650.000000	42.411690
2649.000000	42.470987
2648.000000	42.530227
2647.000000	42.591782
2646.000000	42.658477
2645.000000	42.733187
2644.000000	42.818562
2643.000000	42.916026
2642.000000	43.024625
2641.000000	43.141223
2640.000000	43.261743
2639.000000	43.381404
2638.000000	43.494858
2637.000000	43.597662
2636.000000	43.687924
2635.000000	43.765978
2634.000000	43.833200
2633.000000	43.891815
2632.000000	43.945187
2631.000000	43.996958
2630.000000	44.049201
2629.000000	44.102333
2628.000000	44.155871
2627.000000	44.208098
2626.000000	44.255768
2625.000000	44.295220
2624.000000	44.324456
2623.000000	44.343420
2622.000000	44.352938
2621.000000	44.354825
2620.000000	44.352180
2619.000000	44.348494
2618.000000	44.346197
2617.000000	44.346391
2616.000000	44.349392
2615.000000	44.353911
2614.000000	44.356358
2613.000000	44.352295
2612.000000	44.338551
2611.000000	44.313779
2610.000000	44.277630
2609.000000	44.231095
2608.000000	44.177415
2607.000000	44.121197
2606.000000	44.066877
2605.000000	44.018413
2604.000000	43.979515
2603.000000	43.952651
2602.000000	43.937864
2601.000000	43.933093
2600.000000	43.935661
2599.000000	43.942850
2598.000000	43.951886
2597.000000	43.961328
2596.000000	43.971968
2595.000000	43.986008
2594.000000	44.005706
2593.000000	44.033098
2592.000000	44.070552
2591.000000	44.119574
2590.000000	44.179427
2589.000000	44.247737
2588.000000	44.321684
2587.000000	44.398356
2586.000000	44.474450
2585.000000	44.547340
2584.000000	44.616578
2583.000000	44.683431
2582.000000	44.749835
2581.000000	44.818491
2580.000000	44.893130
2579.000000	44.977011
2578.000000	45.070918
2577.000000	45.173607
2576.000000	45.283226
2575.000000	45.397114
2574.000000	45.511110
2573.000000	45.620758
2572.000000	45.723558
2571.000000	45.819143
2570.000000	45.907996
2569.000000	45.991496
2568.000000	46.072700
2567.000000	46.155010
2566.000000	46.239857
2565.000000	46.326736
2564.000000	46.414551
2563.000000	46.501525
2562.000000	46.583879
2561.000000	46.656628
2560.000000	46.716135
2559.000000	46.760620
2558.000000	46.789646
2557.000000	46.804806
2556.000000	46.811057
2555.000000	46.815784
2554.000000	46.825929
2553.000000	46.847036
2552.000000	46.883863
2551.000000	46.939525
2550.000000	47.013475
2549.000000	47.102032
2548.000000	47.200511
2547.000000	47.304198
2546.000000	47.408263
2545.000000	47.508506
2544.000000	47.603280
2543.000000	47.693298
2542.000000	47.779875
2541.000000	47.864519
2540.000000	47.949224
2539.000000	48.035015
2538.000000	48.120241
2537.000000	48.201646
2536.000000	48.276516
2535.000000	48.342710
2534.000000	48.397180
2533.000000	48.437314
2532.000000	48.463975
2531.000000	48.481219
2530.000000	48.493692
2529.000000	48.505596
2528.000000	48.521608
2527.000000	48.546302
2526.000000	48.581991
2525.000000	48.628423
2524.000000	48.684210
2523.000000	48.746826
2522.000000	48.811805
2521.000000	48.874508
2520.000000	48.932793
2519.000000	48.986881
2518.000000	49.037215
2517.000000	49.084311
2516.000000	49.130409
2515.000000	49.178863
2514.000000	49.231723
2513.000000	49.289270
2512.000000	49.351237
2511.000000	49.416363
2510.000000	49.481094
2509.000000	49.540929
2508.000000	49.593262
2507.000000	49.637605
2506.000000	49.673682
2505.000000	49.701848
2504.000000	49.724986
2503.000000	49.747531
2502.000000	49.772658
2501.000000	49.801784
2500.000000	49.836176
2499.000000	49.876489
2498.000000	49.920690
2497.000000	49.964673
2496.000000	50.004988
2495.000000	50.039556
2494.000000	50.066503
2493.000000	50.084733
2492.000000	50.095861
2491.000000	50.103485
2490.000000	50.110747
2489.000000	50.120147
2488.000000	50.134609
2487.000000	50.156207
2486.000000	50.183828
2485.000000	50.214075
2484.000000	50.244183
2483.000000	50.272139
2482.000000	50.295043
2481.000000	50.310185
2480.000000	50.317797
2479.000000	50.320606
2478.000000	50.320956
2477.000000	50.320642
2476.000000	50.322851
2475.000000	50.331328
2474.000000	50.347324
2473.000000	50.369179
2472.000000	50.394503
2471.000000	50.420793
2470.000000	50.444489
2469.000000	50.462153
2468.000000	50.472819
2467.000000	50.477558
2466.000000	50.477379
2465.000000	50.473668
2464.000000	50.469990
2463.000000	50.470658
2462.000000	50.477646
2461.000000	50.490714
2460.000000	50.509702
2459.000000	50.533996
2458.000000	50.560286
2457.000000	50.583641
2456.000000	50.600973
2455.000000	50.611636
2454.000000	50.615467
2453.000000	50.613084
2452.000000	50.607794
2451.000000	50.604472
2450.000000	50.606317
2449.000000	50.614419
2448.000000	50.629581
2447.000000	50.651791
2446.000000	50.678241
2445.000000	50.704519
2444.000000	50.727643
2443.000000	50.746136
2442.000000	50.758115
2441.000000	50.762297
2440.000000	50.760663
2439.000000	50.757544
2438.000000	50.756264
2437.000000	50.758748
2436.000000	50.767407
2435.000000	50.784266
2434.000000	50.808154
2433.000000	50.835301
2432.000000	50.862567
2431.000000	50.887844
2430.000000	50.908193
2429.000000	50.920729
2428.000000	50.925552
2427.000000	50.925521
2426.000000	50.923500
2425.000000	50.922044
2424.000000	50.924905
2423.000000	50.935628
2422.000000	50.954518
2421.000000	50.979143
2420.000000	51.007248
2419.000000	51.036770
2418.000000	51.063885
2417.000000	51.084302
2416.000000	51.096709
2415.000000	51.102750
2414.000000	51.104228
2413.000000	51.102989
2412.000000	51.102850
2411.000000	51.108469
2410.000000	51.122089
2409.000000	51.143319
2408.000000	51.171246
2407.000000	51.204169
2406.000000	51.237890
2405.000000	51.267339
2404.000000	51.290011
2403.000000	51.305862
2402.000000	51.314989
2401.000000	51.318321
2400.000000	51.319819
2399.000000	51.324875
2398.000000	51.336653
2397.000000	51.356084
2396.000000	51.384091
2395.000000	51.420615
2394.000000	51.462150
2393.000000	51.503389
2392.000000	51.541040
2391.000000	51.573885
2390.000000	51.600636
2389.000000	51.620862
2388.000000	51.638076
2387.000000	51.658001
2386.000000	51.684822
2385.000000	51.721597
2384.000000	51.771614
2383.000000	51.837177
2382.000000	51.915551
2381.000000	52.000522
2380.000000	52.087478
2379.000000	52.172795
2378.000000	52.251458
2377.000000	52.318433
2376.000000	52.372841
2375.000000	52.417850
2374.000000	52.457439
2373.000000	52.496285
2372.000000	52.541184
2371.000000	52.597651
2370.000000	52.664135
2369.000000	52.736102
2368.000000	52.810966
2367.000000	52.886492
2366.000000	52.957265
2365.000000	53.018051
2364.000000	53.071592
2363.000000	53.119281
2362.000000	53.160090
2361.000000	53.199324
2360.000000	53.241951
2359.000000	53.295413
2358.000000	53.358574
2357.000000	53.426325
2356.000000	53.498041
2355.000000	53.567507
2354.000000	53.632723
2353.000000	53.691992
2352.000000	53.751564
2351.000000	53.814763
2350.000000	53.868601
2349.000000	53.909233
2348.000000	53.945881
2347.000000	54.004365
2346.000000	54.089163
2345.000000	54.175468
2344.000000	54.246354
2343.000000	54.300894
2342.000000	54.356796
2341.000000	54.416776
2340.000000	54.475400
2339.000000	54.528453
2338.000000	54.575571
2337.000000	54.617112
2336.000000	54.657180
2335.000000	54.701383
2334.000000	54.756951
2333.000000	54.822945
2332.000000	54.896455
2331.000000	54.976550
2330.000000	55.056386
2329.000000	55.136566
2328.000000	55.210506
2327.000000	55.280593
2326.000000	55.345421
2325.000000	55.401289
2324.000000	55.450826
2323.000000	55.492680
2322.000000	55.531569
2321.000000	55.565944
2320.000000	55.602963
2319.000000	55.649847
2318.000000	55.710263
2317.000000	55.780868
2316.000000	55.855790
2315.000000	55.931931
2314.000000	56.002584
2313.000000	56.061340
2312.000000	56.104433
2311.000000	56.136658
2310.000000	56.163386
2309.000000	56.189502
2308.000000	56.220081
2307.000000	56.260800
2306.000000	56.313401
2305.000000	56.373816
2304.000000	56.438585
2303.000000	56.505227
2302.000000	56.569659
2301.000000	56.625593
2300.000000	56.669544
2299.000000	56.703817
2298.000000	56.730801
2297.000000	56.753264
2296.000000	56.775515
2295.000000	56.804592
2294.000000	56.843598
2293.000000	56.891252
2292.000000	56.945692
2291.000000	57.005618
2290.000000	57.066652
2289.000000	57.121475
2288.000000	57.166177
2287.000000	57.201388
2286.000000	57.228443
2285.000000	57.247729
2284.000000	57.263514
2283.000000	57.283262
2282.000000	57.312064
2281.000000	57.349941
2280.000000	57.396232
2279.000000	57.450739
2278.000000	57.510159
2277.000000	57.567750
2276.000000	57.618369
2275.000000	57.660563
2274.000000	57.692877
2273.000000	57.714006
2272.000000	57.726765
2271.000000	57.737940
2270.000000	57.752552
2269.000000	57.772164
2268.000000	57.798723
2267.000000	57.834576
2266.000000	57.877656
2265.000000	57.921763
2264.000000	57.962030
2263.000000	57.996643
2262.000000	58.022576
2261.000000	58.035625
2260.000000	58.036177
2259.000000	58.029489
2258.000000	58.020264
2257.000000	58.010216
2256.000000	58.002240
2255.000000	58.000425
2254.000000	58.004919
2253.000000	58.011037
2252.000000	58.014122
2251.000000	58.011299
2250.000000	57.998195
2249.000000	57.969122
2248.000000	57.922720
2247.000000	57.862769
2246.000000	57.792405
2245.000000	57.713199
2244.000000	57.629249
2243.000000	57.546901
2242.000000	57.468955
2241.000000	57.393697
2240.000000	57.319802
2239.000000	57.247615
2238.000000	57.175306
2237.000000	57.099363
2236.000000	57.020058
2235.000000	56.941830
2234.000000	56.867813
2233.000000	56.798645
2232.000000	56.737071
2231.000000	56.688051
2230.000000	56.653168
2229.000000	56.629383
2228.000000	56.613877
2227.000000	56.605345
2226.000000	56.599701
2225.000000	56.590030
2224.000000	56.572311
2223.000000	56.547105
2222.000000	56.515085
2221.000000	56.475991
2220.000000	56.432914
2219.000000	56.392453
2218.000000	56.359023
2217.000000	56.332999
2216.000000	56.314834
2215.000000	56.305910
2214.000000	56.304238
2213.000000	56.304093
2212.000000	56.301320
2211.000000	56.294980
2210.000000	56.283516
2209.000000	56.264480
2208.000000	56.239204
2207.000000	56.213080
2206.000000	56.190028
2205.000000	56.170844
2204.000000	56.157176
2203.000000	56.151806
2202.000000	56.153812
2201.000000	56.158109
2200.000000	56.160919
2199.000000	56.161318
2198.000000	56.157057
2197.000000	56.144245
2196.000000	56.122596
2195.000000	56.096428
2194.000000	56.069384
2193.000000	56.042594
2192.000000	56.018419
2191.000000	56.000653
2190.000000	55.989616
2189.000000	55.981458
2188.000000	55.973358
2187.000000	55.965007
2186.000000	55.954478
2185.000000	55.937935
2184.000000	55.914799
2183.000000	55.888810
2182.000000	55.863067
2181.000000	55.838595
2180.000000	55.818208
2179.000000	55.806560
2178.000000	55.805014
2177.000000	55.810791
2176.000000	55.821974
2175.000000	55.838569
2174.000000	55.858073
2173.000000	55.875215
2172.000000	55.887616
2171.000000	55.897268
2170.000000	55.905686
2169.000000	55.912576
2168.000000	55.920014
2167.000000	55.932653
2166.000000	55.952243
2165.000000	55.976318
2164.000000	56.003125
2163.000000	56.033047
2162.000000	56.064402
2161.000000	56.092944
2160.000000	56.116825
2159.000000	56.137565
2158.000000	56.155440
2157.000000	56.169046
2156.000000	56.180188
2155.000000	56.193950
2154.000000	56.212731
2153.000000	56.234913
2152.000000	56.259885
2151.000000	56.289008
2150.000000	56.320762
2149.000000	56.350365
2148.000000	56.375515
2147.000000	56.397626
2146.000000	56.416889
2145.000000	56.431618
2144.000000	56.443548
2143.000000	56.458194
2142.000000	56.478561
2141.000000	56.503435
2140.000000	56.532395
2139.000000	56.566796
2138.000000	56.604867
2137.000000	56.641660
2136.000000	56.675188
2135.000000	56.707432
2134.000000	56.738467
2133.000000	56.765414
2132.000000	56.788327
2131.000000	56.811444
2130.000000	56.837268
2129.000000	56.864843
2128.000000	56.894559
2127.000000	56.928781
2126.000000	56.966526
2125.000000	57.003153
2124.000000	57.036599
2123.000000	57.068472
2122.000000	57.098514
2121.000000	57.124167
2120.000000	57.146647
2119.000000	57.171050
2118.000000	57.199099
2117.000000	57.227841
2116.000000	57.256643
2115.000000	57.289103
2114.000000	57.326494
2113.000000	57.365331
2112.000000	57.402994
2111.000000	57.439840
2110.000000	57.474482
2109.000000	57.503407
2108.000000	57.526896
2107.000000	57.549530
2106.000000	57.573464
2105.000000	57.597106
2104.000000	57.621209
2103.000000	57.649582
2102.000000	57.682457
2101.000000	57.715204
2100.000000	57.745244
2099.000000	57.773848
2098.000000	57.800084
2097.000000	57.819972
2096.000000	57.833273
2095.000000	57.844994
2094.000000	57.858195
2093.000000	57.871323
2092.000000	57.884186
2091.000000	57.900143
2090.000000	57.920683
2089.000000	57.943723
2088.000000	57.968747
2087.000000	57.997600
2086.000000	58.028691
2085.000000	58.056760
2084.000000	58.080286
2083.000000	58.103087
2082.000000	58.127437
2081.000000	58.151892
2080.000000	58.177216
2079.000000	58.207645
2078.000000	58.244107
2077.000000	58.282777
2076.000000	58.321379
2075.000000	58.361286
2074.000000	58.401592
2073.000000	58.437708
2072.000000	58.468371
2071.000000	58.497376
2070.000000	58.527335
2069.000000	58.557481
2068.000000	58.588542
2067.000000	58.623313
2066.000000	58.661773
2065.000000	58.702235
2064.000000	58.747216
2063.000000	58.801136
2062.000000	58.861895
2061.000000	58.921761
2060.000000	58.977290
2059.000000	59.031598
2058.000000	59.086195
2057.000000	59.138821
2056.000000	59.190645
2055.000000	59.247647
2054.000000	59.312650
2053.000000	59.383188
2052.000000	59.458788
2051.000000	59.542346
2050.000000	59.632530
2049.000000	59.722844
2048.000000	59.810088
2047.000000	59.896498
2046.000000	59.982792
2045.000000	60.066221
2044.000000	60.146764
2043.000000	60.228135
2042.000000	60.311949
2041.000000	60.398056
2040.000000	60.490455
2039.000000	60.595075
2038.000000	60.710704
2037.000000	60.829413
2036.000000	60.946850
2035.000000	61.064335
2034.000000	61.180586
2033.000000	61.290799
2032.000000	61.394979
2031.000000	61.499281
2030.000000	61.606629
2029.000000	61.715199
2028.000000	61.826573
2027.000000	61.946290
2026.000000	62.074649
2025.000000	62.205082
2024.000000	62.334773
2023.000000	62.466742
2022.000000	62.600404
2021.000000	62.729045
2020.000000	62.848333
2019.000000	62.958959
2018.000000	63.061015
2017.000000	63.155616
2016.000000	63.251212
2015.000000	63.358738
2014.000000	63.479949
2013.000000	63.607972
2012.000000	63.738409
2011.000000	63.871664
2010.000000	64.004123
2009.000000	64.127857
2008.000000	64.240788
2007.000000	64.348034
2006.000000	64.452100
2005.000000	64.550260
2004.000000	64.645104
2003.000000	64.744302
2002.000000	64.850415
2001.000000	64.958926
2000.000000	65.067181
1999.000000	65.178701
1998.000000	65.292971
1997.000000	65.402582
1996.000000	65.503117
1995.000000	65.596054
1994.000000	65.679511
1993.000000	65.748928
1992.000000	65.810566
1991.000000	65.876859
1990.000000	65.947730
1989.000000	66.014649
1988.000000	66.079183
1987.000000	66.151193
1986.000000	66.231596
1985.000000	66.310403
1984.000000	66.382562
1983.000000	66.450256
1982.000000	66.511722
1981.000000	66.561097
1980.000000	66.600287
1979.000000	66.639788
1978.000000	66.682880
1977.000000	66.724563
1976.000000	66.766288
1975.000000	66.816529
1974.000000	66.875343
1973.000000	66.933654
1972.000000	66.989470
1971.000000	67.049000
1970.000000	67.109499
1969.000000	67.156124
1968.000000	67.181063
1967.000000	67.194337
1966.000000	67.207981
1965.000000	67.224259
1964.000000	67.246543
1963.000000	67.281473
1962.000000	67.325705
1961.000000	67.368092
1960.000000	67.407164
1959.000000	67.450528
1958.000000	67.495914
1957.000000	67.530961
1956.000000	67.552303
1955.000000	67.569467
1954.000000	67.586882
1953.000000	67.600204
1952.000000	67.612479
1951.000000	67.633468
1950.000000	67.665176
1949.000000	67.700610
1948.000000	67.735622
1947.000000	67.770039
1946.000000	67.798057
1945.000000	67.812855
1944.000000	67.817620
1943.000000	67.823015
1942.000000	67.833561
1941.000000	67.840144
1940.000000	67.838100
1939.000000	67.838840
1938.000000	67.848907
1937.000000	67.861250
1936.000000	67.873145
1935.000000	67.891688
1934.000000	67.915612
1933.000000	67.933392
1932.000000	67.943615
1931.000000	67.953892
1930.000000	67.966276
1929.000000	67.972660
1928.000000	67.973578
1927.000000	67.981864
1926.000000	68.000724
1925.000000	68.020202
1924.000000	68.025855
1923.000000	68.012475
1922.000000	67.981438
1921.000000	67.936156
1920.000000	67.901170
1919.000000	67.906476
1918.000000	67.945748
1917.000000	67.981685
1916.000000	67.988220
1915.000000	67.976202
1914.000000	67.967523
1913.000000	67.965794
1912.000000	67.965959
1911.000000	67.966238
1910.000000	67.964507
1909.000000	67.953341
1908.000000	67.934670
1907.000000	67.922315
1906.000000	67.919476
1905.000000	67.917083
1904.000000	67.908756
1903.000000	67.898644
1902.000000	67.891736
1901.000000	67.883523
1900.000000	67.872643
1899.000000	67.867701
1898.000000	67.869821
1897.000000	67.868577
1896.000000	67.857671
1895.000000	67.842881
1894.000000	67.825474
1893.000000	67.796814
1892.000000	67.762788
1891.000000	67.742530
1890.000000	67.741387
1889.000000	67.748545
1888.000000	67.749488
1887.000000	67.739220
1886.000000	67.721377
1885.000000	67.696374
1884.000000	67.666575
1883.000000	67.641419
1882.000000	67.625883
1881.000000	67.611380
1880.000000	67.591407
1879.000000	67.574156
1878.000000	67.563383
1877.000000	67.550393
1876.000000	67.533643
1875.000000	67.518773
1874.000000	67.495465
1873.000000	67.442973
1872.000000	67.370737
1871.000000	67.326504
1870.000000	67.330823
1869.000000	67.347982
1868.000000	67.347218
1867.000000	67.328370
1866.000000	67.298582
1865.000000	67.263305
1864.000000	67.227712
1863.000000	67.195856
1862.000000	67.165224
1861.000000	67.126778
1860.000000	67.076573
1859.000000	67.021693
1858.000000	66.968594
1857.000000	66.914575
1856.000000	66.859994
1855.000000	66.811675
1854.000000	66.773763
1853.000000	66.739454
1852.000000	66.702667
1851.000000	66.673807
1850.000000	66.650009
1849.000000	66.599366
1848.000000	66.498509
1847.000000	66.372544
1846.000000	66.284139
1845.000000	66.266047
1844.000000	66.283104
1843.000000	66.274691
1842.000000	66.212754
1841.000000	66.118549
1840.000000	66.034144
1839.000000	65.975987
1838.000000	65.923020
1837.000000	65.855541
1836.000000	65.775796
1835.000000	65.683857
1834.000000	65.563265
1833.000000	65.411054
1832.000000	65.274323
1831.000000	65.196967
1830.000000	65.157007
1829.000000	65.101648
1828.000000	65.001487
1827.000000	64.888120
1826.000000	64.811028
1825.000000	64.771080
1824.000000	64.736057
1823.000000	64.678028
1822.000000	64.589641
1821.000000	64.477502
1820.000000	64.354574
1819.000000	64.233447
1818.000000	64.116204
1817.000000	64.005250
1816.000000	63.906306
1815.000000	63.819665
1814.000000	63.734736
1813.000000	63.639432
1812.000000	63.540270
1811.000000	63.451166
1810.000000	63.369505
1809.000000	63.277930
1808.000000	63.168411
1807.000000	63.051735
1806.000000	62.934963
1805.000000	62.813079
1804.000000	62.682119
1803.000000	62.552546
1802.000000	62.442284
1801.000000	62.366346
1800.000000	62.336453
1799.000000	62.336253
1798.000000	62.317105
1797.000000	62.235689
1796.000000	62.089026
1795.000000	61.921199
1794.000000	61.790731
1793.000000	61.707552
1792.000000	61.645224
1791.000000	61.588741
1790.000000	61.519089
1789.000000	61.418307
1788.000000	61.296542
1787.000000	61.182979
1786.000000	61.092152
1785.000000	61.013676
1784.000000	60.925491
1783.000000	60.819896
1782.000000	60.701137
1781.000000	60.564635
1780.000000	60.419073
1779.000000	60.278298
1778.000000	60.144956
1777.000000	60.018754
1776.000000	59.899485
1775.000000	59.791768
1774.000000	59.701433
1773.000000	59.599417
1772.000000	59.462991
1771.000000	59.314090
1770.000000	59.157981
1769.000000	58.997142
1768.000000	58.853193
1767.000000	58.726867
1766.000000	58.581522
1765.000000	58.395074
1764.000000	58.211091
1763.000000	58.093516
1762.000000	58.040107
1761.000000	57.982793
1760.000000	57.868545
1759.000000	57.708695
1758.000000	57.551806
1757.000000	57.422290
1756.000000	57.317428
1755.000000	57.220244
1754.000000	57.103500
1753.000000	56.955795
1752.000000	56.796560
1751.000000	56.647477
1750.000000	56.500004
1749.000000	56.342216
1748.000000	56.189008
1747.000000	56.055927
1746.000000	55.915020
1745.000000	55.720394
1744.000000	55.469576
1743.000000	55.200019
1742.000000	54.947006
1741.000000	54.734455
1740.000000	54.570510
1739.000000	54.430865
1738.000000	54.277756
1737.000000	54.090474
1736.000000	53.934276
1735.000000	53.868218
1734.000000	53.785461
1733.000000	53.542664
1732.000000	53.145967
1731.000000	52.729713
1730.000000	52.380468
1729.000000	52.080346
1728.000000	51.794090
1727.000000	51.518988
1726.000000	51.253897
1725.000000	50.977663
1724.000000	50.683188
1723.000000	50.378957
1722.000000	50.079203
1721.000000	49.811384
1720.000000	49.629365
1719.000000	49.517157
1718.000000	49.318401
1717.000000	48.936168
1716.000000	48.447356
1715.000000	47.985212
1714.000000	47.610403
1713.000000	47.282186
1712.000000	46.949109
1711.000000	46.607590
1710.000000	46.262897
1709.000000	45.899838
1708.000000	45.525909
1707.000000	45.175601
1706.000000	44.846704
1705.000000	44.503901
1704.000000	44.119282
1703.000000	43.672977
1702.000000	43.262901
1701.000000	43.035105
1700.000000	42.929131
1699.000000	42.798182
1698.000000	42.562238
1697.000000	42.197788
1696.000000	41.759367
1695.000000	41.305877
1694.000000	40.847454
1693.000000	40.408470
1692.000000	40.012781
1691.000000	39.649370
1690.000000	39.307871
1689.000000	39.003407
1688.000000	38.746001
1687.000000	38.490254
1686.000000	38.192739
1685.000000	37.789347
1684.000000	37.303754
1683.000000	36.890920
1682.000000	36.549226
1681.000000	36.197575
1680.000000	35.816312
1679.000000	35.421282
1678.000000	35.030204
1677.000000	34.654228
1676.000000	34.320785
1675.000000	34.036250
1674.000000	33.757018
1673.000000	33.434442
1672.000000	33.089364
1671.000000	32.772737
1670.000000	32.492849
1669.000000	32.225089
1668.000000	31.949198
1667.000000	31.662072
1666.000000	31.360484
1665.000000	31.046406
1664.000000	30.739845
1663.000000	30.458415
1662.000000	30.200935
1661.000000	29.939510
1660.000000	29.661377
1659.000000	29.386208
1658.000000	29.135848
1657.000000	28.915803
1656.000000	28.722304
1655.000000	28.586409
1654.000000	28.470733
1653.000000	28.292900
1652.000000	28.002467
1651.000000	27.604564
1650.000000	27.231740
1649.000000	26.958926
1648.000000	26.733785
1647.000000	26.517047
1646.000000	26.320961
1645.000000	26.111476
1644.000000	25.861974
1643.000000	25.612800
1642.000000	25.385419
1641.000000	25.161495
1640.000000	24.936204
1639.000000	24.727360
1638.000000	24.539088
1637.000000	24.339300
1636.000000	24.120635
1635.000000	23.937293
1634.000000	23.780151
1633.000000	23.600800
1632.000000	23.401373
1631.000000	23.206274
1630.000000	23.030270
1629.000000	22.864837
1628.000000	22.699175
1627.000000	22.539528
1626.000000	22.389657
1625.000000	22.245420
1624.000000	22.109521
1623.000000	21.993675
1622.000000	21.898220
1621.000000	21.807879
1620.000000	21.728166
1619.000000	21.679464
1618.000000	21.651653
1617.000000	21.595755
1616.000000	21.486679
1615.000000	21.357161
1614.000000	21.245103
1613.000000	21.157757
1612.000000	21.088096
1611.000000	21.037651
1610.000000	21.006431
1609.000000	20.978981
1608.000000	20.947124
1607.000000	20.924347
1606.000000	20.919708
1605.000000	20.920552
1604.000000	20.917653
1603.000000	20.919936
1602.000000	20.931729
1601.000000	20.941484
1600.000000	20.943920
1599.000000	20.950818
1598.000000	20.968147
1597.000000	20.984727
1596.000000	20.994036
1595.000000	21.007051
1594.000000	21.031537
1593.000000	21.057644
1592.000000	21.077603
1591.000000	21.099349
1590.000000	21.128073
1589.000000	21.153380
1588.000000	21.168221
1587.000000	21.181356
1586.000000	21.199465
1585.000000	21.213749
1584.000000	21.218137
1583.000000	21.224522
1582.000000	21.242298
1581.000000	21.267949
1580.000000	21.306768
1579.000000	21.375485
1578.000000	21.467685
1577.000000	21.535109
1576.000000	21.536417
1575.000000	21.479212
1574.000000	21.394058
1573.000000	21.307182
1572.000000	21.242666
1571.000000	21.225441
1570.000000	21.256149
1569.000000	21.301619
1568.000000	21.327640
1567.000000	21.338714
1566.000000	21.364507
1565.000000	21.419846
1564.000000	21.487524
1563.000000	21.553334
1562.000000	21.578468
1561.000000	21.616345
1560.000000	21.724541
1559.000000	21.859137
1558.000000	22.041944
1557.000000	22.184832
1556.000000	22.258355
1555.000000	22.352277
1554.000000	22.487188
1553.000000	22.629879
1552.000000	22.758066
1551.000000	22.902129
1550.000000	23.082942
1549.000000	23.281381
1548.000000	23.463425
1547.000000	23.639115
1546.000000	23.847674
1545.000000	24.087740
1544.000000	24.333335
1543.000000	24.600637
1542.000000	24.944195
1541.000000	25.351309
1540.000000	25.770928
1539.000000	26.153599
1538.000000	26.401162
1537.000000	26.524986
1536.000000	26.647556
1535.000000	26.876454
1534.000000	27.248863
1533.000000	27.693967
1532.000000	28.109953
1531.000000	28.460009
1530.000000	28.787000
1529.000000	29.144151
1528.000000	29.544990
1527.000000	29.983789
1526.000000	30.450578
1525.000000	30.917073
1524.000000	31.376273
1523.000000	31.869248
1522.000000	32.418513
1521.000000	32.961113
1520.000000	33.395155
1519.000000	33.745119
1518.000000	34.136929
1517.000000	34.615197
1516.000000	35.126711
1515.000000	35.611107
1514.000000	36.067922
1513.000000	36.536726
1512.000000	37.023172
1511.000000	37.513406
1510.000000	38.004273
1509.000000	38.533675
1508.000000	39.068200
1507.000000	39.628722
1506.000000	40.325898
1505.000000	40.918358
1504.000000	41.247750
1503.000000	41.492653
1502.000000	41.783088
1501.000000	42.149757
1500.000000	42.589958
1499.000000	43.113556
1498.000000	43.699832
1497.000000	44.282967
1496.000000	44.786634
1495.000000	45.161319
1494.000000	45.424202
1493.000000	45.646418
1492.000000	45.919590
1491.000000	46.288651
1490.000000	46.700770
1489.000000	47.089663
1488.000000	47.449551
1487.000000	47.806417
1486.000000	48.162565
1485.000000	48.478690
1484.000000	48.734232
1483.000000	48.965897
1482.000000	49.195333
1481.000000	49.386726
1480.000000	49.503889
1479.000000	49.569621
1478.000000	49.628760
1477.000000	49.687922
1476.000000	49.720889
1475.000000	49.701846
1474.000000	49.580079
1473.000000	49.266251
1472.000000	48.756643
1471.000000	48.096993
1470.000000	47.243705
1469.000000	46.126905
1468.000000	44.724370
1467.000000	43.014090
1466.000000	40.904618
1465.000000	38.370927
1464.000000	35.687672
1463.000000	33.229487
1462.000000	31.125299
1461.000000	29.345864
1460.000000	27.907403
1459.000000	26.872642
1458.000000	26.282137
1457.000000	26.201352
1456.000000	26.610802
1455.000000	27.296046
1454.000000	28.109651
1453.000000	29.032353
1452.000000	30.020317
1451.000000	30.960601
1450.000000	31.707814
1449.000000	32.155457
1448.000000	32.255182
1447.000000	32.003272
1446.000000	31.401700
1445.000000	30.446923
1444.000000	29.173831
1443.000000	27.643342
1442.000000	25.894645
1441.000000	23.983200
1440.000000	22.011795
1439.000000	20.016725
1438.000000	17.856465
1437.000000	15.408053
1436.000000	12.954907
1435.000000	10.943668
1434.000000	9.399174
1433.000000	8.090566
1432.000000	6.934453
1431.000000	5.983869
1430.000000	5.243617
1429.000000	4.666371
1428.000000	4.276511
1427.000000	4.107758
1426.000000	4.100830
1425.000000	4.188324
1424.000000	4.397463
1423.000000	4.757331
1422.000000	5.208857
1421.000000	5.728134
1420.000000	6.430530
1419.000000	7.393901
1418.000000	8.467173
1417.000000	9.497895
1416.000000	10.550098
1415.000000	11.726851
1414.000000	13.014973
1413.000000	14.369715
1412.000000	15.810921
1411.000000	17.354554
1410.000000	18.935542
1409.000000	20.490950
1408.000000	22.041844
1407.000000	23.633677
1406.000000	25.270693
1405.000000	26.931605
1404.000000	28.576582
1403.000000	30.128664
1402.000000	31.547557
1401.000000	32.913805
1400.000000	34.340820
1399.000000	35.808458
1398.000000	37.189953
1397.000000	38.455234
1396.000000	39.710744
1395.000000	41.035089
1394.000000	42.374560
1393.000000	43.623693
1392.000000	44.747318
1391.000000	45.773463
1390.000000	46.738431
1389.000000	47.673673
1388.000000	48.577179
1387.000000	49.386943
1386.000000	50.033982
1385.000000	50.508311
1384.000000	50.837404
1383.000000	51.032670
1382.000000	51.093155
1381.000000	51.033280
1380.000000	50.865079
1379.000000	50.578974
1378.000000	50.165304
1377.000000	49.622065
1376.000000	48.914243
1375.000000	47.971211
1374.000000	46.780481
1373.000000	45.428277
1372.000000	44.000649
1371.000000	42.533923
1370.000000	41.080306
1369.000000	39.754776
1368.000000	38.707807
1367.000000	38.047754
1366.000000	37.804846
1365.000000	37.961249
1364.000000	38.472843
1363.000000	39.268727
1362.000000	40.256910
1361.000000	41.340791
1360.000000	42.439621
1359.000000	43.503433
1358.000000	44.504630
1357.000000	45.412478
1356.000000	46.175217
1355.000000	46.729118
1354.000000	47.022468
1353.000000	47.022349
1352.000000	46.704203
1351.000000	46.042862
1350.000000	45.025354
1349.000000	43.658733
1348.000000	41.955817
1347.000000	39.931245
1346.000000	37.609492
1345.000000	35.039265
1344.000000	32.306629
1343.000000	29.518748
1342.000000	26.769048
1341.000000	24.135434
1340.000000	21.729713
1339.000000	19.713927
1338.000000	18.210802
1337.000000	17.210470
1336.000000	16.591554
1335.000000	16.188818
1334.000000	15.822432
1333.000000	15.320935
1332.000000	14.560874
1331.000000	13.499064
1330.000000	12.171417
1329.000000	10.664110
1328.000000	9.087780
1327.000000	7.557431
1326.000000	6.164181
1325.000000	4.958709
1324.000000	3.965300
1323.000000	3.196277
1322.000000	2.639386
1321.000000	2.253884
1320.000000	1.998284
1319.000000	1.843329
1318.000000	1.758547
1317.000000	1.708149
1316.000000	1.668852
1315.000000	1.638075
1314.000000	1.614063
1313.000000	1.588544
1312.000000	1.563481
1311.000000	1.553910
1310.000000	1.569555
1309.000000	1.609268
1308.000000	1.678447
1307.000000	1.792837
1306.000000	1.959683
1305.000000	2.173883
1304.000000	2.434342
1303.000000	2.747059
1302.000000	3.109408
1301.000000	3.507214
1300.000000	3.932723
1299.000000	4.387753
1298.000000	4.868457
1297.000000	5.363875
1296.000000	5.869340
1295.000000	6.387719
1294.000000	6.915496
1293.000000	7.441875
1292.000000	7.961788
1291.000000	8.476279
1290.000000	8.979158
1289.000000	9.455636
1288.000000	9.893354
1287.000000	10.283088
1286.000000	10.612401
1285.000000	10.872431
1284.000000	11.075726
1283.000000	11.260412
1282.000000	11.475667
1281.000000	11.766977
1280.000000	12.169432
1279.000000	12.697826
1278.000000	13.337825
1277.000000	14.057095
1276.000000	14.824585
1275.000000	15.617436
1274.000000	16.416892
1273.000000	17.207854
1272.000000	17.982787
1271.000000	18.738152
1270.000000	19.469313
1269.000000	20.173438
1268.000000	20.853550
1267.000000	21.513933
1266.000000	22.155911
1265.000000	22.780890
1264.000000	23.392945
1263.000000	23.995965
1262.000000	24.589804
1261.000000	25.172792
1260.000000	25.744337
1259.000000	26.303127
1258.000000	26.847532
1257.000000	27.377857
1256.000000	27.895704
1255.000000	28.401381
1254.000000	28.895051
1253.000000	29.379840
1252.000000	29.859360
1251.000000	30.333971
1250.000000	30.802765
1249.000000	31.266637
1248.000000	31.726089
1247.000000	32.177681
1246.000000	32.616817
1245.000000	33.041937
1244.000000	33.452261
1243.000000	33.845656
1242.000000	34.222020
1241.000000	34.585531
1240.000000	34.940371
1239.000000	35.287232
1238.000000	35.627707
1237.000000	35.966509
1236.000000	36.305768
1235.000000	36.642214
1234.000000	36.972755
1233.000000	37.298407
1232.000000	37.619317
1231.000000	37.932178
1230.000000	38.236836
1229.000000	38.539535
1228.000000	38.846027
1227.000000	39.157285
1226.000000	39.475125
1225.000000	39.805124
1224.000000	40.149963
1223.000000	40.505924
1222.000000	40.869271
1221.000000	41.239164
1220.000000	41.610974
1219.000000	41.974723
1218.000000	42.324607
1217.000000	42.663123
1216.000000	42.992724
1215.000000	43.312111
1214.000000	43.623725
1213.000000	43.935952
1212.000000	44.253696
1211.000000	44.574632
1210.000000	44.898117
1209.000000	45.227623
1208.000000	45.560757
1207.000000	45.887170
1206.000000	46.200295
1205.000000	46.502090
1204.000000	46.792679
1203.000000	47.066992
1202.000000	47.326055
1201.000000	47.579669
1200.000000	47.834170
1199.000000	48.087158
1198.000000	48.337051
1197.000000	48.586237
1196.000000	48.828710
1195.000000	49.047421
1194.000000	49.226978
1193.000000	49.358168
1192.000000	49.429804
1191.000000	49.428036
1190.000000	49.352761
1189.000000	49.224349
1188.000000	49.072439
1187.000000	48.930229
1186.000000	48.837789
1185.000000	48.833431
1184.000000	48.933083
1183.000000	49.125443
1182.000000	49.386703
1181.000000	49.694480
1180.000000	50.026496
1179.000000	50.362138
1178.000000	50.693843
1177.000000	51.023725
1176.000000	51.348568
1175.000000	51.659265
1174.000000	51.956345
1173.000000	52.251780
1172.000000	52.552036
1171.000000	52.852414
1170.000000	53.150238
1169.000000	53.448582
1168.000000	53.742684
1167.000000	54.018808
1166.000000	54.270871
1165.000000	54.505054
1164.000000	54.725651
1163.000000	54.931250
1162.000000	55.129013
1161.000000	55.335835
1160.000000	55.560437
1159.000000	55.798584
1158.000000	56.047869
1157.000000	56.311182
1156.000000	56.581757
1155.000000	56.841414
1154.000000	57.078983
1153.000000	57.295119
1152.000000	57.487517
1151.000000	57.649398
1150.000000	57.787020
1149.000000	57.921589
1148.000000	58.068005
1147.000000	58.227714
1146.000000	58.403888
1145.000000	58.603950
1144.000000	58.822547
1143.000000	59.039484
1142.000000	59.240088
1141.000000	59.422079
1140.000000	59.580048
1139.000000	59.703575
1138.000000	59.795120
1137.000000	59.872831
1136.000000	59.951584
1135.000000	60.037310
1134.000000	60.141499
1133.000000	60.280345
1132.000000	60.453999
1131.000000	60.643633
1130.000000	60.833000
1129.000000	61.016028
1128.000000	61.181712
1127.000000	61.313061
1126.000000	61.407875
1125.000000	61.482303
1124.000000	61.550361
1123.000000	61.617570
1122.000000	61.696551
1121.000000	61.807059
1120.000000	61.954068
1119.000000	62.123405
1118.000000	62.302225
1117.000000	62.485132
1116.000000	62.657793
1115.000000	62.797012
1114.000000	62.894180
1113.000000	62.960665
1112.000000	63.006781
1111.000000	63.036634
1110.000000	63.065003
1109.000000	63.117034
1108.000000	63.204333
1107.000000	63.318366
1106.000000	63.450000
1105.000000	63.593991
1104.000000	63.731492
1103.000000	63.832139
1102.000000	63.878735
1101.000000	63.874719
1100.000000	63.824863
1099.000000	63.729710
1098.000000	63.606991
1097.000000	63.486982
1096.000000	63.386058
1095.000000	63.299726
1094.000000	63.222052
1093.000000	63.148812
1092.000000	63.055846
1091.000000	62.901619
1090.000000	62.655053
1089.000000	62.303551
1088.000000	61.837403
1087.000000	61.244216
1086.000000	60.529075
1085.000000	59.712549
1084.000000	58.801667
1083.000000	57.785861
1082.000000	56.646579
1081.000000	55.362589
1080.000000	53.900398
1079.000000	52.217521
1078.000000	50.293526
1077.000000	48.131408
1076.000000	45.749887
1075.000000	43.187010
1074.000000	40.504211
1073.000000	37.780381
1072.000000	35.091925
1071.000000	32.505089
1070.000000	30.074026
1069.000000	27.840677
1068.000000	25.830783
1067.000000	24.059636
1066.000000	22.534033
1065.000000	21.250740
1064.000000	20.211573
1063.000000	19.415942
1062.000000	18.859784
1061.000000	18.538925
1060.000000	18.447145
1059.000000	18.582404
1058.000000	18.933303
1057.000000	19.484710
1056.000000	20.227239
1055.000000	21.146961
1054.000000	22.225493
1053.000000	23.438022
1052.000000	24.757283
1051.000000	26.152465
1050.000000	27.586121
1049.000000	29.025967
1048.000000	30.447918
1047.000000	31.833377
1046.000000	33.171464
1045.000000	34.463050
1044.000000	35.714461
1043.000000	36.928891
1042.000000	38.107756
1041.000000	39.253140
1040.000000	40.364000
1039.000000	41.431462
1038.000000	42.447060
1037.000000	43.409676
1036.000000	44.318216
1035.000000	45.170347
1034.000000	45.970561
1033.000000	46.733719
1032.000000	47.474475
1031.000000	48.199394
1030.000000	48.915735
1029.000000	49.632282
1028.000000	50.346993
1027.000000	51.044740
1026.000000	51.710945
1025.000000	52.339509
1024.000000	52.922256
1023.000000	53.446888
1022.000000	53.913387
1021.000000	54.337593
1020.000000	54.737155
1019.000000	55.124383
1018.000000	55.515139
1017.000000	55.928193
1016.000000	56.367233
1015.000000	56.817802
1014.000000	57.264304
1013.000000	57.696526
1012.000000	58.098400
1011.000000	58.448210
1010.000000	58.738493
1009.000000	58.981789
1008.000000	59.193693
1007.000000	59.386890
1006.000000	59.582128
1005.000000	59.806555
1004.000000	60.073320
1003.000000	60.374882
1002.000000	60.698776
1001.000000	61.033675
1000.000000	61.358404
999.000000	61.643780
998.000000	61.873120
997.000000	62.049261
996.000000	62.179886
995.000000	62.273955
994.000000	62.354783
993.000000	62.456721
992.000000	62.602293
991.000000	62.794067
990.000000	63.028327
989.000000	63.298644
988.000000	63.582460
987.000000	63.843759
986.000000	64.056724
985.000000	64.215207
984.000000	64.319245
983.000000	64.371555
982.000000	64.392401
981.000000	64.418122
980.000000	64.477788
979.000000	64.583385
978.000000	64.741668
977.000000	64.954754
976.000000	65.204305
975.000000	65.452898
974.000000	65.668602
973.000000	65.834877
972.000000	65.938757
971.000000	65.971427
970.000000	65.946506
969.000000	65.900058
968.000000	65.865745
967.000000	65.864394
966.000000	65.915073
965.000000	66.033542
964.000000	66.212177
963.000000	66.418459
962.000000	66.618175
961.000000	66.787052
960.000000	66.900500
959.000000	66.936842
958.000000	66.898354
957.000000	66.813728
956.000000	66.715247
955.000000	66.628395
954.000000	66.582796
953.000000	66.607709
952.000000	66.707872
951.000000	66.858477
950.000000	67.028105
949.000000	67.189833
948.000000	67.311231
947.000000	67.358332
946.000000	67.320645
945.000000	67.216176
944.000000	67.070946
943.000000	66.910344
942.000000	66.769854
941.000000	66.689179
940.000000	66.685640
939.000000	66.747204
938.000000	66.852081
937.000000	66.977364
936.000000	67.087269
935.000000	67.137783
934.000000	67.103984
933.000000	66.990269
932.000000	66.812682
931.000000	66.592359
930.000000	66.366339
929.000000	66.180882
928.000000	66.063157
927.000000	66.011778
926.000000	66.014767
925.000000	66.055624
924.000000	66.099681
923.000000	66.098111
922.000000	66.016446
921.000000	65.847345
920.000000	65.595524
919.000000	65.272764
918.000000	64.911167
917.000000	64.557185
916.000000	64.244819
915.000000	63.984822
914.000000	63.777839
913.000000	63.616839
912.000000	63.471617
911.000000	63.293193
910.000000	63.042165
909.000000	62.702120
908.000000	62.267897
907.000000	61.741428
906.000000	61.146518
905.000000	60.525459
904.000000	59.912670
903.000000	59.324237
902.000000	58.768356
901.000000	58.246494
900.000000	57.738199
899.000000	57.202290
898.000000	56.602602
897.000000	55.918898
896.000000	55.138220
895.000000	54.254940
894.000000	53.283386
893.000000	52.256358
892.000000	51.201822
891.000000	50.134024
890.000000	49.063170
889.000000	47.995163
888.000000	46.920231
887.000000	45.812694
886.000000	44.648672
885.000000	43.415806
884.000000	42.105925
883.000000	40.715362
882.000000	39.254278
881.000000	37.746463
880.000000	36.215936
879.000000	34.679810
878.000000	33.154214
877.000000	31.655402
876.000000	30.192460
875.000000	28.764475
874.000000	27.369534
873.000000	26.009892
872.000000	24.689643
871.000000	23.412384
870.000000	22.182596
869.000000	21.010391
868.000000	19.907050
867.000000	18.879755
866.000000	17.932142
865.000000	17.065577
864.000000	16.281107
863.000000	15.574408
862.000000	14.936026
861.000000	14.359052
860.000000	13.840201
859.000000	13.377911
858.000000	12.969007
857.000000	12.611615
856.000000	12.307643
855.000000	12.055899
854.000000	11.850880
853.000000	11.687086
852.000000	11.562222
851.000000	11.475457
850.000000	11.424011
849.000000	11.407338
848.000000	11.428164
847.000000	11.487600
846.000000	11.584348
845.000000	11.717491
844.000000	11.889014
843.000000	12.100830
842.000000	12.353251
841.000000	12.649534
840.000000	12.994875
839.000000	13.393174
838.000000	13.846273
837.000000	14.355617
836.000000	14.921776
835.000000	15.539347
834.000000	16.195283
833.000000	16.865554
832.000000	17.504207
831.000000	18.011409
830.000000	18.206844
829.000000	17.848322
828.000000	16.762294
827.000000	15.055383
826.000000	13.213629
825.000000	11.915057
824.000000	11.643221
823.000000	12.424910
822.000000	13.913124
821.000000	15.689730
820.000000	17.471756
819.000000	19.127806
818.000000	20.621812
817.000000	21.964986
816.000000	23.186547
815.000000	24.305793
814.000000	25.335356
813.000000	26.296580
812.000000	27.214956
811.000000	28.101190
810.000000	28.956214
809.000000	29.787673
808.000000	30.603285
807.000000	31.398027
806.000000	32.162322
805.000000	32.897321
804.000000	33.606945
803.000000	34.284768
802.000000	34.927357
801.000000	35.549183
800.000000	36.169678
799.000000	36.795992
798.000000	37.432021
797.000000	38.090260
796.000000	38.776562
795.000000	39.474937
794.000000	40.163005
793.000000	40.829806
792.000000	41.465853
791.000000	42.053014
790.000000	42.582603
789.000000	43.070883
788.000000	43.541837
787.000000	44.008959
786.000000	44.484855
785.000000	44.990070
784.000000	45.535381
783.000000	46.107628
782.000000	46.685588
781.000000	47.255415
780.000000	47.799621
779.000000	48.291138
778.000000	48.715339
777.000000	49.084849
776.000000	49.421197
775.000000	49.738645
774.000000	50.056597
773.000000	50.405571
772.000000	50.804029
771.000000	51.243054
770.000000	51.704672
769.000000	52.177124
768.000000	52.640363
767.000000	53.058808
766.000000	53.406978
765.000000	53.687002
764.000000	53.911533
763.000000	54.090122
762.000000	54.245424
761.000000	54.419035
760.000000	54.642928
759.000000	54.919902
758.000000	55.241020
757.000000	55.599545
756.000000	55.974056
755.000000	56.321646
754.000000	56.607508
753.000000	56.825870
752.000000	56.982396
751.000000	57.080986
750.000000	57.142179
749.000000	57.210479
748.000000	57.323596
747.000000	57.490979
746.000000	57.711993
745.000000	57.989614
744.000000	58.308881
743.000000	58.625733
742.000000	58.896695
741.000000	59.102995
740.000000	59.236126
739.000000	59.288313
738.000000	59.275265
737.000000	59.243445
736.000000	59.236354
735.000000	59.271620
734.000000	59.360975
733.000000	59.521933
732.000000	59.750911
731.000000	60.009128
730.000000	60.254653
729.000000	60.466345
728.000000	60.627447
727.000000	60.717780
726.000000	60.742152
725.000000	60.743909
724.000000	60.771040
723.000000	60.849106
722.000000	60.998168
721.000000	61.244490
720.000000	61.591377
719.000000	62.002969
718.000000	62.436827
717.000000	62.867845
716.000000	63.265852
715.000000	63.586060
714.000000	63.807492
713.000000	63.955692
712.000000	64.070209
711.000000	64.177397
710.000000	64.310547
709.000000	64.517964
708.000000	64.823768
707.000000	65.204961
706.000000	65.622641
705.000000	66.048942
704.000000	66.447687
703.000000	66.764099
702.000000	66.966214
701.000000	67.071550
700.000000	67.112322
699.000000	67.111636
698.000000	67.108441
697.000000	67.167585
696.000000	67.332732
695.000000	67.592160
694.000000	67.916459
693.000000	68.290708
692.000000	68.681042
691.000000	69.018030
690.000000	69.246812
689.000000	69.367199
688.000000	69.400780
687.000000	69.357487
686.000000	69.273296
685.000000	69.229574
684.000000	69.289491
683.000000	69.452518
682.000000	69.700532
681.000000	70.034796
680.000000	70.427217
679.000000	70.793584
678.000000	71.066215
677.000000	71.235424
676.000000	71.301551
675.000000	71.265195
674.000000	71.165224
673.000000	71.089938
672.000000	71.124321
671.000000	71.306436
670.000000	71.648465
669.000000	72.133161
668.000000	72.595329
667.000000	72.852960
666.000000	72.965635
665.000000	73.028883
664.000000	73.058495
663.000000	73.035045
662.000000	72.951477
661.000000	72.840994
660.000000	72.751055
659.000000	72.725051
658.000000	72.805135
657.000000	73.010736
656.000000	73.318673
655.000000	73.689374
654.000000	74.072230
653.000000	74.402576
652.000000	74.625374
651.000000	74.716780
650.000000	74.685680
649.000000	74.562681
648.000000	74.397898
647.000000	74.259724
646.000000	74.212881
645.000000	74.293757
644.000000	74.502354
643.000000	74.810444
642.000000	75.172550
641.000000	75.529351
640.000000	75.815490
639.000000	75.980897
638.000000	76.010215
637.000000	75.922023
636.000000	75.756235
635.000000	75.568048
634.000000	75.427171
633.000000	75.398289
632.000000	75.511372
631.000000	75.755165
630.000000	76.093361
629.000000	76.473901
628.000000	76.828959
627.000000	77.087266
626.000000	77.202069
625.000000	77.170477
624.000000	77.021293
623.000000	76.803337
622.000000	76.587797
621.000000	76.454485
620.000000	76.456399
619.000000	76.602701
618.000000	76.871603
617.000000	77.220833
616.000000	77.581978
615.000000	77.872824
614.000000	78.032646
613.000000	78.039931
612.000000	77.895484
611.000000	77.616269
610.000000	77.251761
609.000000	76.871761
608.000000	76.524662
607.000000	76.208506
606.000000	75.873351
605.000000	75.415828
604.000000	74.650269
603.000000	73.313391
602.000000	71.094183
601.000000	67.715514
600.000000	63.090758
599.000000	57.533661
598.000000	51.811659
597.000000	46.900256
596.000000	43.618936
595.000000	42.373656
594.000000	43.078752
593.000000	45.267112
592.000000	48.347015
591.000000	51.770689
590.000000	55.110968
589.000000	58.129019
588.000000	60.741845
587.000000	62.937728
586.000000	64.729935
585.000000	66.169858
584.000000	67.338278
583.000000	68.326057
582.000000	69.223641
581.000000	70.109469
580.000000	71.019719
579.000000	71.931057
578.000000	72.800066
577.000000	73.592584
576.000000	74.262711
575.000000	74.749102
574.000000	75.023129
573.000000	75.120241
572.000000	75.103750
571.000000	75.034571
570.000000	74.985847
569.000000	75.036019
568.000000	75.223868
567.000000	75.529942
566.000000	75.912290
565.000000	76.332706
564.000000	76.732300
563.000000	77.025324
562.000000	77.153072
561.000000	77.123934
560.000000	76.982730
559.000000	76.778699
558.000000	76.583864
557.000000	76.490918
556.000000	76.558726
555.000000	76.783875
554.000000	77.136610
553.000000	77.584212
552.000000	78.062023
551.000000	78.466204
550.000000	78.716615
549.000000	78.800974
548.000000	78.736610
547.000000	78.541410
546.000000	78.273662
545.000000	78.046239
544.000000	77.955374
543.000000	78.028423
542.000000	78.250970
541.000000	78.595830
540.000000	78.998844
539.000000	79.355224
538.000000	79.580472
537.000000	79.652695
536.000000	79.576221
535.000000	79.359182
534.000000	79.053997
533.000000	78.769530
532.000000	78.603726
531.000000	78.595104
530.000000	78.748669
529.000000	79.055485
528.000000	79.465602
527.000000	79.881383
526.000000	80.207172
525.000000	80.388482
524.000000	80.388060
523.000000	80.167076
522.000000	79.741686
521.000000	79.203116
520.000000	78.645516
519.000000	78.113552
518.000000	77.636859
517.000000	77.263346
516.000000	77.012651
515.000000	76.842167
514.000000	76.693695
513.000000	76.527471
512.000000	76.284956
511.000000	75.881538
510.000000	75.278006
509.000000	74.510135
508.000000	73.616058
507.000000	72.608541
506.000000	71.524320
505.000000	70.419730
504.000000	69.307439
503.000000	68.175796
502.000000	67.094869
501.000000	66.221159
500.000000	65.656268
499.000000	65.377116
498.000000	65.323833
497.000000	65.454329
496.000000	65.713032
495.000000	66.026157
494.000000	66.354029
493.000000	66.715611
492.000000	67.133240
491.000000	67.606475
490.000000	68.142516
489.000000	68.758997
488.000000	69.431065
487.000000	70.084330
486.000000	70.668366
485.000000	71.195408
484.000000	71.689159
483.000000	72.155039
482.000000	72.628018
481.000000	73.180659
480.000000	73.847267
479.000000	74.584342
478.000000	75.321303
477.000000	76.005205
476.000000	76.572323
475.000000	76.929174
474.000000	77.016910
473.000000	76.854327
472.000000	76.518104
471.000000	76.125300
470.000000	75.793107
469.000000	75.612812
468.000000	75.624703
467.000000	75.800766
466.000000	76.082623
465.000000	76.424285
464.000000	76.765766
463.000000	77.008764
462.000000	77.086222
461.000000	77.019238
460.000000	76.855552
459.000000	76.613611
458.000000	76.342677
457.000000	76.176175
456.000000	76.207847
455.000000	76.375433
454.000000	76.590923
453.000000	76.838731
452.000000	77.090359
451.000000	77.245199
450.000000	77.211985
449.000000	76.978996
448.000000	76.540797
447.000000	75.852659
446.000000	74.927402
445.000000	73.862541
444.000000	72.712710
443.000000	71.424071
442.000000	69.958391
441.000000	68.400502
440.000000	66.859423
439.000000	65.374586
438.000000	63.998915
437.000000	62.899338
436.000000	62.273897
435.000000	62.200007
434.000000	62.632146
433.000000	63.517826
432.000000	64.817486
431.000000	66.396109
430.000000	68.074216
429.000000	69.780069
428.000000	71.491447
427.000000	73.084920
426.000000	74.414288
425.000000	75.475837
424.000000	76.314632
423.000000	76.892787
422.000000	77.208246
421.000000	77.422034
420.000000	77.716584
419.000000	78.066457
418.000000	78.393080
417.000000	78.813591
416.000000	79.352480
415.000000	79.852322
414.000000	80.194186
413.000000	80.441051
412.000000	80.653033
411.000000	80.703642
410.000000	80.515835
409.000000	80.281130
408.000000	80.181296
407.000000	80.132216
406.000000	80.121921
405.000000	80.270127
404.000000	80.651107
403.000000	80.993493
402.000000	81.011533
401.000000	80.749706
400.000000	80.344012
