PE IR       SUBTECH     SPECTRUM    ASCII       PEDS        4.00        
   -1
23ms076_nitrito.asc
24/09/05
17:16:33.00
24/09/05
17:16:33.00
Administrator
Sample 1117 By Administrator Date Thursday, September 05 2024
400.000000
#HDR
-1
-1
#GR
cm-1
%T
1.0
0.0
4000.000000
-1.000000
3601
8
99.719369
14.564356
#DATA
4000.000000	81.722362
3999.000000	81.765114
3998.000000	81.808258
3997.000000	81.852215
3996.000000	81.896783
3995.000000	81.941407
3994.000000	81.986055
3993.000000	82.031702
3992.000000	82.079696
3991.000000	82.130304
3990.000000	82.181980
3989.000000	82.232832
3988.000000	82.282614
3987.000000	82.332513
3986.000000	82.383434
3985.000000	82.434690
3984.000000	82.484370
3983.000000	82.530253
3982.000000	82.570700
3981.000000	82.605616
3980.000000	82.636814
3979.000000	82.667971
3978.000000	82.703420
3977.000000	82.745577
3976.000000	82.793551
3975.000000	82.843896
3974.000000	82.893361
3973.000000	82.941229
3972.000000	82.988701
3971.000000	83.037171
3970.000000	83.086173
3969.000000	83.133378
3968.000000	83.176594
3967.000000	83.215039
3966.000000	83.249562
3965.000000	83.282299
3964.000000	83.315855
3963.000000	83.351461
3962.000000	83.388736
3961.000000	83.426350
3960.000000	83.463895
3959.000000	83.503687
3958.000000	83.548097
3957.000000	83.596979
3956.000000	83.648131
3955.000000	83.699084
3954.000000	83.748531
3953.000000	83.795220
3952.000000	83.837406
3951.000000	83.873830
3950.000000	83.904517
3949.000000	83.931272
3948.000000	83.957345
3947.000000	83.986477
3946.000000	84.022451
3945.000000	84.068774
3944.000000	84.125461
3943.000000	84.184523
3942.000000	84.235911
3941.000000	84.277635
3940.000000	84.316278
3939.000000	84.360321
3938.000000	84.410072
3937.000000	84.457400
3936.000000	84.496541
3935.000000	84.530752
3934.000000	84.570382
3933.000000	84.620359
3932.000000	84.675249
3931.000000	84.725829
3930.000000	84.766874
3929.000000	84.803470
3928.000000	84.844543
3927.000000	84.896258
3926.000000	84.957425
3925.000000	85.016619
3924.000000	85.061585
3923.000000	85.090726
3922.000000	85.112187
3921.000000	85.135980
3920.000000	85.167689
3919.000000	85.208459
3918.000000	85.257144
3917.000000	85.310073
3916.000000	85.361629
3915.000000	85.406637
3914.000000	85.446777
3913.000000	85.488674
3912.000000	85.535671
3911.000000	85.586916
3910.000000	85.638580
3909.000000	85.689223
3908.000000	85.742134
3907.000000	85.796230
3906.000000	85.843619
3905.000000	85.872450
3904.000000	85.880069
3903.000000	85.883204
3902.000000	85.904201
3901.000000	85.953672
3900.000000	86.023301
3899.000000	86.091221
3898.000000	86.142216
3897.000000	86.178907
3896.000000	86.213185
3895.000000	86.257686
3894.000000	86.316491
3893.000000	86.383563
3892.000000	86.443978
3891.000000	86.484762
3890.000000	86.504226
3889.000000	86.510054
3888.000000	86.521240
3887.000000	86.560738
3886.000000	86.629002
3885.000000	86.698280
3884.000000	86.744894
3883.000000	86.775120
3882.000000	86.810770
3881.000000	86.860388
3880.000000	86.910671
3879.000000	86.947247
3878.000000	86.973005
3877.000000	87.003760
3876.000000	87.054811
3875.000000	87.123689
3874.000000	87.184842
3873.000000	87.215504
3872.000000	87.224030
3871.000000	87.240120
3870.000000	87.278498
3869.000000	87.326072
3868.000000	87.364262
3867.000000	87.394743
3866.000000	87.437288
3865.000000	87.497973
3864.000000	87.559119
3863.000000	87.605360
3862.000000	87.639167
3861.000000	87.674331
3860.000000	87.723028
3859.000000	87.791755
3858.000000	87.882704
3857.000000	87.987200
3856.000000	88.084199
3855.000000	88.148073
3854.000000	88.169673
3853.000000	88.177289
3852.000000	88.199453
3851.000000	88.224870
3850.000000	88.235989
3849.000000	88.239729
3848.000000	88.248667
3847.000000	88.272613
3846.000000	88.314111
3845.000000	88.367826
3844.000000	88.425984
3843.000000	88.481146
3842.000000	88.529601
3841.000000	88.578075
3840.000000	88.630274
3839.000000	88.680602
3838.000000	88.728141
3837.000000	88.776558
3836.000000	88.825157
3835.000000	88.865754
3834.000000	88.894400
3833.000000	88.918920
3832.000000	88.948151
3831.000000	88.984085
3830.000000	89.026398
3829.000000	89.075085
3828.000000	89.130429
3827.000000	89.190680
3826.000000	89.245395
3825.000000	89.285703
3824.000000	89.316232
3823.000000	89.357638
3822.000000	89.426139
3821.000000	89.504541
3820.000000	89.563489
3819.000000	89.597016
3818.000000	89.621674
3817.000000	89.659289
3816.000000	89.713956
3815.000000	89.769266
3814.000000	89.814099
3813.000000	89.849475
3812.000000	89.880110
3811.000000	89.911650
3810.000000	89.947256
3809.000000	89.987313
3808.000000	90.033898
3807.000000	90.087198
3806.000000	90.141671
3805.000000	90.194340
3804.000000	90.246900
3803.000000	90.312585
3802.000000	90.389813
3801.000000	90.453703
3800.000000	90.491874
3799.000000	90.513876
3798.000000	90.534700
3797.000000	90.562363
3796.000000	90.593988
3795.000000	90.624292
3794.000000	90.655542
3793.000000	90.692721
3792.000000	90.736759
3791.000000	90.786195
3790.000000	90.838302
3789.000000	90.890830
3788.000000	90.944690
3787.000000	91.002366
3786.000000	91.064030
3785.000000	91.124821
3784.000000	91.177348
3783.000000	91.219741
3782.000000	91.258746
3781.000000	91.303230
3780.000000	91.353249
3779.000000	91.399505
3778.000000	91.434640
3777.000000	91.460704
3776.000000	91.485011
3775.000000	91.514260
3774.000000	91.550212
3773.000000	91.589966
3772.000000	91.633472
3771.000000	91.685274
3770.000000	91.744443
3769.000000	91.803779
3768.000000	91.859356
3767.000000	91.914315
3766.000000	91.974032
3765.000000	92.032959
3764.000000	92.078952
3763.000000	92.109865
3762.000000	92.137138
3761.000000	92.173882
3760.000000	92.217174
3759.000000	92.256667
3758.000000	92.292306
3757.000000	92.331145
3756.000000	92.377563
3755.000000	92.430115
3754.000000	92.488427
3753.000000	92.553375
3752.000000	92.618706
3751.000000	92.678633
3750.000000	92.741121
3749.000000	92.812843
3748.000000	92.882952
3747.000000	92.939154
3746.000000	92.984403
3745.000000	93.025775
3744.000000	93.063089
3743.000000	93.096150
3742.000000	93.121276
3741.000000	93.136080
3740.000000	93.145618
3739.000000	93.158180
3738.000000	93.185285
3737.000000	93.234955
3736.000000	93.303871
3735.000000	93.369484
3734.000000	93.417667
3733.000000	93.461876
3732.000000	93.515900
3731.000000	93.576434
3730.000000	93.630178
3729.000000	93.671870
3728.000000	93.712403
3727.000000	93.762013
3726.000000	93.817199
3725.000000	93.869142
3724.000000	93.919769
3723.000000	93.975669
3722.000000	94.035613
3721.000000	94.096499
3720.000000	94.154387
3719.000000	94.208816
3718.000000	94.262435
3717.000000	94.315621
3716.000000	94.368640
3715.000000	94.421107
3714.000000	94.474856
3713.000000	94.532912
3712.000000	94.592774
3711.000000	94.651124
3710.000000	94.710267
3709.000000	94.773317
3708.000000	94.837125
3707.000000	94.895743
3706.000000	94.946514
3705.000000	94.989864
3704.000000	95.028785
3703.000000	95.065291
3702.000000	95.099402
3701.000000	95.131837
3700.000000	95.163980
3699.000000	95.196827
3698.000000	95.235018
3697.000000	95.282034
3696.000000	95.334537
3695.000000	95.387661
3694.000000	95.442189
3693.000000	95.505877
3692.000000	95.580248
3691.000000	95.653027
3690.000000	95.708123
3689.000000	95.750969
3688.000000	95.800996
3687.000000	95.854997
3686.000000	95.893453
3685.000000	95.909060
3684.000000	95.908867
3683.000000	95.904120
3682.000000	95.906596
3681.000000	95.923622
3680.000000	95.956388
3679.000000	95.991995
3678.000000	96.015811
3677.000000	96.032827
3676.000000	96.058604
3675.000000	96.102071
3674.000000	96.152089
3673.000000	96.186903
3672.000000	96.199494
3671.000000	96.207283
3670.000000	96.217429
3669.000000	96.221751
3668.000000	96.221747
3667.000000	96.220182
3666.000000	96.212786
3665.000000	96.199666
3664.000000	96.183280
3663.000000	96.168738
3662.000000	96.160957
3661.000000	96.158515
3660.000000	96.156332
3659.000000	96.144985
3658.000000	96.117574
3657.000000	96.076706
3656.000000	96.034471
3655.000000	96.002873
3654.000000	95.977573
3653.000000	95.946838
3652.000000	95.908966
3651.000000	95.864496
3650.000000	95.800310
3649.000000	95.712816
3648.000000	95.634255
3647.000000	95.588764
3646.000000	95.560606
3645.000000	95.525662
3644.000000	95.477856
3643.000000	95.424658
3642.000000	95.368444
3641.000000	95.303490
3640.000000	95.228851
3639.000000	95.151154
3638.000000	95.074806
3637.000000	94.996403
3636.000000	94.914386
3635.000000	94.835889
3634.000000	94.765978
3633.000000	94.697931
3632.000000	94.616875
3631.000000	94.515077
3630.000000	94.400283
3629.000000	94.287150
3628.000000	94.190865
3627.000000	94.119601
3626.000000	94.058938
3625.000000	93.991295
3624.000000	93.913955
3623.000000	93.831174
3622.000000	93.745080
3621.000000	93.654153
3620.000000	93.554657
3619.000000	93.448281
3618.000000	93.347230
3617.000000	93.260195
3616.000000	93.184007
3615.000000	93.111317
3614.000000	93.033562
3613.000000	92.942906
3612.000000	92.838543
3611.000000	92.727273
3610.000000	92.620180
3609.000000	92.528179
3608.000000	92.449840
3607.000000	92.374851
3606.000000	92.296752
3605.000000	92.215273
3604.000000	92.134114
3603.000000	92.053683
3602.000000	91.971447
3601.000000	91.887446
3600.000000	91.804101
3599.000000	91.721586
3598.000000	91.637824
3597.000000	91.549521
3596.000000	91.457081
3595.000000	91.362602
3594.000000	91.265544
3593.000000	91.166200
3592.000000	91.063994
3591.000000	90.957233
3590.000000	90.848106
3589.000000	90.746560
3588.000000	90.660916
3587.000000	90.591828
3586.000000	90.536396
3585.000000	90.489759
3584.000000	90.444337
3583.000000	90.392862
3582.000000	90.331514
3581.000000	90.259033
3580.000000	90.176275
3579.000000	90.084975
3578.000000	89.987465
3577.000000	89.886971
3576.000000	89.785690
3575.000000	89.684709
3574.000000	89.583245
3573.000000	89.481169
3572.000000	89.379233
3571.000000	89.275991
3570.000000	89.168971
3569.000000	89.062284
3568.000000	88.964633
3567.000000	88.879787
3566.000000	88.804832
3565.000000	88.735765
3564.000000	88.668922
3563.000000	88.602047
3562.000000	88.531612
3561.000000	88.452479
3560.000000	88.361484
3559.000000	88.260297
3558.000000	88.154197
3557.000000	88.048718
3556.000000	87.947131
3555.000000	87.849877
3554.000000	87.755408
3553.000000	87.661107
3552.000000	87.564721
3551.000000	87.463996
3550.000000	87.356429
3549.000000	87.244458
3548.000000	87.136726
3547.000000	87.041477
3546.000000	86.957618
3545.000000	86.876963
3544.000000	86.793094
3543.000000	86.704819
3542.000000	86.612380
3541.000000	86.516062
3540.000000	86.418135
3539.000000	86.322512
3538.000000	86.232415
3537.000000	86.147103
3536.000000	86.062382
3535.000000	85.972951
3534.000000	85.876686
3533.000000	85.777299
3532.000000	85.680672
3531.000000	85.588778
3530.000000	85.497176
3529.000000	85.401830
3528.000000	85.305496
3527.000000	85.215692
3526.000000	85.138822
3525.000000	85.077460
3524.000000	85.028395
3523.000000	84.981584
3522.000000	84.925552
3521.000000	84.857066
3520.000000	84.782731
3519.000000	84.708553
3518.000000	84.632986
3517.000000	84.551969
3516.000000	84.466847
3515.000000	84.382303
3514.000000	84.298937
3513.000000	84.213373
3512.000000	84.124232
3511.000000	84.033959
3510.000000	83.945538
3509.000000	83.861256
3508.000000	83.782855
3507.000000	83.710559
3506.000000	83.642868
3505.000000	83.578963
3504.000000	83.518189
3503.000000	83.455834
3502.000000	83.382957
3501.000000	83.294004
3500.000000	83.193013
3499.000000	83.088752
3498.000000	82.986126
3497.000000	82.884247
3496.000000	82.781480
3495.000000	82.678764
3494.000000	82.578416
3493.000000	82.482614
3492.000000	82.392824
3491.000000	82.308509
3490.000000	82.227115
3489.000000	82.147134
3488.000000	82.068841
3487.000000	81.990291
3486.000000	81.905508
3485.000000	81.808929
3484.000000	81.700548
3483.000000	81.584993
3482.000000	81.467156
3481.000000	81.350858
3480.000000	81.238025
3479.000000	81.126800
3478.000000	81.012796
3477.000000	80.894979
3476.000000	80.777999
3475.000000	80.666415
3474.000000	80.559854
3473.000000	80.456109
3472.000000	80.356419
3471.000000	80.263789
3470.000000	80.177195
3469.000000	80.090661
3468.000000	79.996567
3467.000000	79.888376
3466.000000	79.763017
3465.000000	79.623510
3464.000000	79.478469
3463.000000	79.336392
3462.000000	79.200774
3461.000000	79.071091
3460.000000	78.945457
3459.000000	78.821192
3458.000000	78.695698
3457.000000	78.569053
3456.000000	78.444743
3455.000000	78.324876
3454.000000	78.207299
3453.000000	78.088682
3452.000000	77.968161
3451.000000	77.846463
3450.000000	77.722950
3449.000000	77.596073
3448.000000	77.465099
3447.000000	77.329394
3446.000000	77.188049
3445.000000	77.042014
3444.000000	76.894350
3443.000000	76.746641
3442.000000	76.596965
3441.000000	76.443902
3440.000000	76.290808
3439.000000	76.143029
3438.000000	76.001983
3437.000000	75.864031
3436.000000	75.724395
3435.000000	75.579013
3434.000000	75.424969
3433.000000	75.262755
3432.000000	75.097098
3431.000000	74.932900
3430.000000	74.769428
3429.000000	74.601174
3428.000000	74.424005
3427.000000	74.237826
3426.000000	74.044330
3425.000000	73.845042
3424.000000	73.641763
3423.000000	73.436327
3422.000000	73.229132
3421.000000	73.019520
3420.000000	72.807574
3419.000000	72.593985
3418.000000	72.379000
3417.000000	72.163190
3416.000000	71.948327
3415.000000	71.735599
3414.000000	71.523046
3413.000000	71.306390
3412.000000	71.081726
3411.000000	70.846703
3410.000000	70.600193
3409.000000	70.342117
3408.000000	70.072933
3407.000000	69.792169
3406.000000	69.499399
3405.000000	69.197699
3404.000000	68.894109
3403.000000	68.594630
3402.000000	68.299485
3401.000000	68.003803
3400.000000	67.701122
3399.000000	67.385926
3398.000000	67.056178
3397.000000	66.715444
3396.000000	66.370207
3395.000000	66.023845
3394.000000	65.674395
3393.000000	65.318165
3392.000000	64.951813
3391.000000	64.570231
3390.000000	64.167925
3389.000000	63.744486
3388.000000	63.306243
3387.000000	62.860228
3386.000000	62.408879
3385.000000	61.952342
3384.000000	61.491592
3383.000000	61.027402
3382.000000	60.559096
3381.000000	60.086164
3380.000000	59.608751
3379.000000	59.125001
3378.000000	58.631043
3377.000000	58.124939
3376.000000	57.607138
3375.000000	57.076758
3374.000000	56.531252
3373.000000	55.971346
3372.000000	55.402515
3371.000000	54.828847
3370.000000	54.249537
3369.000000	53.662023
3368.000000	53.065095
3367.000000	52.457796
3366.000000	51.838962
3365.000000	51.210309
3364.000000	50.576344
3363.000000	49.939911
3362.000000	49.300915
3361.000000	48.659238
3360.000000	48.015142
3359.000000	47.366165
3358.000000	46.708086
3357.000000	46.040473
3356.000000	45.366718
3355.000000	44.688706
3354.000000	44.006036
3353.000000	43.320947
3352.000000	42.638638
3351.000000	41.960776
3350.000000	41.283325
3349.000000	40.602410
3348.000000	39.918270
3347.000000	39.232653
3346.000000	38.547170
3345.000000	37.865189
3344.000000	37.190390
3343.000000	36.522042
3342.000000	35.856095
3341.000000	35.192132
3340.000000	34.534653
3339.000000	33.886569
3338.000000	33.246170
3337.000000	32.611364
3336.000000	31.982598
3335.000000	31.360482
3334.000000	30.744902
3333.000000	30.137701
3332.000000	29.541515
3331.000000	28.955609
3330.000000	28.376811
3329.000000	27.804896
3328.000000	27.243662
3327.000000	26.695915
3326.000000	26.161935
3325.000000	25.642357
3324.000000	25.137727
3323.000000	24.646099
3322.000000	24.164884
3321.000000	23.695177
3320.000000	23.240355
3319.000000	22.800301
3318.000000	22.372568
3317.000000	21.957177
3316.000000	21.555867
3315.000000	21.167629
3314.000000	20.789298
3313.000000	20.420554
3312.000000	20.063269
3311.000000	19.717016
3310.000000	19.380710
3309.000000	19.056780
3308.000000	18.749788
3307.000000	18.461361
3306.000000	18.190656
3305.000000	17.938450
3304.000000	17.704451
3303.000000	17.483588
3302.000000	17.269833
3301.000000	17.062304
3300.000000	16.863461
3299.000000	16.672973
3298.000000	16.489378
3297.000000	16.315271
3296.000000	16.154252
3295.000000	16.005170
3294.000000	15.864668
3293.000000	15.733998
3292.000000	15.617057
3291.000000	15.512446
3290.000000	15.414787
3289.000000	15.321969
3288.000000	15.235818
3287.000000	15.156826
3286.000000	15.083590
3285.000000	15.017145
3284.000000	14.959446
3283.000000	14.908884
3282.000000	14.862272
3281.000000	14.819711
3280.000000	14.782839
3279.000000	14.749700
3278.000000	14.717193
3277.000000	14.686923
3276.000000	14.662615
3275.000000	14.643402
3274.000000	14.625482
3273.000000	14.609568
3272.000000	14.600797
3271.000000	14.601498
3270.000000	14.609319
3269.000000	14.621563
3268.000000	14.636475
3267.000000	14.651478
3266.000000	14.664831
3265.000000	14.678554
3264.000000	14.695433
3263.000000	14.714292
3262.000000	14.732426
3261.000000	14.750426
3260.000000	14.770272
3259.000000	14.790858
3258.000000	14.810388
3257.000000	14.831273
3256.000000	14.857225
3255.000000	14.887296
3254.000000	14.917638
3253.000000	14.947400
3252.000000	14.977880
3251.000000	15.007770
3250.000000	15.034796
3249.000000	15.060848
3248.000000	15.090284
3247.000000	15.124036
3246.000000	15.159683
3245.000000	15.195889
3244.000000	15.232506
3243.000000	15.267912
3242.000000	15.300878
3241.000000	15.333511
3240.000000	15.368147
3239.000000	15.402846
3238.000000	15.434179
3237.000000	15.462590
3236.000000	15.491161
3235.000000	15.521134
3234.000000	15.552574
3233.000000	15.586877
3232.000000	15.624036
3231.000000	15.659824
3230.000000	15.690322
3229.000000	15.717145
3228.000000	15.744039
3227.000000	15.770902
3226.000000	15.795654
3225.000000	15.819332
3224.000000	15.844153
3223.000000	15.868861
3222.000000	15.890839
3221.000000	15.910884
3220.000000	15.931158
3219.000000	15.950355
3218.000000	15.965703
3217.000000	15.977744
3216.000000	15.988581
3215.000000	15.997482
3214.000000	16.002586
3213.000000	16.005126
3212.000000	16.007373
3211.000000	16.008426
3210.000000	16.006376
3209.000000	16.002377
3208.000000	15.998464
3207.000000	15.993415
3206.000000	15.984937
3205.000000	15.973878
3204.000000	15.961957
3203.000000	15.947779
3202.000000	15.929234
3201.000000	15.907471
3200.000000	15.884467
3199.000000	15.858932
3198.000000	15.829001
3197.000000	15.796478
3196.000000	15.764111
3195.000000	15.731141
3194.000000	15.695635
3193.000000	15.658797
3192.000000	15.622822
3191.000000	15.586834
3190.000000	15.549165
3189.000000	15.511035
3188.000000	15.473924
3187.000000	15.435948
3186.000000	15.394873
3185.000000	15.352186
3184.000000	15.310126
3183.000000	15.267579
3182.000000	15.223029
3181.000000	15.178610
3180.000000	15.136964
3179.000000	15.096892
3178.000000	15.056259
3177.000000	15.016420
3176.000000	14.979556
3175.000000	14.944509
3174.000000	14.909488
3173.000000	14.875912
3172.000000	14.845374
3171.000000	14.815855
3170.000000	14.785115
3169.000000	14.754958
3168.000000	14.728016
3167.000000	14.703243
3166.000000	14.678842
3165.000000	14.656457
3164.000000	14.638221
3163.000000	14.622739
3162.000000	14.608065
3161.000000	14.595713
3160.000000	14.587502
3159.000000	14.581531
3158.000000	14.575404
3157.000000	14.570112
3156.000000	14.567118
3155.000000	14.565195
3154.000000	14.564356
3153.000000	14.569143
3152.000000	14.582979
3151.000000	14.602703
3150.000000	14.623123
3149.000000	14.643780
3148.000000	14.666903
3147.000000	14.692089
3146.000000	14.718041
3145.000000	14.746321
3144.000000	14.778417
3143.000000	14.812072
3142.000000	14.845102
3141.000000	14.880290
3140.000000	14.921836
3139.000000	14.969290
3138.000000	15.019376
3137.000000	15.071045
3136.000000	15.124654
3135.000000	15.179013
3134.000000	15.233354
3133.000000	15.290065
3132.000000	15.351470
3131.000000	15.416534
3130.000000	15.484017
3129.000000	15.555474
3128.000000	15.631739
3127.000000	15.709675
3126.000000	15.786168
3125.000000	15.862109
3124.000000	15.938888
3123.000000	16.014874
3122.000000	16.089268
3121.000000	16.165712
3120.000000	16.247913
3119.000000	16.334922
3118.000000	16.424883
3117.000000	16.519714
3116.000000	16.621553
3115.000000	16.727842
3114.000000	16.834119
3113.000000	16.939059
3112.000000	17.043229
3111.000000	17.146424
3110.000000	17.250049
3109.000000	17.358323
3108.000000	17.472878
3107.000000	17.589222
3106.000000	17.702371
3105.000000	17.812848
3104.000000	17.923615
3103.000000	18.035054
3102.000000	18.147169
3101.000000	18.262919
3100.000000	18.384770
3099.000000	18.510520
3098.000000	18.636852
3097.000000	18.764101
3096.000000	18.893468
3095.000000	19.022761
3094.000000	19.149284
3093.000000	19.274501
3092.000000	19.401830
3091.000000	19.532002
3090.000000	19.663947
3089.000000	19.797559
3088.000000	19.932252
3087.000000	20.065723
3086.000000	20.197582
3085.000000	20.331495
3084.000000	20.470252
3083.000000	20.611598
3082.000000	20.752354
3081.000000	20.893527
3080.000000	21.037948
3079.000000	21.185660
3078.000000	21.335147
3077.000000	21.486143
3076.000000	21.637765
3075.000000	21.786947
3074.000000	21.932254
3073.000000	22.076456
3072.000000	22.222190
3071.000000	22.368206
3070.000000	22.513359
3069.000000	22.660931
3068.000000	22.814830
3067.000000	22.974086
3066.000000	23.134755
3065.000000	23.294931
3064.000000	23.454290
3063.000000	23.611298
3062.000000	23.764725
3061.000000	23.915959
3060.000000	24.066759
3059.000000	24.216828
3058.000000	24.366366
3057.000000	24.518215
3056.000000	24.674234
3055.000000	24.832009
3054.000000	24.988608
3053.000000	25.145326
3052.000000	25.305397
3051.000000	25.468997
3050.000000	25.633477
3049.000000	25.796574
3048.000000	25.956715
3047.000000	26.112293
3046.000000	26.263550
3045.000000	26.413464
3044.000000	26.564509
3043.000000	26.716550
3042.000000	26.869519
3041.000000	27.025022
3040.000000	27.182830
3039.000000	27.338980
3038.000000	27.490680
3037.000000	27.640630
3036.000000	27.793648
3035.000000	27.951244
3034.000000	28.111980
3033.000000	28.274485
3032.000000	28.437078
3031.000000	28.596776
3030.000000	28.751746
3029.000000	28.902957
3028.000000	29.051593
3027.000000	29.197357
3026.000000	29.341222
3025.000000	29.486625
3024.000000	29.635178
3023.000000	29.784170
3022.000000	29.930966
3021.000000	30.077102
3020.000000	30.225201
3019.000000	30.374584
3018.000000	30.523058
3017.000000	30.670662
3016.000000	30.818659
3015.000000	30.966971
3014.000000	31.115432
3013.000000	31.265512
3012.000000	31.417938
3011.000000	31.570429
3010.000000	31.720208
3009.000000	31.867067
3008.000000	32.012018
3007.000000	32.155255
3006.000000	32.297534
3005.000000	32.441141
3004.000000	32.587062
3003.000000	32.732978
3002.000000	32.876238
3001.000000	33.016994
3000.000000	33.156829
2999.000000	33.296468
2998.000000	33.436415
2997.000000	33.577382
2996.000000	33.718479
2995.000000	33.857676
2994.000000	33.995833
2993.000000	34.137239
2992.000000	34.284024
2991.000000	34.432930
2990.000000	34.579794
2989.000000	34.724159
2988.000000	34.866993
2987.000000	35.007085
2986.000000	35.142815
2985.000000	35.275131
2984.000000	35.405815
2983.000000	35.535047
2982.000000	35.663355
2981.000000	35.793530
2980.000000	35.927574
2979.000000	36.063671
2978.000000	36.199062
2977.000000	36.334162
2976.000000	36.471226
2975.000000	36.610662
2974.000000	36.751132
2973.000000	36.891555
2972.000000	37.030724
2971.000000	37.166725
2970.000000	37.299034
2969.000000	37.429653
2968.000000	37.560056
2967.000000	37.689001
2966.000000	37.815351
2965.000000	37.941014
2964.000000	38.068840
2963.000000	38.199558
2962.000000	38.332887
2961.000000	38.469304
2960.000000	38.608383
2959.000000	38.747463
2958.000000	38.884088
2957.000000	39.017898
2956.000000	39.148688
2955.000000	39.275443
2954.000000	39.399034
2953.000000	39.522389
2952.000000	39.645560
2951.000000	39.763822
2950.000000	39.873730
2949.000000	39.978295
2948.000000	40.083347
2947.000000	40.191588
2946.000000	40.303166
2945.000000	40.419223
2944.000000	40.540664
2943.000000	40.665003
2942.000000	40.788123
2941.000000	40.908470
2940.000000	41.026907
2939.000000	41.143759
2938.000000	41.258708
2937.000000	41.372407
2936.000000	41.485534
2935.000000	41.597189
2934.000000	41.706701
2933.000000	41.816080
2932.000000	41.928527
2931.000000	42.045361
2930.000000	42.166006
2929.000000	42.289502
2928.000000	42.414153
2927.000000	42.537390
2926.000000	42.658015
2925.000000	42.777140
2924.000000	42.895270
2923.000000	43.010322
2922.000000	43.120422
2921.000000	43.226727
2920.000000	43.331484
2919.000000	43.435206
2918.000000	43.537644
2917.000000	43.639732
2916.000000	43.742372
2915.000000	43.844649
2914.000000	43.945115
2913.000000	44.043531
2912.000000	44.140045
2911.000000	44.234066
2910.000000	44.325510
2909.000000	44.415689
2908.000000	44.505547
2907.000000	44.594402
2906.000000	44.681615
2905.000000	44.767763
2904.000000	44.853283
2903.000000	44.937148
2902.000000	45.020068
2901.000000	45.104864
2900.000000	45.194097
2899.000000	45.288156
2898.000000	45.385982
2897.000000	45.486443
2896.000000	45.587049
2895.000000	45.683950
2894.000000	45.775066
2893.000000	45.861755
2892.000000	45.945737
2891.000000	46.026295
2890.000000	46.102153
2889.000000	46.174185
2888.000000	46.244212
2887.000000	46.312736
2886.000000	46.379859
2885.000000	46.446963
2884.000000	46.515450
2883.000000	46.584910
2882.000000	46.654243
2881.000000	46.723370
2880.000000	46.792167
2879.000000	46.859057
2878.000000	46.922609
2877.000000	46.983614
2876.000000	47.043946
2875.000000	47.104074
2874.000000	47.162973
2873.000000	47.219599
2872.000000	47.273575
2871.000000	47.325953
2870.000000	47.380417
2869.000000	47.442223
2868.000000	47.514380
2867.000000	47.595890
2866.000000	47.684627
2865.000000	47.780001
2864.000000	47.881748
2863.000000	47.988263
2862.000000	48.097886
2861.000000	48.210066
2860.000000	48.323617
2859.000000	48.435677
2858.000000	48.544476
2857.000000	48.651754
2856.000000	48.760571
2855.000000	48.872024
2854.000000	48.985569
2853.000000	49.100947
2852.000000	49.217919
2851.000000	49.335288
2850.000000	49.451824
2849.000000	49.566977
2848.000000	49.679379
2847.000000	49.786187
2846.000000	49.885536
2845.000000	49.978487
2844.000000	50.067247
2843.000000	50.152912
2842.000000	50.236528
2841.000000	50.320649
2840.000000	50.407444
2839.000000	50.496143
2838.000000	50.584353
2837.000000	50.671472
2836.000000	50.759229
2835.000000	50.849286
2834.000000	50.941702
2833.000000	51.035174
2832.000000	51.127528
2831.000000	51.216412
2830.000000	51.300712
2829.000000	51.381073
2828.000000	51.458333
2827.000000	51.532347
2826.000000	51.603158
2825.000000	51.672227
2824.000000	51.741400
2823.000000	51.811549
2822.000000	51.883323
2821.000000	51.958192
2820.000000	52.037352
2819.000000	52.120243
2818.000000	52.205318
2817.000000	52.291490
2816.000000	52.377750
2815.000000	52.462348
2814.000000	52.543783
2813.000000	52.622085
2812.000000	52.698045
2811.000000	52.771695
2810.000000	52.842531
2809.000000	52.910703
2808.000000	52.977060
2807.000000	53.042650
2806.000000	53.109027
2805.000000	53.178139
2804.000000	53.250791
2803.000000	53.325856
2802.000000	53.401891
2801.000000	53.478818
2800.000000	53.557117
2799.000000	53.636138
2798.000000	53.714187
2797.000000	53.789764
2796.000000	53.861936
2795.000000	53.930310
2794.000000	53.995611
2793.000000	54.059592
2792.000000	54.123538
2791.000000	54.187421
2790.000000	54.251009
2789.000000	54.314732
2788.000000	54.378675
2787.000000	54.441852
2786.000000	54.503558
2785.000000	54.564518
2784.000000	54.625676
2783.000000	54.686852
2782.000000	54.747609
2781.000000	54.808416
2780.000000	54.869754
2779.000000	54.931086
2778.000000	54.992073
2777.000000	55.053883
2776.000000	55.117746
2775.000000	55.182721
2774.000000	55.246270
2773.000000	55.306677
2772.000000	55.363745
2771.000000	55.417721
2770.000000	55.468871
2769.000000	55.517862
2768.000000	55.565478
2767.000000	55.612048
2766.000000	55.657947
2765.000000	55.704235
2764.000000	55.751925
2763.000000	55.801188
2762.000000	55.852120
2761.000000	55.905594
2760.000000	55.962236
2759.000000	56.021104
2758.000000	56.080387
2757.000000	56.138907
2756.000000	56.195932
2755.000000	56.250023
2754.000000	56.299401
2753.000000	56.343423
2752.000000	56.382791
2751.000000	56.418638
2750.000000	56.452271
2749.000000	56.485308
2748.000000	56.519074
2747.000000	56.553996
2746.000000	56.590368
2745.000000	56.629381
2744.000000	56.672433
2743.000000	56.719632
2742.000000	56.769791
2741.000000	56.821563
2740.000000	56.873762
2739.000000	56.924956
2738.000000	56.973728
2737.000000	57.019272
2736.000000	57.061211
2735.000000	57.099095
2734.000000	57.132683
2733.000000	57.162560
2732.000000	57.189940
2731.000000	57.216255
2730.000000	57.243503
2729.000000	57.274303
2728.000000	57.310531
2727.000000	57.352016
2726.000000	57.397060
2725.000000	57.443950
2724.000000	57.491566
2723.000000	57.539023
2722.000000	57.585470
2721.000000	57.630078
2720.000000	57.671884
2719.000000	57.710143
2718.000000	57.745288
2717.000000	57.778829
2716.000000	57.811732
2715.000000	57.843615
2714.000000	57.874076
2713.000000	57.904054
2712.000000	57.935057
2711.000000	57.967578
2710.000000	58.001091
2709.000000	58.035010
2708.000000	58.068828
2707.000000	58.101839
2706.000000	58.133565
2705.000000	58.164167
2704.000000	58.193779
2703.000000	58.221903
2702.000000	58.248064
2701.000000	58.272445
2700.000000	58.295317
2699.000000	58.316428
2698.000000	58.335624
2697.000000	58.353450
2696.000000	58.370218
2695.000000	58.385234
2694.000000	58.397719
2693.000000	58.407873
2692.000000	58.416293
2691.000000	58.422909
2690.000000	58.427511
2689.000000	58.430710
2688.000000	58.433429
2687.000000	58.436037
2686.000000	58.438840
2685.000000	58.442810
2684.000000	58.448854
2683.000000	58.456835
2682.000000	58.466169
2681.000000	58.476693
2680.000000	58.487877
2679.000000	58.497827
2678.000000	58.504411
2677.000000	58.507180
2676.000000	58.507161
2675.000000	58.505188
2674.000000	58.501559
2673.000000	58.497075
2672.000000	58.493390
2671.000000	58.492541
2670.000000	58.496862
2669.000000	58.508890
2668.000000	58.530399
2667.000000	58.561377
2666.000000	58.600825
2665.000000	58.648075
2664.000000	58.702288
2663.000000	58.761563
2662.000000	58.823312
2661.000000	58.885497
2660.000000	58.946848
2659.000000	59.006061
2658.000000	59.062035
2657.000000	59.114746
2656.000000	59.165188
2655.000000	59.214670
2654.000000	59.264743
2653.000000	59.317399
2652.000000	59.374272
2651.000000	59.435656
2650.000000	59.500925
2649.000000	59.569582
2648.000000	59.641243
2647.000000	59.714764
2646.000000	59.788144
2645.000000	59.859219
2644.000000	59.925944
2643.000000	59.986346
2642.000000	60.039237
2641.000000	60.084915
2640.000000	60.124416
2639.000000	60.158500
2638.000000	60.187894
2637.000000	60.214374
2636.000000	60.240663
2635.000000	60.268939
2634.000000	60.300195
2633.000000	60.334862
2632.000000	60.373177
2631.000000	60.414823
2630.000000	60.458769
2629.000000	60.503550
2628.000000	60.547271
2627.000000	60.587614
2626.000000	60.622601
2625.000000	60.651480
2624.000000	60.674623
2623.000000	60.692687
2622.000000	60.706440
2621.000000	60.717305
2620.000000	60.727075
2619.000000	60.737141
2618.000000	60.748435
2617.000000	60.761928
2616.000000	60.778568
2615.000000	60.798682
2614.000000	60.821873
2613.000000	60.847391
2612.000000	60.874074
2611.000000	60.900122
2610.000000	60.923548
2609.000000	60.942898
2608.000000	60.957173
2607.000000	60.965374
2606.000000	60.967002
2605.000000	60.962605
2604.000000	60.953297
2603.000000	60.939935
2602.000000	60.923172
2601.000000	60.904315
2600.000000	60.885063
2599.000000	60.866478
2598.000000	60.849032
2597.000000	60.833541
2596.000000	60.821362
2595.000000	60.813745
2594.000000	60.811605
2593.000000	60.815749
2592.000000	60.826946
2591.000000	60.845439
2590.000000	60.871116
2589.000000	60.904136
2588.000000	60.944541
2587.000000	60.991998
2586.000000	61.045934
2585.000000	61.105950
2584.000000	61.171735
2583.000000	61.242408
2582.000000	61.317033
2581.000000	61.395169
2580.000000	61.476528
2579.000000	61.560522
2578.000000	61.646534
2577.000000	61.734818
2576.000000	61.826129
2575.000000	61.920496
2574.000000	62.017096
2573.000000	62.115156
2572.000000	62.214534
2571.000000	62.315135
2570.000000	62.416313
2569.000000	62.517091
2568.000000	62.616474
2567.000000	62.713369
2566.000000	62.806698
2565.000000	62.895935
2564.000000	62.981266
2563.000000	63.063255
2562.000000	63.142574
2561.000000	63.220198
2560.000000	63.297472
2559.000000	63.375646
2558.000000	63.455630
2557.000000	63.538132
2556.000000	63.623490
2555.000000	63.711207
2554.000000	63.800011
2553.000000	63.888549
2552.000000	63.975678
2551.000000	64.059980
2550.000000	64.139683
2549.000000	64.213296
2548.000000	64.280232
2547.000000	64.340532
2546.000000	64.394441
2545.000000	64.442859
2544.000000	64.487325
2543.000000	64.529394
2542.000000	64.570220
2541.000000	64.610866
2540.000000	64.652673
2539.000000	64.696464
2538.000000	64.741777
2537.000000	64.787061
2536.000000	64.830042
2535.000000	64.867916
2534.000000	64.897498
2533.000000	64.916191
2532.000000	64.922752
2531.000000	64.916645
2530.000000	64.897848
2529.000000	64.867166
2528.000000	64.826615
2527.000000	64.779118
2526.000000	64.727864
2525.000000	64.676802
2524.000000	64.630694
2523.000000	64.593953
2522.000000	64.569446
2521.000000	64.558762
2520.000000	64.562606
2519.000000	64.580737
2518.000000	64.611885
2517.000000	64.653906
2516.000000	64.704806
2515.000000	64.762647
2514.000000	64.825418
2513.000000	64.891496
2512.000000	64.959592
2511.000000	65.028674
2510.000000	65.097795
2509.000000	65.166579
2508.000000	65.235513
2507.000000	65.305081
2506.000000	65.375033
2505.000000	65.444687
2504.000000	65.513648
2503.000000	65.581742
2502.000000	65.648638
2501.000000	65.714012
2500.000000	65.777878
2499.000000	65.840261
2498.000000	65.900743
2497.000000	65.958958
2496.000000	66.015111
2495.000000	66.069535
2494.000000	66.121976
2493.000000	66.171695
2492.000000	66.218259
2491.000000	66.261501
2490.000000	66.301082
2489.000000	66.336713
2488.000000	66.368404
2487.000000	66.396338
2486.000000	66.420617
2485.000000	66.441792
2484.000000	66.461409
2483.000000	66.481290
2482.000000	66.502696
2481.000000	66.526516
2480.000000	66.553766
2479.000000	66.585156
2478.000000	66.620452
2477.000000	66.658757
2476.000000	66.699047
2475.000000	66.739787
2474.000000	66.778420
2473.000000	66.812104
2472.000000	66.839002
2471.000000	66.858436
2470.000000	66.870278
2469.000000	66.875251
2468.000000	66.875418
2467.000000	66.873727
2466.000000	66.873044
2465.000000	66.875933
2464.000000	66.884870
2463.000000	66.901732
2462.000000	66.927099
2461.000000	66.960461
2460.000000	67.000753
2459.000000	67.045816
2458.000000	67.091980
2457.000000	67.135049
2456.000000	67.171844
2455.000000	67.200457
2454.000000	67.219626
2453.000000	67.228885
2452.000000	67.229345
2451.000000	67.223691
2450.000000	67.215326
2449.000000	67.208126
2448.000000	67.206237
2447.000000	67.213031
2446.000000	67.230078
2445.000000	67.257497
2444.000000	67.294528
2443.000000	67.339205
2442.000000	67.387927
2441.000000	67.436354
2440.000000	67.480970
2439.000000	67.519218
2438.000000	67.548888
2437.000000	67.568518
2436.000000	67.578552
2435.000000	67.581038
2434.000000	67.578482
2433.000000	67.573535
2432.000000	67.569327
2431.000000	67.569168
2430.000000	67.575753
2429.000000	67.591151
2428.000000	67.617064
2427.000000	67.654092
2426.000000	67.700472
2425.000000	67.752400
2424.000000	67.805296
2423.000000	67.854583
2422.000000	67.896192
2421.000000	67.927742
2420.000000	67.949653
2419.000000	67.964417
2418.000000	67.974946
2417.000000	67.984077
2416.000000	67.995051
2415.000000	68.010932
2414.000000	68.033392
2413.000000	68.062640
2412.000000	68.098190
2411.000000	68.138720
2410.000000	68.181546
2409.000000	68.223435
2408.000000	68.262126
2407.000000	68.296480
2406.000000	68.325559
2405.000000	68.348802
2404.000000	68.367115
2403.000000	68.382784
2402.000000	68.398236
2401.000000	68.415688
2400.000000	68.437683
2399.000000	68.466679
2398.000000	68.503675
2397.000000	68.547902
2396.000000	68.597559
2395.000000	68.650103
2394.000000	68.702107
2393.000000	68.750077
2392.000000	68.791902
2391.000000	68.826930
2390.000000	68.855022
2389.000000	68.876605
2388.000000	68.893456
2387.000000	68.908403
2386.000000	68.924131
2385.000000	68.942986
2384.000000	68.967821
2383.000000	69.001005
2382.000000	69.042976
2381.000000	69.092371
2380.000000	69.147675
2379.000000	69.208403
2378.000000	69.273444
2377.000000	69.340231
2376.000000	69.406099
2375.000000	69.468967
2374.000000	69.526751
2373.000000	69.576711
2372.000000	69.617214
2371.000000	69.649687
2370.000000	69.677829
2369.000000	69.705199
2368.000000	69.736201
2367.000000	69.776707
2366.000000	69.829963
2365.000000	69.893945
2364.000000	69.966298
2363.000000	70.047276
2362.000000	70.132762
2361.000000	70.216488
2360.000000	70.294892
2359.000000	70.366582
2358.000000	70.433080
2357.000000	70.490570
2356.000000	70.537229
2355.000000	70.574987
2354.000000	70.600167
2353.000000	70.611520
2352.000000	70.624689
2351.000000	70.673194
2350.000000	70.768442
2349.000000	70.886137
2348.000000	70.994360
2347.000000	71.070326
2346.000000	71.119692
2345.000000	71.167028
2344.000000	71.237528
2343.000000	71.327620
2342.000000	71.409055
2341.000000	71.469688
2340.000000	71.511309
2339.000000	71.544017
2338.000000	71.575661
2337.000000	71.615951
2336.000000	71.673647
2335.000000	71.752601
2334.000000	71.843601
2333.000000	71.933865
2332.000000	72.014640
2331.000000	72.090871
2330.000000	72.167125
2329.000000	72.243564
2328.000000	72.322670
2327.000000	72.400417
2326.000000	72.473729
2325.000000	72.534257
2324.000000	72.584153
2323.000000	72.632627
2322.000000	72.686183
2321.000000	72.749264
2320.000000	72.820192
2319.000000	72.900097
2318.000000	72.983727
2317.000000	73.064958
2316.000000	73.136213
2315.000000	73.194563
2314.000000	73.240075
2313.000000	73.276444
2312.000000	73.310001
2311.000000	73.345757
2310.000000	73.385797
2309.000000	73.429859
2308.000000	73.480658
2307.000000	73.541291
2306.000000	73.612672
2305.000000	73.692265
2304.000000	73.777267
2303.000000	73.865340
2302.000000	73.952731
2301.000000	74.035696
2300.000000	74.112455
2299.000000	74.181996
2298.000000	74.242203
2297.000000	74.290728
2296.000000	74.329401
2295.000000	74.362428
2294.000000	74.394271
2293.000000	74.427751
2292.000000	74.467295
2291.000000	74.516959
2290.000000	74.578134
2289.000000	74.649037
2288.000000	74.728166
2287.000000	74.814024
2286.000000	74.902563
2285.000000	74.987499
2284.000000	75.063582
2283.000000	75.127685
2282.000000	75.177176
2281.000000	75.211216
2280.000000	75.232997
2279.000000	75.248666
2278.000000	75.263001
2277.000000	75.279237
2276.000000	75.301319
2275.000000	75.333728
2274.000000	75.378348
2273.000000	75.434018
2272.000000	75.499081
2271.000000	75.571182
2270.000000	75.645320
2269.000000	75.714911
2268.000000	75.775532
2267.000000	75.825364
2266.000000	75.862807
2265.000000	75.887007
2264.000000	75.900853
2263.000000	75.909779
2262.000000	75.918041
2261.000000	75.928086
2260.000000	75.943317
2259.000000	75.967628
2258.000000	76.001834
2257.000000	76.043905
2256.000000	76.091737
2255.000000	76.143207
2254.000000	76.193281
2253.000000	76.235357
2252.000000	76.265831
2251.000000	76.284549
2250.000000	76.292033
2249.000000	76.288509
2248.000000	76.277251
2247.000000	76.264120
2246.000000	76.252999
2245.000000	76.245531
2244.000000	76.244181
2243.000000	76.252058
2242.000000	76.268948
2241.000000	76.290769
2240.000000	76.313273
2239.000000	76.333378
2238.000000	76.346991
2237.000000	76.349195
2236.000000	76.337658
2235.000000	76.313274
2234.000000	76.277557
2233.000000	76.232604
2232.000000	76.183485
2231.000000	76.137353
2230.000000	76.099357
2229.000000	76.071875
2228.000000	76.056893
2227.000000	76.055722
2226.000000	76.066037
2225.000000	76.082253
2224.000000	76.099104
2223.000000	76.112285
2222.000000	76.116222
2221.000000	76.105172
2220.000000	76.077409
2219.000000	76.035577
2218.000000	75.983218
2217.000000	75.924009
2216.000000	75.864190
2215.000000	75.811790
2214.000000	75.772772
2213.000000	75.750062
2212.000000	75.745741
2211.000000	75.760579
2210.000000	75.791120
2209.000000	75.830324
2208.000000	75.871329
2207.000000	75.908338
2206.000000	75.934624
2205.000000	75.943985
2204.000000	75.934833
2203.000000	75.910144
2202.000000	75.873713
2201.000000	75.829801
2200.000000	75.785729
2199.000000	75.750586
2198.000000	75.730507
2197.000000	75.727891
2196.000000	75.744710
2195.000000	75.782320
2194.000000	75.837651
2193.000000	75.902950
2192.000000	75.970140
2191.000000	76.032531
2190.000000	76.082982
2189.000000	76.114760
2188.000000	76.125562
2187.000000	76.117874
2186.000000	76.095183
2185.000000	76.061318
2184.000000	76.023231
2183.000000	75.990256
2182.000000	75.969375
2181.000000	75.963951
2180.000000	75.976335
2179.000000	76.007685
2178.000000	76.054626
2177.000000	76.109536
2176.000000	76.164988
2175.000000	76.215226
2174.000000	76.253904
2173.000000	76.274872
2172.000000	76.276462
2171.000000	76.261619
2170.000000	76.233778
2169.000000	76.196217
2168.000000	76.155420
2167.000000	76.120490
2166.000000	76.098045
2165.000000	76.090376
2164.000000	76.098468
2163.000000	76.122930
2162.000000	76.161119
2161.000000	76.206932
2160.000000	76.254388
2159.000000	76.298698
2158.000000	76.333948
2157.000000	76.354179
2156.000000	76.357776
2155.000000	76.347784
2154.000000	76.327800
2153.000000	76.301041
2152.000000	76.273167
2151.000000	76.251676
2150.000000	76.241391
2149.000000	76.243389
2148.000000	76.258219
2147.000000	76.286092
2146.000000	76.323504
2145.000000	76.363605
2144.000000	76.400884
2143.000000	76.432165
2142.000000	76.453550
2141.000000	76.461041
2140.000000	76.454865
2139.000000	76.439311
2138.000000	76.418003
2137.000000	76.393403
2136.000000	76.370794
2135.000000	76.357668
2134.000000	76.357884
2133.000000	76.370331
2132.000000	76.393366
2131.000000	76.426153
2130.000000	76.465017
2129.000000	76.503169
2128.000000	76.535489
2127.000000	76.560141
2126.000000	76.575191
2125.000000	76.578201
2124.000000	76.570378
2123.000000	76.556910
2122.000000	76.542205
2121.000000	76.528737
2120.000000	76.520893
2119.000000	76.524777
2118.000000	76.542883
2117.000000	76.572962
2116.000000	76.612786
2115.000000	76.661655
2114.000000	76.716219
2113.000000	76.769502
2112.000000	76.816021
2111.000000	76.854252
2110.000000	76.883348
2109.000000	76.902300
2108.000000	76.913601
2107.000000	76.923368
2106.000000	76.936545
2105.000000	76.955777
2104.000000	76.985187
2103.000000	77.030192
2102.000000	77.092057
2101.000000	77.166811
2100.000000	77.250529
2099.000000	77.341258
2098.000000	77.434814
2097.000000	77.523776
2096.000000	77.603031
2095.000000	77.672253
2094.000000	77.731380
2093.000000	77.778444
2092.000000	77.814198
2091.000000	77.844642
2090.000000	77.876774
2089.000000	77.914968
2088.000000	77.962404
2087.000000	78.021633
2086.000000	78.091414
2085.000000	78.166674
2084.000000	78.243157
2083.000000	78.318604
2082.000000	78.388513
2081.000000	78.445681
2080.000000	78.485818
2079.000000	78.509837
2078.000000	78.519850
2077.000000	78.516928
2076.000000	78.504398
2075.000000	78.488830
2074.000000	78.475443
2073.000000	78.466566
2072.000000	78.465221
2071.000000	78.475486
2070.000000	78.498014
2069.000000	78.528257
2068.000000	78.560064
2067.000000	78.588341
2066.000000	78.609029
2065.000000	78.620896
2064.000000	78.626718
2063.000000	78.628966
2062.000000	78.625490
2061.000000	78.613795
2060.000000	78.598683
2059.000000	78.590352
2058.000000	78.595202
2057.000000	78.613855
2056.000000	78.647440
2055.000000	78.698596
2054.000000	78.765520
2053.000000	78.841502
2052.000000	78.921270
2051.000000	79.002374
2050.000000	79.080302
2049.000000	79.148804
2048.000000	79.206051
2047.000000	79.255607
2046.000000	79.300948
2045.000000	79.343368
2044.000000	79.385875
2043.000000	79.434525
2042.000000	79.495381
2041.000000	79.573544
2040.000000	79.673542
2039.000000	79.796197
2038.000000	79.935103
2037.000000	80.080282
2036.000000	80.225780
2035.000000	80.369549
2034.000000	80.507174
2033.000000	80.632252
2032.000000	80.743312
2031.000000	80.844183
2030.000000	80.937445
2029.000000	81.023782
2028.000000	81.107840
2027.000000	81.198102
2026.000000	81.299523
2025.000000	81.412287
2024.000000	81.537661
2023.000000	81.678270
2022.000000	81.831788
2021.000000	81.989352
2020.000000	82.141238
2019.000000	82.280758
2018.000000	82.404709
2017.000000	82.515474
2016.000000	82.620089
2015.000000	82.722048
2014.000000	82.816517
2013.000000	82.898222
2012.000000	82.971549
2011.000000	83.047152
2010.000000	83.130964
2009.000000	83.222887
2008.000000	83.323900
2007.000000	83.436203
2006.000000	83.556148
2005.000000	83.675395
2004.000000	83.788924
2003.000000	83.895406
2002.000000	83.990838
2001.000000	84.069120
2000.000000	84.130886
1999.000000	84.183337
1998.000000	84.230588
1997.000000	84.273769
1996.000000	84.317208
1995.000000	84.364156
1994.000000	84.410863
1993.000000	84.457124
1992.000000	84.518729
1991.000000	84.610433
1990.000000	84.720463
1989.000000	84.822535
1988.000000	84.906451
1987.000000	84.979249
1986.000000	85.042905
1985.000000	85.089644
1984.000000	85.118556
1983.000000	85.139629
1982.000000	85.159222
1981.000000	85.176820
1980.000000	85.198359
1979.000000	85.235648
1978.000000	85.290010
1977.000000	85.352799
1976.000000	85.422221
1975.000000	85.502743
1974.000000	85.588281
1973.000000	85.663990
1972.000000	85.725115
1971.000000	85.775839
1970.000000	85.810037
1969.000000	85.813613
1968.000000	85.789444
1967.000000	85.762914
1966.000000	85.754308
1965.000000	85.761695
1964.000000	85.778671
1963.000000	85.808106
1962.000000	85.851961
1961.000000	85.906789
1960.000000	85.973591
1959.000000	86.055445
1958.000000	86.142832
1957.000000	86.217329
1956.000000	86.272625
1955.000000	86.315725
1954.000000	86.347000
1953.000000	86.357175
1952.000000	86.344727
1951.000000	86.321138
1950.000000	86.295034
1949.000000	86.265548
1948.000000	86.236946
1947.000000	86.222818
1946.000000	86.227935
1945.000000	86.242324
1944.000000	86.260533
1943.000000	86.296940
1942.000000	86.370346
1941.000000	86.473047
1940.000000	86.575954
1939.000000	86.657379
1938.000000	86.707214
1937.000000	86.722185
1936.000000	86.710116
1935.000000	86.684051
1934.000000	86.649178
1933.000000	86.605510
1932.000000	86.559969
1931.000000	86.527318
1930.000000	86.514702
1929.000000	86.516387
1928.000000	86.531025
1927.000000	86.565370
1926.000000	86.616207
1925.000000	86.662516
1924.000000	86.685338
1923.000000	86.693583
1922.000000	86.707142
1921.000000	86.721196
1920.000000	86.719019
1919.000000	86.700270
1918.000000	86.683185
1917.000000	86.680617
1916.000000	86.680180
1915.000000	86.667543
1914.000000	86.645220
1913.000000	86.620382
1912.000000	86.596525
1911.000000	86.577588
1910.000000	86.568687
1909.000000	86.572564
1908.000000	86.590166
1907.000000	86.619859
1906.000000	86.655336
1905.000000	86.684715
1904.000000	86.698280
1903.000000	86.699561
1902.000000	86.696338
1901.000000	86.687312
1900.000000	86.669684
1899.000000	86.647723
1898.000000	86.625622
1897.000000	86.598421
1896.000000	86.561547
1895.000000	86.527375
1894.000000	86.512256
1893.000000	86.510488
1892.000000	86.503851
1891.000000	86.487499
1890.000000	86.477836
1889.000000	86.498794
1888.000000	86.550667
1887.000000	86.610179
1886.000000	86.659123
1885.000000	86.692274
1884.000000	86.714197
1883.000000	86.734683
1882.000000	86.755756
1881.000000	86.766997
1880.000000	86.761636
1879.000000	86.745456
1878.000000	86.725134
1877.000000	86.699794
1876.000000	86.667035
1875.000000	86.629315
1874.000000	86.587698
1873.000000	86.537223
1872.000000	86.478558
1871.000000	86.426992
1870.000000	86.397322
1869.000000	86.400812
1868.000000	86.449370
1867.000000	86.532843
1866.000000	86.620437
1865.000000	86.686354
1864.000000	86.719354
1863.000000	86.721384
1862.000000	86.699743
1861.000000	86.658793
1860.000000	86.601509
1859.000000	86.535900
1858.000000	86.471699
1857.000000	86.413580
1856.000000	86.362946
1855.000000	86.324841
1854.000000	86.304791
1853.000000	86.300814
1852.000000	86.310458
1851.000000	86.332278
1850.000000	86.350963
1849.000000	86.341805
1848.000000	86.300111
1847.000000	86.250847
1846.000000	86.217618
1845.000000	86.195666
1844.000000	86.181282
1843.000000	86.176994
1842.000000	86.157092
1841.000000	86.100280
1840.000000	86.018669
1839.000000	85.933936
1838.000000	85.860245
1837.000000	85.803326
1836.000000	85.765924
1835.000000	85.746922
1834.000000	85.733511
1833.000000	85.710829
1832.000000	85.683851
1831.000000	85.658692
1830.000000	85.637383
1829.000000	85.626146
1828.000000	85.606981
1827.000000	85.555475
1826.000000	85.469795
1825.000000	85.375394
1824.000000	85.308523
1823.000000	85.269118
1822.000000	85.227496
1821.000000	85.170372
1820.000000	85.108479
1819.000000	85.052877
1818.000000	85.006758
1817.000000	84.976159
1816.000000	84.966330
1815.000000	84.964106
1814.000000	84.941583
1813.000000	84.886136
1812.000000	84.811559
1811.000000	84.740100
1810.000000	84.683571
1809.000000	84.635895
1808.000000	84.584673
1807.000000	84.525964
1806.000000	84.460916
1805.000000	84.383372
1804.000000	84.283377
1803.000000	84.162758
1802.000000	84.043142
1801.000000	83.964158
1800.000000	83.948828
1799.000000	83.967968
1798.000000	83.964118
1797.000000	83.903025
1796.000000	83.798026
1795.000000	83.690428
1794.000000	83.606004
1793.000000	83.540423
1792.000000	83.501512
1791.000000	83.509340
1790.000000	83.542427
1789.000000	83.558615
1788.000000	83.538952
1787.000000	83.485797
1786.000000	83.414357
1785.000000	83.345369
1784.000000	83.290575
1783.000000	83.239349
1782.000000	83.164236
1781.000000	83.057901
1780.000000	82.954543
1779.000000	82.883353
1778.000000	82.822302
1777.000000	82.737690
1776.000000	82.642563
1775.000000	82.583044
1774.000000	82.570347
1773.000000	82.564649
1772.000000	82.560623
1771.000000	82.572478
1770.000000	82.564124
1769.000000	82.512634
1768.000000	82.448472
1767.000000	82.397001
1766.000000	82.330190
1765.000000	82.210578
1764.000000	82.051887
1763.000000	81.893394
1762.000000	81.764783
1761.000000	81.678583
1760.000000	81.616189
1759.000000	81.559889
1758.000000	81.510370
1757.000000	81.479067
1756.000000	81.491853
1755.000000	81.534023
1754.000000	81.542976
1753.000000	81.475424
1752.000000	81.341375
1751.000000	81.194257
1750.000000	81.063217
1749.000000	80.924553
1748.000000	80.780482
1747.000000	80.658268
1746.000000	80.534321
1745.000000	80.364925
1744.000000	80.167998
1743.000000	80.009684
1742.000000	79.924594
1741.000000	79.892753
1740.000000	79.883594
1739.000000	79.878798
1738.000000	79.847871
1737.000000	79.771940
1736.000000	79.680726
1735.000000	79.573451
1734.000000	79.448282
1733.000000	79.312336
1732.000000	79.102174
1731.000000	78.825329
1730.000000	78.555057
1729.000000	78.317727
1728.000000	78.118321
1727.000000	77.950234
1726.000000	77.790071
1725.000000	77.613397
1724.000000	77.425224
1723.000000	77.245869
1722.000000	77.076916
1721.000000	76.907873
1720.000000	76.751314
1719.000000	76.588405
1718.000000	76.360187
1717.000000	76.079721
1716.000000	75.781947
1715.000000	75.480886
1714.000000	75.207710
1713.000000	74.956716
1712.000000	74.691764
1711.000000	74.404326
1710.000000	74.109540
1709.000000	73.816023
1708.000000	73.529101
1707.000000	73.250692
1706.000000	72.967770
1705.000000	72.680486
1704.000000	72.391801
1703.000000	72.101445
1702.000000	71.826088
1701.000000	71.554164
1700.000000	71.299590
1699.000000	71.075952
1698.000000	70.824271
1697.000000	70.506926
1696.000000	70.155315
1695.000000	69.833120
1694.000000	69.519786
1693.000000	69.173266
1692.000000	68.814509
1691.000000	68.451762
1690.000000	68.072153
1689.000000	67.688321
1688.000000	67.345942
1687.000000	67.058336
1686.000000	66.775128
1685.000000	66.345684
1684.000000	65.812457
1683.000000	65.414879
1682.000000	65.103476
1681.000000	64.737321
1680.000000	64.325302
1679.000000	63.920923
1678.000000	63.549892
1677.000000	63.175891
1676.000000	62.778634
1675.000000	62.399647
1674.000000	62.052378
1673.000000	61.673296
1672.000000	61.246637
1671.000000	60.811018
1670.000000	60.387041
1669.000000	59.985130
1668.000000	59.610870
1667.000000	59.254632
1666.000000	58.894729
1665.000000	58.510329
1664.000000	58.099904
1663.000000	57.702085
1662.000000	57.357416
1661.000000	57.034285
1660.000000	56.690651
1659.000000	56.327365
1658.000000	55.947202
1657.000000	55.548345
1656.000000	55.159536
1655.000000	54.832510
1654.000000	54.483879
1653.000000	54.126631
1652.000000	53.834437
1651.000000	53.453018
1650.000000	52.987510
1649.000000	52.548358
1648.000000	52.126860
1647.000000	51.750814
1646.000000	51.491038
1645.000000	51.285812
1644.000000	51.018342
1643.000000	50.702551
1642.000000	50.376764
1641.000000	50.034040
1640.000000	49.670647
1639.000000	49.314934
1638.000000	48.991504
1637.000000	48.669266
1636.000000	48.346167
1635.000000	48.114861
1634.000000	47.953514
1633.000000	47.749503
1632.000000	47.494292
1631.000000	47.239403
1630.000000	47.013088
1629.000000	46.799661
1628.000000	46.586953
1627.000000	46.394953
1626.000000	46.228093
1625.000000	46.061176
1624.000000	45.882953
1623.000000	45.727176
1622.000000	45.610199
1621.000000	45.488568
1620.000000	45.349983
1619.000000	45.244916
1618.000000	45.204660
1617.000000	45.199142
1616.000000	45.190389
1615.000000	45.163567
1614.000000	45.117202
1613.000000	45.060366
1612.000000	45.006358
1611.000000	44.976146
1610.000000	44.976785
1609.000000	44.984575
1608.000000	44.985183
1607.000000	44.999190
1606.000000	45.038277
1605.000000	45.082228
1604.000000	45.122090
1603.000000	45.179446
1602.000000	45.266026
1601.000000	45.361436
1600.000000	45.450384
1599.000000	45.543826
1598.000000	45.646278
1597.000000	45.738826
1596.000000	45.810668
1595.000000	45.878868
1594.000000	45.956150
1593.000000	46.027450
1592.000000	46.081791
1591.000000	46.137421
1590.000000	46.211920
1589.000000	46.296182
1588.000000	46.379890
1587.000000	46.475893
1586.000000	46.594056
1585.000000	46.715090
1584.000000	46.822784
1583.000000	46.930320
1582.000000	47.041071
1581.000000	47.126172
1580.000000	47.173133
1579.000000	47.218054
1578.000000	47.300396
1577.000000	47.406829
1576.000000	47.510357
1575.000000	47.591271
1574.000000	47.609630
1573.000000	47.571451
1572.000000	47.542609
1571.000000	47.587122
1570.000000	47.726369
1569.000000	47.917157
1568.000000	48.088117
1567.000000	48.213582
1566.000000	48.317884
1565.000000	48.411965
1564.000000	48.475630
1563.000000	48.505632
1562.000000	48.492311
1561.000000	48.483198
1560.000000	48.500636
1559.000000	48.616952
1558.000000	48.953872
1557.000000	49.247273
1556.000000	49.362943
1555.000000	49.477277
1554.000000	49.657828
1553.000000	49.866301
1552.000000	50.042858
1551.000000	50.213064
1550.000000	50.419610
1549.000000	50.655793
1548.000000	50.868281
1547.000000	51.035277
1546.000000	51.179412
1545.000000	51.316665
1544.000000	51.461046
1543.000000	51.647178
1542.000000	51.936072
1541.000000	52.355731
1540.000000	52.916401
1539.000000	53.548730
1538.000000	54.017655
1537.000000	54.244893
1536.000000	54.393147
1535.000000	54.628884
1534.000000	55.024518
1533.000000	55.533835
1532.000000	56.031764
1531.000000	56.427350
1530.000000	56.741934
1529.000000	57.035338
1528.000000	57.346790
1527.000000	57.703443
1526.000000	58.109518
1525.000000	58.525761
1524.000000	58.931883
1523.000000	59.379108
1522.000000	59.925319
1521.000000	60.545276
1520.000000	61.099574
1519.000000	61.510762
1518.000000	61.863026
1517.000000	62.243087
1516.000000	62.660290
1515.000000	63.065084
1514.000000	63.412081
1513.000000	63.709283
1512.000000	63.964291
1511.000000	64.176962
1510.000000	64.351752
1509.000000	64.548597
1508.000000	64.831978
1507.000000	65.352700
1506.000000	66.229768
1505.000000	67.063507
1504.000000	67.532836
1503.000000	67.806007
1502.000000	68.066317
1501.000000	68.375897
1500.000000	68.739396
1499.000000	69.171233
1498.000000	69.674051
1497.000000	70.228304
1496.000000	70.791463
1495.000000	71.286970
1494.000000	71.662488
1493.000000	71.948864
1492.000000	72.234496
1491.000000	72.592806
1490.000000	73.036205
1489.000000	73.531893
1488.000000	74.028143
1487.000000	74.491727
1486.000000	74.897757
1485.000000	75.197708
1484.000000	75.382460
1483.000000	75.499338
1482.000000	75.577905
1481.000000	75.606312
1480.000000	75.577386
1479.000000	75.504609
1478.000000	75.378595
1477.000000	75.172944
1476.000000	74.900433
1475.000000	74.595466
1474.000000	74.196206
1473.000000	73.577629
1472.000000	72.777417
1471.000000	71.895235
1470.000000	70.858425
1469.000000	69.551429
1468.000000	67.945781
1467.000000	66.015909
1466.000000	63.624770
1465.000000	60.693719
1464.000000	57.501937
1463.000000	54.425453
1462.000000	51.523046
1461.000000	48.687280
1460.000000	45.882793
1459.000000	43.064559
1458.000000	40.028903
1457.000000	36.888581
1456.000000	34.356181
1455.000000	32.754446
1454.000000	31.738793
1453.000000	31.023535
1452.000000	30.589616
1451.000000	30.488330
1450.000000	30.696496
1449.000000	31.197169
1448.000000	32.028344
1447.000000	33.142300
1446.000000	34.378344
1445.000000	35.645357
1444.000000	36.982023
1443.000000	38.413421
1442.000000	39.866108
1441.000000	41.245428
1440.000000	42.530962
1439.000000	43.795780
1438.000000	45.182758
1437.000000	46.809705
1436.000000	48.561594
1435.000000	50.122935
1434.000000	51.365947
1433.000000	52.426804
1432.000000	53.441105
1431.000000	54.411160
1430.000000	55.261814
1429.000000	55.940463
1428.000000	56.422929
1427.000000	56.700057
1426.000000	56.794905
1425.000000	56.757930
1424.000000	56.657438
1423.000000	56.548668
1422.000000	56.453562
1421.000000	56.398104
1420.000000	56.434897
1419.000000	56.611207
1418.000000	56.928979
1417.000000	57.359619
1416.000000	57.901436
1415.000000	58.562316
1414.000000	59.319756
1413.000000	60.154164
1412.000000	61.067195
1411.000000	62.040926
1410.000000	63.023631
1409.000000	63.975533
1408.000000	64.883240
1407.000000	65.742621
1406.000000	66.564544
1405.000000	67.378479
1404.000000	68.185263
1403.000000	68.923096
1402.000000	69.552447
1401.000000	70.125201
1400.000000	70.714686
1399.000000	71.323996
1398.000000	71.900977
1397.000000	72.420384
1396.000000	72.903179
1395.000000	73.371756
1394.000000	73.807100
1393.000000	74.145976
1392.000000	74.326817
1391.000000	74.329233
1390.000000	74.157598
1389.000000	73.789148
1388.000000	73.169099
1387.000000	72.334899
1386.000000	71.511259
1385.000000	70.981469
1384.000000	70.914714
1383.000000	71.309019
1382.000000	72.001247
1381.000000	72.742315
1380.000000	73.323121
1379.000000	73.661810
1378.000000	73.794176
1377.000000	73.792132
1376.000000	73.696129
1375.000000	73.526953
1374.000000	73.332112
1373.000000	73.160619
1372.000000	72.995742
1371.000000	72.790386
1370.000000	72.535133
1369.000000	72.252289
1368.000000	71.964700
1367.000000	71.675605
1366.000000	71.374080
1365.000000	71.043183
1364.000000	70.659521
1363.000000	70.225963
1362.000000	69.800089
1361.000000	69.431582
1360.000000	69.108471
1359.000000	68.809245
1358.000000	68.555623
1357.000000	68.390481
1356.000000	68.337193
1355.000000	68.394190
1354.000000	68.545523
1353.000000	68.753426
1352.000000	68.950105
1351.000000	69.065418
1350.000000	69.053476
1349.000000	68.883610
1348.000000	68.525312
1347.000000	67.956265
1346.000000	67.174589
1345.000000	66.192364
1344.000000	65.027829
1343.000000	63.697177
1342.000000	62.205718
1341.000000	60.543612
1340.000000	58.719160
1339.000000	56.797906
1338.000000	54.851190
1337.000000	52.879947
1336.000000	50.832058
1335.000000	48.670851
1334.000000	46.398009
1333.000000	44.029948
1332.000000	41.598280
1331.000000	39.169625
1330.000000	36.825123
1329.000000	34.618348
1328.000000	32.575825
1327.000000	30.717574
1326.000000	29.044467
1325.000000	27.527379
1324.000000	26.136571
1323.000000	24.870577
1322.000000	23.734045
1321.000000	22.716269
1320.000000	21.825092
1319.000000	21.109033
1318.000000	20.624401
1317.000000	20.395491
1316.000000	20.422993
1315.000000	20.708560
1314.000000	21.234744
1313.000000	21.953417
1312.000000	22.814293
1311.000000	23.783885
1310.000000	24.836726
1309.000000	25.944000
1308.000000	27.086033
1307.000000	28.257421
1306.000000	29.447422
1305.000000	30.634784
1304.000000	31.805216
1303.000000	32.957559
1302.000000	34.089378
1301.000000	35.190434
1300.000000	36.252769
1299.000000	37.273559
1298.000000	38.243943
1297.000000	39.147902
1296.000000	39.980264
1295.000000	40.756802
1294.000000	41.505604
1293.000000	42.257942
1292.000000	43.047646
1291.000000	43.907188
1290.000000	44.857319
1289.000000	45.902716
1288.000000	47.037029
1287.000000	48.246032
1286.000000	49.504636
1285.000000	50.780438
1284.000000	52.041778
1283.000000	53.261286
1282.000000	54.416290
1281.000000	55.489755
1280.000000	56.470620
1279.000000	57.355837
1278.000000	58.153288
1277.000000	58.877588
1276.000000	59.545974
1275.000000	60.178527
1274.000000	60.799837
1273.000000	61.435577
1272.000000	62.103324
1271.000000	62.810687
1270.000000	63.559741
1269.000000	64.347395
1268.000000	65.162557
1267.000000	65.989589
1266.000000	66.816618
1265.000000	67.635824
1264.000000	68.435763
1263.000000	69.202764
1262.000000	69.930899
1261.000000	70.621693
1260.000000	71.272269
1259.000000	71.873355
1258.000000	72.421791
1257.000000	72.921376
1256.000000	73.372624
1255.000000	73.773378
1254.000000	74.128098
1253.000000	74.447373
1252.000000	74.734876
1251.000000	74.988132
1250.000000	75.210611
1249.000000	75.408985
1248.000000	75.581883
1247.000000	75.720647
1246.000000	75.821845
1245.000000	75.888245
1244.000000	75.915938
1243.000000	75.895444
1242.000000	75.822580
1241.000000	75.697957
1240.000000	75.518645
1239.000000	75.279925
1238.000000	74.987911
1237.000000	74.657147
1236.000000	74.298251
1235.000000	73.919646
1234.000000	73.536486
1233.000000	73.167949
1232.000000	72.826839
1231.000000	72.520871
1230.000000	72.260628
1229.000000	72.057916
1228.000000	71.915704
1227.000000	71.829026
1226.000000	71.794762
1225.000000	71.810180
1224.000000	71.866801
1223.000000	71.951905
1222.000000	72.057369
1221.000000	72.181411
1220.000000	72.320865
1219.000000	72.472129
1218.000000	72.637325
1217.000000	72.821895
1216.000000	73.026844
1215.000000	73.248958
1214.000000	73.489268
1213.000000	73.752264
1212.000000	74.036652
1211.000000	74.335208
1210.000000	74.642695
1209.000000	74.956259
1208.000000	75.267892
1207.000000	75.566032
1206.000000	75.845923
1205.000000	76.110011
1204.000000	76.358251
1203.000000	76.588229
1202.000000	76.804898
1201.000000	77.019186
1200.000000	77.237086
1199.000000	77.459309
1198.000000	77.690954
1197.000000	77.940709
1196.000000	78.209252
1195.000000	78.488448
1194.000000	78.772544
1193.000000	79.059722
1192.000000	79.342697
1191.000000	79.609258
1190.000000	79.854288
1189.000000	80.081078
1188.000000	80.290550
1187.000000	80.481786
1186.000000	80.663656
1185.000000	80.853288
1184.000000	81.057049
1183.000000	81.260113
1182.000000	81.438872
1181.000000	81.578216
1180.000000	81.680573
1179.000000	81.766673
1178.000000	81.863888
1177.000000	81.984035
1176.000000	82.112267
1175.000000	82.224939
1174.000000	82.314073
1173.000000	82.385673
1172.000000	82.443051
1171.000000	82.486274
1170.000000	82.524270
1169.000000	82.571677
1168.000000	82.633741
1167.000000	82.706684
1166.000000	82.790503
1165.000000	82.888107
1164.000000	82.993096
1163.000000	83.091728
1162.000000	83.176862
1161.000000	83.247668
1160.000000	83.297963
1159.000000	83.319519
1158.000000	83.315807
1157.000000	83.300567
1156.000000	83.284293
1155.000000	83.274386
1154.000000	83.284559
1153.000000	83.328737
1152.000000	83.406130
1151.000000	83.505951
1150.000000	83.625900
1149.000000	83.771066
1148.000000	83.936217
1147.000000	84.102919
1146.000000	84.254971
1145.000000	84.383422
1144.000000	84.477630
1143.000000	84.526467
1142.000000	84.531353
1141.000000	84.506142
1140.000000	84.463258
1139.000000	84.412681
1138.000000	84.371338
1137.000000	84.359637
1136.000000	84.387626
1135.000000	84.455248
1134.000000	84.562990
1133.000000	84.710013
1132.000000	84.882014
1131.000000	85.053543
1130.000000	85.203428
1129.000000	85.317897
1128.000000	85.381483
1127.000000	85.380135
1126.000000	85.315212
1125.000000	85.199593
1124.000000	85.043781
1123.000000	84.856485
1122.000000	84.655707
1121.000000	84.465406
1120.000000	84.299307
1119.000000	84.159858
1118.000000	84.049029
1117.000000	83.966459
1116.000000	83.898365
1115.000000	83.820327
1114.000000	83.711525
1113.000000	83.555815
1112.000000	83.331424
1111.000000	83.017636
1110.000000	82.607159
1109.000000	82.104448
1108.000000	81.513787
1107.000000	80.837083
1106.000000	80.086704
1105.000000	79.280175
1104.000000	78.426478
1103.000000	77.526628
1102.000000	76.576668
1101.000000	75.567839
1100.000000	74.478784
1099.000000	73.278002
1098.000000	71.940431
1097.000000	70.442878
1096.000000	68.764869
1095.000000	66.891374
1094.000000	64.817028
1093.000000	62.549156
1092.000000	60.101745
1091.000000	57.502500
1090.000000	54.789225
1089.000000	52.001338
1088.000000	49.183981
1087.000000	46.389633
1086.000000	43.667880
1085.000000	41.056182
1084.000000	38.587897
1083.000000	36.291244
1082.000000	34.180570
1081.000000	32.252334
1080.000000	30.502393
1079.000000	28.935576
1078.000000	27.540230
1077.000000	26.291116
1076.000000	25.170852
1075.000000	24.174241
1074.000000	23.292992
1073.000000	22.506496
1072.000000	21.805964
1071.000000	21.196392
1070.000000	20.672369
1069.000000	20.218991
1068.000000	19.830680
1067.000000	19.515273
1066.000000	19.271677
1065.000000	19.086011
1064.000000	18.957155
1063.000000	18.894969
1062.000000	18.898278
1061.000000	18.954998
1060.000000	19.064210
1059.000000	19.239015
1058.000000	19.480394
1057.000000	19.776851
1056.000000	20.128886
1055.000000	20.548072
1054.000000	21.035791
1053.000000	21.579755
1052.000000	22.176254
1051.000000	22.832856
1050.000000	23.544336
1049.000000	24.294498
1048.000000	25.077489
1047.000000	25.899044
1046.000000	26.758222
1045.000000	27.646377
1044.000000	28.566969
1043.000000	29.532849
1042.000000	30.547116
1041.000000	31.604359
1040.000000	32.704832
1039.000000	33.854275
1038.000000	35.048234
1037.000000	36.272928
1036.000000	37.520580
1035.000000	38.786346
1034.000000	40.055096
1033.000000	41.304845
1032.000000	42.523755
1031.000000	43.712156
1030.000000	44.870713
1029.000000	45.997154
1028.000000	47.094056
1027.000000	48.170248
1026.000000	49.232260
1025.000000	50.283820
1024.000000	51.330238
1023.000000	52.376558
1022.000000	53.421705
1021.000000	54.458014
1020.000000	55.477734
1019.000000	56.474296
1018.000000	57.439270
1017.000000	58.364025
1016.000000	59.242441
1015.000000	60.073011
1014.000000	60.857543
1013.000000	61.599915
1012.000000	62.307736
1011.000000	62.990554
1010.000000	63.657769
1009.000000	64.315683
1008.000000	64.965883
1007.000000	65.607965
1006.000000	66.241269
1005.000000	66.864560
1004.000000	67.474533
1003.000000	68.066952
1002.000000	68.640257
1001.000000	69.194577
1000.000000	69.729068
999.000000	70.243471
998.000000	70.741424
997.000000	71.229482
996.000000	71.711515
995.000000	72.187998
994.000000	72.659686
993.000000	73.126054
992.000000	73.581583
991.000000	74.016967
990.000000	74.425482
989.000000	74.804966
988.000000	75.153802
987.000000	75.472883
986.000000	75.770061
985.000000	76.057950
984.000000	76.347511
983.000000	76.647631
982.000000	76.969084
981.000000	77.321487
980.000000	77.706207
979.000000	78.116960
978.000000	78.545801
977.000000	78.981685
976.000000	79.404995
975.000000	79.791681
974.000000	80.125547
973.000000	80.399189
972.000000	80.608164
971.000000	80.753067
970.000000	80.847276
969.000000	80.915713
968.000000	80.983130
967.000000	81.071104
966.000000	81.202025
965.000000	81.395781
964.000000	81.659464
963.000000	81.986934
962.000000	82.365506
961.000000	82.776402
960.000000	83.190510
959.000000	83.573131
958.000000	83.895614
957.000000	84.138480
956.000000	84.288029
955.000000	84.339395
954.000000	84.307106
953.000000	84.220681
952.000000	84.111775
951.000000	84.011488
950.000000	83.953673
949.000000	83.968836
948.000000	84.072468
947.000000	84.264593
946.000000	84.536256
945.000000	84.869702
944.000000	85.232153
943.000000	85.582364
942.000000	85.885411
941.000000	86.116785
940.000000	86.255991
939.000000	86.291245
938.000000	86.230036
937.000000	86.095317
936.000000	85.914489
935.000000	85.716741
934.000000	85.538106
933.000000	85.413802
932.000000	85.364355
931.000000	85.394588
930.000000	85.502412
929.000000	85.677039
928.000000	85.891481
927.000000	86.109029
926.000000	86.298034
925.000000	86.435340
924.000000	86.500265
923.000000	86.478763
922.000000	86.372349
921.000000	86.196180
920.000000	85.967172
919.000000	85.704165
918.000000	85.434576
917.000000	85.186440
916.000000	84.975330
915.000000	84.804021
914.000000	84.671185
913.000000	84.570594
912.000000	84.484817
911.000000	84.390318
910.000000	84.269156
909.000000	84.109087
908.000000	83.897399
907.000000	83.624536
906.000000	83.293774
905.000000	82.917004
904.000000	82.503175
903.000000	82.060202
902.000000	81.600558
901.000000	81.136580
900.000000	80.669940
899.000000	80.192982
898.000000	79.699367
897.000000	79.183018
896.000000	78.632765
895.000000	78.036083
894.000000	77.386955
893.000000	76.686100
892.000000	75.934417
891.000000	75.134945
890.000000	74.297184
889.000000	73.431943
888.000000	72.545900
887.000000	71.641756
886.000000	70.720287
885.000000	69.777232
884.000000	68.800204
883.000000	67.774657
882.000000	66.687700
881.000000	65.527026
880.000000	64.282930
879.000000	62.953020
878.000000	61.545433
877.000000	60.073300
876.000000	58.551952
875.000000	57.000772
874.000000	55.439465
873.000000	53.884068
872.000000	52.347281
871.000000	50.839080
870.000000	49.361786
869.000000	47.909043
868.000000	46.472749
867.000000	45.046070
866.000000	43.618064
865.000000	42.174533
864.000000	40.710024
863.000000	39.231545
862.000000	37.748382
861.000000	36.268849
860.000000	34.809297
859.000000	33.397808
858.000000	32.063406
857.000000	30.833202
856.000000	29.744302
855.000000	28.836108
854.000000	28.133102
853.000000	27.636420
852.000000	27.331224
851.000000	27.189774
850.000000	27.160028
849.000000	27.180317
848.000000	27.205492
847.000000	27.214157
846.000000	27.198096
845.000000	27.157910
844.000000	27.112145
843.000000	27.090410
842.000000	27.113846
841.000000	27.194694
840.000000	27.348802
839.000000	27.594122
838.000000	27.935160
837.000000	28.361537
836.000000	28.864358
835.000000	29.436217
834.000000	30.059970
833.000000	30.710892
832.000000	31.371104
831.000000	32.033544
830.000000	32.692540
829.000000	33.345256
828.000000	34.001835
827.000000	34.682052
826.000000	35.402942
825.000000	36.177162
824.000000	37.019372
823.000000	37.940005
822.000000	38.931021
821.000000	39.969189
820.000000	41.029602
819.000000	42.089649
818.000000	43.125579
817.000000	44.116864
816.000000	45.054717
815.000000	45.940703
814.000000	46.779456
813.000000	47.577197
812.000000	48.345820
811.000000	49.099816
810.000000	49.849559
809.000000	50.600402
808.000000	51.355883
807.000000	52.118013
806.000000	52.883776
805.000000	53.645126
804.000000	54.392361
803.000000	55.115721
802.000000	55.806937
801.000000	56.461954
800.000000	57.083444
799.000000	57.680306
798.000000	58.264438
797.000000	58.848478
796.000000	59.444091
795.000000	60.060816
794.000000	60.704758
793.000000	61.376735
792.000000	62.070212
791.000000	62.771525
790.000000	63.462673
789.000000	64.124439
788.000000	64.738341
787.000000	65.290692
786.000000	65.777248
785.000000	66.202542
784.000000	66.576348
783.000000	66.912249
782.000000	67.229584
781.000000	67.551223
780.000000	67.897715
779.000000	68.283984
778.000000	68.719063
777.000000	69.203983
776.000000	69.728236
775.000000	70.271296
774.000000	70.808822
773.000000	71.316776
772.000000	71.772557
771.000000	72.159883
770.000000	72.474422
769.000000	72.723548
768.000000	72.920415
767.000000	73.082239
766.000000	73.231528
765.000000	73.392693
764.000000	73.586251
763.000000	73.826827
762.000000	74.123766
761.000000	74.477127
760.000000	74.873390
759.000000	75.288730
758.000000	75.697073
757.000000	76.072951
756.000000	76.392396
755.000000	76.639654
754.000000	76.814446
753.000000	76.928067
752.000000	76.994337
751.000000	77.028955
750.000000	77.053216
749.000000	77.090801
748.000000	77.159185
747.000000	77.267854
746.000000	77.421170
745.000000	77.616114
744.000000	77.837462
743.000000	78.061634
742.000000	78.266281
741.000000	78.433784
740.000000	78.549702
739.000000	78.606553
738.000000	78.609820
737.000000	78.575104
736.000000	78.520866
735.000000	78.467117
734.000000	78.437220
733.000000	78.452418
732.000000	78.524142
731.000000	78.653769
730.000000	78.837195
729.000000	79.064505
728.000000	79.316729
727.000000	79.569962
726.000000	79.805397
725.000000	80.011825
724.000000	80.181046
723.000000	80.309823
722.000000	80.406607
721.000000	80.490955
720.000000	80.584948
719.000000	80.707518
718.000000	80.873466
717.000000	81.091235
716.000000	81.360110
715.000000	81.672561
714.000000	82.016860
713.000000	82.373739
712.000000	82.714562
711.000000	83.011076
710.000000	83.247117
709.000000	83.417591
708.000000	83.523808
707.000000	83.576679
706.000000	83.600716
705.000000	83.625631
704.000000	83.673842
703.000000	83.761421
702.000000	83.904134
701.000000	84.111953
700.000000	84.380703
699.000000	84.694919
698.000000	85.035164
697.000000	85.375660
696.000000	85.680231
695.000000	85.916906
694.000000	86.073078
693.000000	86.149924
692.000000	86.153155
691.000000	86.096443
690.000000	86.008859
689.000000	85.928514
688.000000	85.887456
687.000000	85.908026
686.000000	86.005087
685.000000	86.181269
684.000000	86.424350
683.000000	86.714831
682.000000	87.030922
681.000000	87.341669
680.000000	87.607811
679.000000	87.801445
678.000000	87.914283
677.000000	87.945124
676.000000	87.899414
675.000000	87.794548
674.000000	87.659726
673.000000	87.528524
672.000000	87.433674
671.000000	87.408503
670.000000	87.487940
669.000000	87.685191
668.000000	88.013607
667.000000	88.425094
666.000000	88.735122
665.000000	88.909134
664.000000	89.055907
663.000000	89.196669
662.000000	89.292454
661.000000	89.318771
660.000000	89.284227
659.000000	89.202499
658.000000	89.092983
657.000000	88.989211
656.000000	88.924899
655.000000	88.912915
654.000000	88.956000
653.000000	89.063844
652.000000	89.237423
651.000000	89.454991
650.000000	89.687896
649.000000	89.917046
648.000000	90.120723
647.000000	90.268238
646.000000	90.345282
645.000000	90.365453
644.000000	90.344621
643.000000	90.288386
642.000000	90.210246
641.000000	90.139911
640.000000	90.102399
639.000000	90.103421
638.000000	90.143892
637.000000	90.229033
636.000000	90.352867
635.000000	90.492500
634.000000	90.626954
633.000000	90.746935
632.000000	90.841402
631.000000	90.892277
630.000000	90.894585
629.000000	90.864371
628.000000	90.817872
627.000000	90.760758
626.000000	90.706299
625.000000	90.680216
624.000000	90.696562
623.000000	90.748394
622.000000	90.825203
621.000000	90.922465
620.000000	91.029322
619.000000	91.124535
618.000000	91.195030
617.000000	91.244211
616.000000	91.273549
615.000000	91.273634
614.000000	91.242027
613.000000	91.192684
612.000000	91.141282
611.000000	91.096994
610.000000	91.075069
609.000000	91.095962
608.000000	91.163154
607.000000	91.258117
606.000000	91.362527
605.000000	91.468749
604.000000	91.562167
603.000000	91.615293
602.000000	91.607752
601.000000	91.534290
600.000000	91.385755
599.000000	91.145111
598.000000	90.807849
597.000000	90.395762
596.000000	89.952253
595.000000	89.539145
594.000000	89.232535
593.000000	89.096260
592.000000	89.151228
591.000000	89.369051
590.000000	89.693675
589.000000	90.067738
588.000000	90.442175
587.000000	90.780340
586.000000	91.065339
585.000000	91.299728
584.000000	91.487269
583.000000	91.626035
582.000000	91.719376
581.000000	91.780901
580.000000	91.821705
579.000000	91.845802
578.000000	91.862330
577.000000	91.892423
576.000000	91.954854
575.000000	92.046943
574.000000	92.145287
573.000000	92.224461
572.000000	92.272418
571.000000	92.292609
570.000000	92.298957
569.000000	92.302890
568.000000	92.305975
567.000000	92.304805
566.000000	92.300688
565.000000	92.299223
564.000000	92.301172
563.000000	92.303779
562.000000	92.305193
561.000000	92.304456
560.000000	92.296731
559.000000	92.273973
558.000000	92.230684
557.000000	92.166252
556.000000	92.081993
555.000000	91.985270
554.000000	91.894217
553.000000	91.828543
552.000000	91.798758
551.000000	91.811157
550.000000	91.874437
549.000000	91.991372
548.000000	92.149880
547.000000	92.330128
546.000000	92.517349
545.000000	92.697481
544.000000	92.845688
543.000000	92.931737
542.000000	92.939910
541.000000	92.874740
540.000000	92.749165
539.000000	92.579302
538.000000	92.391202
537.000000	92.221135
536.000000	92.103816
535.000000	92.065293
534.000000	92.118272
533.000000	92.264956
532.000000	92.492497
531.000000	92.775905
530.000000	93.081116
529.000000	93.365707
528.000000	93.585044
527.000000	93.717935
526.000000	93.776807
525.000000	93.776632
524.000000	93.702962
523.000000	93.524988
522.000000	93.247321
521.000000	92.921006
520.000000	92.605748
519.000000	92.341968
518.000000	92.157406
517.000000	92.073633
516.000000	92.091154
515.000000	92.179265
514.000000	92.294174
513.000000	92.397632
512.000000	92.448919
511.000000	92.404898
510.000000	92.240664
509.000000	91.954892
508.000000	91.539036
507.000000	90.988664
506.000000	90.332937
505.000000	89.619687
504.000000	88.885690
503.000000	88.176745
502.000000	87.580772
501.000000	87.178597
500.000000	86.966553
499.000000	86.883357
498.000000	86.899494
497.000000	87.029682
496.000000	87.279846
495.000000	87.621573
494.000000	88.017612
493.000000	88.440664
492.000000	88.857153
491.000000	89.231944
490.000000	89.546012
489.000000	89.801792
488.000000	90.005347
487.000000	90.170817
486.000000	90.334868
485.000000	90.534164
484.000000	90.767862
483.000000	91.009118
482.000000	91.247912
481.000000	91.489449
480.000000	91.725925
479.000000	91.939055
478.000000	92.118614
477.000000	92.264776
476.000000	92.373849
475.000000	92.443187
474.000000	92.490614
473.000000	92.551015
472.000000	92.647884
471.000000	92.784169
470.000000	92.937478
469.000000	93.083427
468.000000	93.215866
467.000000	93.341472
466.000000	93.464305
465.000000	93.585614
464.000000	93.703051
463.000000	93.810926
462.000000	93.904057
461.000000	93.972173
460.000000	94.008815
459.000000	94.031563
458.000000	94.091569
457.000000	94.242876
456.000000	94.470109
455.000000	94.697737
454.000000	94.889588
453.000000	95.069687
452.000000	95.255792
451.000000	95.414359
450.000000	95.489330
449.000000	95.472653
448.000000	95.400171
447.000000	95.302305
446.000000	95.188267
445.000000	95.077604
444.000000	95.005877
443.000000	95.001322
442.000000	95.083332
441.000000	95.268133
440.000000	95.553930
439.000000	95.900511
438.000000	96.263378
437.000000	96.637653
436.000000	97.033350
435.000000	97.415956
434.000000	97.717853
433.000000	97.900353
432.000000	97.953591
431.000000	97.869006
430.000000	97.664864
429.000000	97.394546
428.000000	97.103846
427.000000	96.816981
426.000000	96.576599
425.000000	96.457100
424.000000	96.512837
423.000000	96.722124
422.000000	96.994405
421.000000	97.250070
420.000000	97.474994
419.000000	97.736537
418.000000	98.121699
417.000000	98.551381
416.000000	98.846877
415.000000	98.905562
414.000000	98.722435
413.000000	98.397936
412.000000	98.060320
411.000000	97.762606
410.000000	97.530093
409.000000	97.411412
408.000000	97.443971
407.000000	97.616686
406.000000	97.897374
405.000000	98.261870
404.000000	98.686833
403.000000	99.109032
402.000000	99.449388
401.000000	99.666714
400.000000	99.719369
