PE IR       SUBTECH     SPECTRUM    ASCII       PEDS        4.00        
   -1
23MS080_nitro.asc
24/09/12
15:15:44.00
24/09/12
15:15:44.00
Administrator
Sample 1164 By Administrator Date Thursday, September 12 2024
400.000000
#HDR
-1
-1
#GR
cm-1
%T
1.0
0.0
4000.000000
-1.000000
3601
8
92.212225
26.244934
#DATA
4000.000000	69.884641
3999.000000	69.909740
3998.000000	69.935108
3997.000000	69.960738
3996.000000	69.985741
3995.000000	70.009911
3994.000000	70.034339
3993.000000	70.060026
3992.000000	70.086466
3991.000000	70.112411
3990.000000	70.137675
3989.000000	70.163070
3988.000000	70.188616
3987.000000	70.212996
3986.000000	70.235085
3985.000000	70.255142
3984.000000	70.274399
3983.000000	70.294066
3982.000000	70.315051
3981.000000	70.338042
3980.000000	70.363512
3979.000000	70.391281
3978.000000	70.420162
3977.000000	70.448350
3976.000000	70.474221
3975.000000	70.496402
3974.000000	70.514283
3973.000000	70.529163
3972.000000	70.543849
3971.000000	70.560870
3970.000000	70.581055
3969.000000	70.604309
3968.000000	70.629707
3967.000000	70.655873
3966.000000	70.681467
3965.000000	70.705552
3964.000000	70.727579
3963.000000	70.746769
3962.000000	70.762746
3961.000000	70.777038
3960.000000	70.792322
3959.000000	70.810434
3958.000000	70.831661
3957.000000	70.856592
3956.000000	70.885066
3955.000000	70.915126
3954.000000	70.943748
3953.000000	70.968238
3952.000000	70.988087
3951.000000	71.004814
3950.000000	71.021482
3949.000000	71.039646
3948.000000	71.058592
3947.000000	71.079559
3946.000000	71.105807
3945.000000	71.136416
3944.000000	71.164692
3943.000000	71.185549
3942.000000	71.202144
3941.000000	71.221088
3940.000000	71.243634
3939.000000	71.265779
3938.000000	71.283882
3937.000000	71.300883
3936.000000	71.322928
3935.000000	71.351694
3934.000000	71.383562
3933.000000	71.414077
3932.000000	71.442408
3931.000000	71.467115
3930.000000	71.484829
3929.000000	71.497130
3928.000000	71.512899
3927.000000	71.539009
3926.000000	71.568488
3925.000000	71.591184
3924.000000	71.609667
3923.000000	71.630992
3922.000000	71.652014
3921.000000	71.665882
3920.000000	71.676311
3919.000000	71.694863
3918.000000	71.722889
3917.000000	71.751612
3916.000000	71.777198
3915.000000	71.803539
3914.000000	71.831448
3913.000000	71.858167
3912.000000	71.882284
3911.000000	71.906836
3910.000000	71.930353
3909.000000	71.952259
3908.000000	71.974593
3907.000000	71.998631
3906.000000	72.018107
3905.000000	72.023528
3904.000000	72.022610
3903.000000	72.035669
3902.000000	72.070237
3901.000000	72.112091
3900.000000	72.141883
3899.000000	72.157352
3898.000000	72.169680
3897.000000	72.183770
3896.000000	72.197533
3895.000000	72.215214
3894.000000	72.243410
3893.000000	72.282670
3892.000000	72.316135
3891.000000	72.331195
3890.000000	72.336730
3889.000000	72.355149
3888.000000	72.393238
3887.000000	72.429532
3886.000000	72.442887
3885.000000	72.446194
3884.000000	72.463792
3883.000000	72.497461
3882.000000	72.528718
3881.000000	72.543378
3880.000000	72.548047
3879.000000	72.559234
3878.000000	72.585470
3877.000000	72.624931
3876.000000	72.661953
3875.000000	72.676748
3874.000000	72.675359
3873.000000	72.691388
3872.000000	72.738374
3871.000000	72.781275
3870.000000	72.788481
3869.000000	72.784313
3868.000000	72.803834
3867.000000	72.841813
3866.000000	72.864140
3865.000000	72.863548
3864.000000	72.870542
3863.000000	72.901039
3862.000000	72.937986
3861.000000	72.972959
3860.000000	73.006779
3859.000000	73.044899
3858.000000	73.093380
3857.000000	73.158602
3856.000000	73.222977
3855.000000	73.232214
3854.000000	73.187232
3853.000000	73.174453
3852.000000	73.215446
3851.000000	73.254663
3850.000000	73.263437
3849.000000	73.255943
3848.000000	73.257576
3847.000000	73.280469
3846.000000	73.317230
3845.000000	73.357202
3844.000000	73.389249
3843.000000	73.408484
3842.000000	73.426838
3841.000000	73.458381
3840.000000	73.489886
3839.000000	73.508600
3838.000000	73.521320
3837.000000	73.537678
3836.000000	73.555273
3835.000000	73.570753
3834.000000	73.589220
3833.000000	73.610787
3832.000000	73.628877
3831.000000	73.646805
3830.000000	73.675217
3829.000000	73.719463
3828.000000	73.767959
3827.000000	73.799359
3826.000000	73.809073
3825.000000	73.823107
3824.000000	73.861828
3823.000000	73.909946
3822.000000	73.930998
3821.000000	73.921140
3820.000000	73.917137
3819.000000	73.946006
3818.000000	73.997984
3817.000000	74.033482
3816.000000	74.040257
3815.000000	74.054857
3814.000000	74.099617
3813.000000	74.146656
3812.000000	74.165937
3811.000000	74.168599
3810.000000	74.189545
3809.000000	74.237929
3808.000000	74.281854
3807.000000	74.295056
3806.000000	74.295042
3805.000000	74.316628
3804.000000	74.366125
3803.000000	74.412777
3802.000000	74.419805
3801.000000	74.407681
3800.000000	74.418727
3799.000000	74.453444
3798.000000	74.488551
3797.000000	74.507653
3796.000000	74.521061
3795.000000	74.548261
3794.000000	74.591841
3793.000000	74.634215
3792.000000	74.665200
3791.000000	74.691266
3790.000000	74.719336
3789.000000	74.748092
3788.000000	74.776710
3787.000000	74.808383
3786.000000	74.842303
3785.000000	74.869913
3784.000000	74.888142
3783.000000	74.907190
3782.000000	74.933905
3781.000000	74.960885
3780.000000	74.977659
3779.000000	74.990496
3778.000000	75.013796
3777.000000	75.050769
3776.000000	75.086623
3775.000000	75.109289
3774.000000	75.126829
3773.000000	75.156215
3772.000000	75.195492
3771.000000	75.225520
3770.000000	75.241236
3769.000000	75.257797
3768.000000	75.285428
3767.000000	75.319875
3766.000000	75.347991
3765.000000	75.362871
3764.000000	75.377174
3763.000000	75.407777
3762.000000	75.449468
3761.000000	75.483274
3760.000000	75.506843
3759.000000	75.535924
3758.000000	75.567233
3757.000000	75.590137
3756.000000	75.611882
3755.000000	75.643822
3754.000000	75.678938
3753.000000	75.697743
3752.000000	75.707494
3751.000000	75.734199
3750.000000	75.766061
3749.000000	75.774363
3748.000000	75.778169
3747.000000	75.819840
3746.000000	75.880072
3745.000000	75.904312
3744.000000	75.912120
3743.000000	75.946836
3742.000000	75.990505
3741.000000	76.011513
3740.000000	76.012652
3739.000000	76.031101
3738.000000	76.081998
3737.000000	76.138177
3736.000000	76.177588
3735.000000	76.209160
3734.000000	76.248619
3733.000000	76.286783
3732.000000	76.309509
3731.000000	76.320818
3730.000000	76.337342
3729.000000	76.371697
3728.000000	76.416089
3727.000000	76.453472
3726.000000	76.487188
3725.000000	76.529697
3724.000000	76.576435
3723.000000	76.612858
3722.000000	76.638246
3721.000000	76.664012
3720.000000	76.696782
3719.000000	76.734897
3718.000000	76.765750
3717.000000	76.787750
3716.000000	76.815161
3715.000000	76.853346
3714.000000	76.890572
3713.000000	76.914286
3712.000000	76.931293
3711.000000	76.956530
3710.000000	76.992063
3709.000000	77.032691
3708.000000	77.069336
3707.000000	77.096826
3706.000000	77.122109
3705.000000	77.154735
3704.000000	77.195401
3703.000000	77.235542
3702.000000	77.270702
3701.000000	77.304254
3700.000000	77.340260
3699.000000	77.380924
3698.000000	77.420639
3697.000000	77.451430
3696.000000	77.478267
3695.000000	77.509966
3694.000000	77.544112
3693.000000	77.574869
3692.000000	77.601765
3691.000000	77.626414
3690.000000	77.649233
3689.000000	77.676748
3688.000000	77.712269
3687.000000	77.749619
3686.000000	77.785144
3685.000000	77.815840
3684.000000	77.839228
3683.000000	77.865572
3682.000000	77.906981
3681.000000	77.951795
3680.000000	77.981278
3679.000000	78.002605
3678.000000	78.040854
3677.000000	78.082557
3676.000000	78.098663
3675.000000	78.105234
3674.000000	78.127259
3673.000000	78.169666
3672.000000	78.219659
3671.000000	78.252962
3670.000000	78.275174
3669.000000	78.316429
3668.000000	78.375542
3667.000000	78.429138
3666.000000	78.467721
3665.000000	78.499337
3664.000000	78.537535
3663.000000	78.588673
3662.000000	78.642331
3661.000000	78.684948
3660.000000	78.720461
3659.000000	78.760284
3658.000000	78.804386
3657.000000	78.836159
3656.000000	78.851540
3655.000000	78.865032
3654.000000	78.889485
3653.000000	78.923806
3652.000000	78.952456
3651.000000	78.963226
3650.000000	78.974184
3649.000000	79.013900
3648.000000	79.076298
3647.000000	79.134526
3646.000000	79.175713
3645.000000	79.206839
3644.000000	79.238889
3643.000000	79.275721
3642.000000	79.313517
3641.000000	79.352975
3640.000000	79.396386
3639.000000	79.438411
3638.000000	79.474569
3637.000000	79.510231
3636.000000	79.553356
3635.000000	79.595414
3634.000000	79.623143
3633.000000	79.642581
3632.000000	79.671565
3631.000000	79.706707
3630.000000	79.721258
3629.000000	79.722607
3628.000000	79.749941
3627.000000	79.803661
3626.000000	79.853313
3625.000000	79.884495
3624.000000	79.906250
3623.000000	79.937497
3622.000000	79.984271
3621.000000	80.030308
3620.000000	80.059486
3619.000000	80.076271
3618.000000	80.092509
3617.000000	80.114157
3616.000000	80.143119
3615.000000	80.172270
3614.000000	80.192452
3613.000000	80.207579
3612.000000	80.230831
3611.000000	80.267776
3610.000000	80.312099
3609.000000	80.355996
3608.000000	80.398191
3607.000000	80.440562
3606.000000	80.480910
3605.000000	80.515963
3604.000000	80.546559
3603.000000	80.576030
3602.000000	80.607021
3601.000000	80.638740
3600.000000	80.671585
3599.000000	80.704857
3598.000000	80.735612
3597.000000	80.764133
3596.000000	80.795078
3595.000000	80.826650
3594.000000	80.855788
3593.000000	80.882103
3592.000000	80.907074
3591.000000	80.934784
3590.000000	80.966899
3589.000000	81.000314
3588.000000	81.033368
3587.000000	81.069570
3586.000000	81.110202
3585.000000	81.152028
3584.000000	81.191462
3583.000000	81.227538
3582.000000	81.262086
3581.000000	81.296672
3580.000000	81.331428
3579.000000	81.364344
3578.000000	81.394399
3577.000000	81.423336
3576.000000	81.454277
3575.000000	81.488825
3574.000000	81.525854
3573.000000	81.563788
3572.000000	81.600126
3571.000000	81.635066
3570.000000	81.670494
3569.000000	81.705015
3568.000000	81.736193
3567.000000	81.766547
3566.000000	81.799270
3565.000000	81.832953
3564.000000	81.866173
3563.000000	81.900005
3562.000000	81.936618
3561.000000	81.976988
3560.000000	82.019687
3559.000000	82.062391
3558.000000	82.102911
3557.000000	82.140513
3556.000000	82.176275
3555.000000	82.212138
3554.000000	82.247601
3553.000000	82.280661
3552.000000	82.311138
3551.000000	82.341297
3550.000000	82.373799
3549.000000	82.409877
3548.000000	82.449688
3547.000000	82.492991
3546.000000	82.537116
3545.000000	82.578073
3544.000000	82.613945
3543.000000	82.645535
3542.000000	82.674507
3541.000000	82.703423
3540.000000	82.735382
3539.000000	82.771678
3538.000000	82.809688
3537.000000	82.845422
3536.000000	82.877985
3535.000000	82.908617
3534.000000	82.939071
3533.000000	82.969906
3532.000000	83.001923
3531.000000	83.035564
3530.000000	83.069329
3529.000000	83.100789
3528.000000	83.130006
3527.000000	83.160527
3526.000000	83.194975
3525.000000	83.231280
3524.000000	83.264352
3523.000000	83.291271
3522.000000	83.313887
3521.000000	83.337318
3520.000000	83.365086
3519.000000	83.396171
3518.000000	83.427912
3517.000000	83.459955
3516.000000	83.493100
3515.000000	83.524890
3514.000000	83.551645
3513.000000	83.572832
3512.000000	83.591099
3511.000000	83.608875
3510.000000	83.627215
3509.000000	83.646983
3508.000000	83.669650
3507.000000	83.695825
3506.000000	83.723710
3505.000000	83.750401
3504.000000	83.774096
3503.000000	83.794083
3502.000000	83.809724
3501.000000	83.821635
3500.000000	83.832495
3499.000000	83.844599
3498.000000	83.857747
3497.000000	83.870904
3496.000000	83.884171
3495.000000	83.897410
3494.000000	83.909147
3493.000000	83.918329
3492.000000	83.925512
3491.000000	83.931802
3490.000000	83.937643
3489.000000	83.942614
3488.000000	83.945813
3487.000000	83.946311
3486.000000	83.943932
3485.000000	83.940079
3484.000000	83.937178
3483.000000	83.936295
3482.000000	83.936467
3481.000000	83.935916
3480.000000	83.932779
3479.000000	83.925095
3478.000000	83.911542
3477.000000	83.892992
3476.000000	83.872246
3475.000000	83.851815
3474.000000	83.832818
3473.000000	83.816252
3472.000000	83.803181
3471.000000	83.792752
3470.000000	83.781789
3469.000000	83.766682
3468.000000	83.744594
3467.000000	83.714024
3466.000000	83.675620
3465.000000	83.632549
3464.000000	83.588968
3463.000000	83.547439
3462.000000	83.508269
3461.000000	83.470415
3460.000000	83.432067
3459.000000	83.390893
3458.000000	83.345134
3457.000000	83.294950
3456.000000	83.242074
3455.000000	83.187991
3454.000000	83.133127
3453.000000	83.076881
3452.000000	83.019550
3451.000000	82.962598
3450.000000	82.906364
3449.000000	82.848602
3448.000000	82.786440
3447.000000	82.719611
3446.000000	82.650084
3445.000000	82.578926
3444.000000	82.505001
3443.000000	82.427060
3442.000000	82.346039
3441.000000	82.265219
3440.000000	82.187611
3439.000000	82.113300
3438.000000	82.039352
3437.000000	81.961637
3436.000000	81.876959
3435.000000	81.783698
3434.000000	81.681720
3433.000000	81.572330
3432.000000	81.458753
3431.000000	81.344139
3430.000000	81.228597
3429.000000	81.110202
3428.000000	80.988507
3427.000000	80.865017
3426.000000	80.740232
3425.000000	80.612984
3424.000000	80.482207
3423.000000	80.347109
3422.000000	80.205893
3421.000000	80.057096
3420.000000	79.902178
3419.000000	79.744398
3418.000000	79.585589
3417.000000	79.425588
3416.000000	79.264246
3415.000000	79.101291
3414.000000	78.934261
3413.000000	78.759783
3412.000000	78.576861
3411.000000	78.386969
3410.000000	78.191046
3409.000000	77.988681
3408.000000	77.780378
3407.000000	77.567864
3406.000000	77.352290
3405.000000	77.134364
3404.000000	76.915105
3403.000000	76.694072
3402.000000	76.467434
3401.000000	76.229873
3400.000000	75.978678
3399.000000	75.714778
3398.000000	75.441624
3397.000000	75.164140
3396.000000	74.886480
3395.000000	74.608805
3394.000000	74.326481
3393.000000	74.034065
3392.000000	73.729180
3391.000000	73.412148
3390.000000	73.084598
3389.000000	72.749567
3388.000000	72.411132
3387.000000	72.071444
3386.000000	71.729097
3385.000000	71.382147
3384.000000	71.030566
3383.000000	70.674456
3382.000000	70.312042
3381.000000	69.941082
3380.000000	69.561306
3379.000000	69.173735
3378.000000	68.779396
3377.000000	68.379931
3376.000000	67.977546
3375.000000	67.573724
3374.000000	67.168848
3373.000000	66.763364
3372.000000	66.357183
3371.000000	65.947295
3370.000000	65.528748
3369.000000	65.098692
3368.000000	64.658002
3367.000000	64.209214
3366.000000	63.755064
3365.000000	63.299366
3364.000000	62.846126
3363.000000	62.396411
3362.000000	61.948056
3361.000000	61.498782
3360.000000	61.047728
3359.000000	60.593705
3358.000000	60.134851
3357.000000	59.671233
3356.000000	59.205416
3355.000000	58.739802
3354.000000	58.275316
3353.000000	57.812936
3352.000000	57.353942
3351.000000	56.898097
3350.000000	56.443921
3349.000000	55.991289
3348.000000	55.541510
3347.000000	55.094740
3346.000000	54.649810
3345.000000	54.206517
3344.000000	53.765656
3343.000000	53.326881
3342.000000	52.889485
3341.000000	52.455293
3340.000000	52.027567
3339.000000	51.607015
3338.000000	51.191870
3337.000000	50.781646
3336.000000	50.377808
3335.000000	49.980577
3334.000000	49.588237
3333.000000	49.200098
3332.000000	48.816845
3331.000000	48.438096
3330.000000	48.062463
3329.000000	47.690200
3328.000000	47.323443
3327.000000	46.963439
3326.000000	46.610430
3325.000000	46.265843
3324.000000	45.931227
3323.000000	45.605524
3322.000000	45.286009
3321.000000	44.971824
3320.000000	44.663742
3319.000000	44.360859
3318.000000	44.061471
3317.000000	43.766325
3316.000000	43.477928
3315.000000	43.197208
3314.000000	42.923625
3313.000000	42.658288
3312.000000	42.403046
3311.000000	42.157066
3310.000000	41.918095
3309.000000	41.686210
3308.000000	41.463616
3307.000000	41.250828
3306.000000	41.046379
3305.000000	40.850248
3304.000000	40.663468
3303.000000	40.485651
3302.000000	40.315863
3301.000000	40.155181
3300.000000	40.005575
3299.000000	39.866338
3298.000000	39.735351
3297.000000	39.612784
3296.000000	39.499908
3295.000000	39.395722
3294.000000	39.297899
3293.000000	39.206760
3292.000000	39.124545
3291.000000	39.050925
3290.000000	38.983605
3289.000000	38.922048
3288.000000	38.867589
3287.000000	38.820240
3286.000000	38.778333
3285.000000	38.741565
3284.000000	38.710578
3283.000000	38.684245
3282.000000	38.660483
3281.000000	38.639105
3280.000000	38.621139
3279.000000	38.605826
3278.000000	38.591586
3277.000000	38.579084
3276.000000	38.570126
3275.000000	38.564428
3274.000000	38.560429
3273.000000	38.558587
3272.000000	38.560733
3271.000000	38.566681
3270.000000	38.574529
3269.000000	38.583396
3268.000000	38.593029
3267.000000	38.601710
3266.000000	38.607633
3265.000000	38.611873
3264.000000	38.617130
3263.000000	38.624172
3262.000000	38.632401
3261.000000	38.642637
3260.000000	38.656089
3259.000000	38.671705
3258.000000	38.687403
3257.000000	38.702904
3256.000000	38.718696
3255.000000	38.733607
3254.000000	38.746241
3253.000000	38.757649
3252.000000	38.769760
3251.000000	38.782393
3250.000000	38.794806
3249.000000	38.808624
3248.000000	38.825962
3247.000000	38.845864
3246.000000	38.865557
3245.000000	38.884162
3244.000000	38.902165
3243.000000	38.918559
3242.000000	38.931946
3241.000000	38.943396
3240.000000	38.955132
3239.000000	38.967409
3238.000000	38.979486
3237.000000	38.992280
3236.000000	39.007159
3235.000000	39.023278
3234.000000	39.038762
3233.000000	39.053376
3232.000000	39.067454
3231.000000	39.079610
3230.000000	39.088520
3229.000000	39.095596
3228.000000	39.103128
3227.000000	39.111101
3226.000000	39.118308
3225.000000	39.125129
3224.000000	39.132322
3223.000000	39.138529
3222.000000	39.141972
3221.000000	39.143358
3220.000000	39.144363
3219.000000	39.144666
3218.000000	39.143223
3217.000000	39.140758
3216.000000	39.138224
3215.000000	39.134556
3214.000000	39.128440
3213.000000	39.120708
3212.000000	39.112387
3211.000000	39.102245
3210.000000	39.089001
3209.000000	39.074037
3208.000000	39.059291
3207.000000	39.044099
3206.000000	39.026823
3205.000000	39.007914
3204.000000	38.988372
3203.000000	38.967006
3202.000000	38.942124
3201.000000	38.914373
3200.000000	38.885281
3199.000000	38.854638
3198.000000	38.822025
3197.000000	38.789087
3196.000000	38.757348
3195.000000	38.725585
3194.000000	38.691912
3193.000000	38.656753
3192.000000	38.621183
3191.000000	38.584008
3190.000000	38.543560
3189.000000	38.500601
3188.000000	38.456828
3187.000000	38.412191
3186.000000	38.366282
3185.000000	38.320576
3184.000000	38.276435
3183.000000	38.232817
3182.000000	38.188339
3181.000000	38.143621
3180.000000	38.099337
3179.000000	38.054048
3178.000000	38.006603
3177.000000	37.958662
3176.000000	37.912142
3175.000000	37.866208
3174.000000	37.819422
3173.000000	37.772813
3172.000000	37.728080
3171.000000	37.684654
3170.000000	37.641312
3169.000000	37.598752
3168.000000	37.557992
3167.000000	37.518123
3166.000000	37.478232
3165.000000	37.439487
3164.000000	37.402799
3163.000000	37.366689
3162.000000	37.329814
3161.000000	37.293503
3160.000000	37.259385
3159.000000	37.226645
3158.000000	37.194115
3157.000000	37.162793
3156.000000	37.133944
3155.000000	37.106905
3154.000000	37.081244
3153.000000	37.058763
3152.000000	37.040524
3151.000000	37.024176
3150.000000	37.006892
3149.000000	36.988906
3148.000000	36.971783
3147.000000	36.955453
3146.000000	36.939730
3145.000000	36.926499
3144.000000	36.917406
3143.000000	36.911324
3142.000000	36.906587
3141.000000	36.903868
3140.000000	36.904231
3139.000000	36.906235
3138.000000	36.907897
3137.000000	36.909433
3136.000000	36.911676
3135.000000	36.914062
3134.000000	36.916621
3133.000000	36.921830
3132.000000	36.931707
3131.000000	36.945191
3130.000000	36.960618
3129.000000	36.978230
3128.000000	36.998134
3127.000000	37.018319
3126.000000	37.037191
3125.000000	37.055884
3124.000000	37.075840
3123.000000	37.096514
3122.000000	37.117529
3121.000000	37.140800
3120.000000	37.168059
3119.000000	37.198278
3118.000000	37.230113
3117.000000	37.264468
3116.000000	37.302139
3115.000000	37.341454
3114.000000	37.380591
3113.000000	37.420128
3112.000000	37.461013
3111.000000	37.502347
3110.000000	37.543436
3109.000000	37.585649
3108.000000	37.630217
3107.000000	37.676261
3106.000000	37.722971
3105.000000	37.771584
3104.000000	37.823266
3103.000000	37.877180
3102.000000	37.932402
3101.000000	37.989714
3100.000000	38.049380
3099.000000	38.109131
3098.000000	38.166773
3097.000000	38.222936
3096.000000	38.279212
3095.000000	38.335823
3094.000000	38.393152
3093.000000	38.453449
3092.000000	38.518645
3091.000000	38.588006
3090.000000	38.659797
3089.000000	38.733220
3088.000000	38.807046
3087.000000	38.878638
3086.000000	38.946549
3085.000000	39.012392
3084.000000	39.078265
3083.000000	39.144358
3082.000000	39.210940
3081.000000	39.280500
3080.000000	39.355503
3079.000000	39.435598
3078.000000	39.518843
3077.000000	39.603719
3076.000000	39.688141
3075.000000	39.768920
3074.000000	39.844477
3073.000000	39.916577
3072.000000	39.987970
3071.000000	40.059953
3070.000000	40.133632
3069.000000	40.211280
3068.000000	40.294172
3067.000000	40.380740
3066.000000	40.468508
3065.000000	40.556285
3064.000000	40.643067
3063.000000	40.726933
3062.000000	40.807039
3061.000000	40.885043
3060.000000	40.962852
3059.000000	41.040715
3058.000000	41.118975
3057.000000	41.199508
3056.000000	41.283451
3055.000000	41.369239
3054.000000	41.454824
3053.000000	41.540060
3052.000000	41.625358
3051.000000	41.709842
3050.000000	41.792667
3049.000000	41.874612
3048.000000	41.956566
3047.000000	42.038024
3046.000000	42.118637
3045.000000	42.199458
3044.000000	42.281214
3043.000000	42.363178
3042.000000	42.445193
3041.000000	42.528768
3040.000000	42.614455
3039.000000	42.700345
3038.000000	42.784824
3037.000000	42.868846
3036.000000	42.953710
3035.000000	43.038397
3034.000000	43.121006
3033.000000	43.201127
3032.000000	43.279197
3031.000000	43.355521
3030.000000	43.431520
3029.000000	43.509922
3028.000000	43.592148
3027.000000	43.677227
3026.000000	43.764221
3025.000000	43.853340
3024.000000	43.943281
3023.000000	44.030093
3022.000000	44.110755
3021.000000	44.186094
3020.000000	44.258812
3019.000000	44.330683
3018.000000	44.403268
3017.000000	44.479104
3016.000000	44.559842
3015.000000	44.644652
3014.000000	44.732044
3013.000000	44.821527
3012.000000	44.911855
3011.000000	44.999660
3010.000000	45.081920
3009.000000	45.158546
3008.000000	45.231246
3007.000000	45.301692
3006.000000	45.372194
3005.000000	45.446056
3004.000000	45.525199
3003.000000	45.608437
3002.000000	45.693346
3001.000000	45.778375
3000.000000	45.862171
2999.000000	45.942835
2998.000000	46.019514
2997.000000	46.093281
2996.000000	46.165183
2995.000000	46.235352
2994.000000	46.305204
2993.000000	46.378209
2992.000000	46.456587
2991.000000	46.538848
2990.000000	46.622122
2989.000000	46.705123
2988.000000	46.787302
2987.000000	46.867183
2986.000000	46.943637
2985.000000	47.017398
2984.000000	47.089633
2983.000000	47.160512
2982.000000	47.230609
2981.000000	47.301880
2980.000000	47.375515
2979.000000	47.450252
2978.000000	47.524512
2977.000000	47.598856
2976.000000	47.674843
2975.000000	47.752768
2974.000000	47.831919
2973.000000	47.911630
2972.000000	47.990688
2971.000000	48.067117
2970.000000	48.140013
2969.000000	48.210476
2968.000000	48.279712
2967.000000	48.347847
2966.000000	48.415740
2965.000000	48.486129
2964.000000	48.561309
2963.000000	48.641047
2962.000000	48.723788
2961.000000	48.808032
2960.000000	48.891352
2959.000000	48.970248
2958.000000	49.042661
2957.000000	49.109250
2956.000000	49.171350
2955.000000	49.230008
2954.000000	49.288155
2953.000000	49.350861
2952.000000	49.421183
2951.000000	49.497341
2950.000000	49.575532
2949.000000	49.653490
2948.000000	49.729902
2947.000000	49.802782
2946.000000	49.870922
2945.000000	49.935619
2944.000000	49.999147
2943.000000	50.062669
2942.000000	50.127012
2941.000000	50.193857
2940.000000	50.264349
2939.000000	50.337678
2938.000000	50.412330
2937.000000	50.487468
2936.000000	50.561881
2935.000000	50.633208
2934.000000	50.699804
2933.000000	50.762296
2932.000000	50.822305
2931.000000	50.881189
2930.000000	50.941022
2929.000000	51.004773
2928.000000	51.073864
2927.000000	51.146950
2926.000000	51.222273
2925.000000	51.299435
2924.000000	51.377700
2923.000000	51.454553
2922.000000	51.527533
2921.000000	51.595948
2920.000000	51.659610
2919.000000	51.717739
2918.000000	51.770334
2917.000000	51.818890
2916.000000	51.864690
2915.000000	51.908092
2914.000000	51.950463
2913.000000	51.994818
2912.000000	52.043339
2911.000000	52.095798
2910.000000	52.151235
2909.000000	52.209302
2908.000000	52.268768
2907.000000	52.326663
2906.000000	52.380570
2905.000000	52.430512
2904.000000	52.477472
2903.000000	52.522338
2902.000000	52.567134
2901.000000	52.615449
2900.000000	52.670299
2899.000000	52.731728
2898.000000	52.797717
2897.000000	52.865584
2896.000000	52.931786
2895.000000	52.992252
2894.000000	53.044702
2893.000000	53.089958
2892.000000	53.130306
2891.000000	53.168005
2890.000000	53.205978
2889.000000	53.247973
2888.000000	53.296353
2887.000000	53.350665
2886.000000	53.409077
2885.000000	53.469850
2884.000000	53.530646
2883.000000	53.588271
2882.000000	53.640697
2881.000000	53.688378
2880.000000	53.732865
2879.000000	53.775651
2878.000000	53.819339
2877.000000	53.868025
2876.000000	53.924321
2875.000000	53.986457
2874.000000	54.049574
2873.000000	54.109470
2872.000000	54.164691
2871.000000	54.216296
2870.000000	54.266679
2869.000000	54.317817
2868.000000	54.369564
2867.000000	54.420043
2866.000000	54.468140
2865.000000	54.514858
2864.000000	54.562192
2863.000000	54.611745
2862.000000	54.664621
2861.000000	54.721051
2860.000000	54.779590
2859.000000	54.838166
2858.000000	54.896479
2857.000000	54.955952
2856.000000	55.016836
2855.000000	55.077075
2854.000000	55.134746
2853.000000	55.190116
2852.000000	55.244591
2851.000000	55.298909
2850.000000	55.352929
2849.000000	55.405807
2848.000000	55.455986
2847.000000	55.502628
2846.000000	55.547398
2845.000000	55.593277
2844.000000	55.641270
2843.000000	55.689761
2842.000000	55.737097
2841.000000	55.782566
2840.000000	55.824609
2839.000000	55.861071
2838.000000	55.892902
2837.000000	55.925617
2836.000000	55.965344
2835.000000	56.014418
2834.000000	56.071380
2833.000000	56.133262
2832.000000	56.196318
2831.000000	56.256204
2830.000000	56.309745
2829.000000	56.356496
2828.000000	56.398003
2827.000000	56.436484
2826.000000	56.474873
2825.000000	56.516691
2824.000000	56.564334
2823.000000	56.617969
2822.000000	56.676597
2821.000000	56.739097
2820.000000	56.803488
2819.000000	56.866502
2818.000000	56.925145
2817.000000	56.978169
2816.000000	57.025615
2815.000000	57.068207
2814.000000	57.108038
2813.000000	57.148479
2812.000000	57.192087
2811.000000	57.239112
2810.000000	57.288691
2809.000000	57.340487
2808.000000	57.394330
2807.000000	57.449257
2806.000000	57.503829
2805.000000	57.556702
2804.000000	57.606237
2803.000000	57.650610
2802.000000	57.689308
2801.000000	57.723886
2800.000000	57.756554
2799.000000	57.788831
2798.000000	57.822221
2797.000000	57.859060
2796.000000	57.901512
2795.000000	57.950145
2794.000000	58.003891
2793.000000	58.060517
2792.000000	58.116526
2791.000000	58.167717
2790.000000	58.211136
2789.000000	58.246555
2788.000000	58.276028
2787.000000	58.302880
2786.000000	58.331359
2785.000000	58.365763
2784.000000	58.408495
2783.000000	58.459044
2782.000000	58.515104
2781.000000	58.573859
2780.000000	58.631883
2779.000000	58.685150
2778.000000	58.730378
2777.000000	58.766337
2776.000000	58.793814
2775.000000	58.815091
2774.000000	58.833766
2773.000000	58.853898
2772.000000	58.878154
2771.000000	58.906992
2770.000000	58.939587
2769.000000	58.974444
2768.000000	59.008776
2767.000000	59.038472
2766.000000	59.059898
2765.000000	59.071472
2764.000000	59.073504
2763.000000	59.067700
2762.000000	59.057246
2761.000000	59.046332
2760.000000	59.038532
2759.000000	59.035767
2758.000000	59.038928
2757.000000	59.048228
2756.000000	59.062267
2755.000000	59.077745
2754.000000	59.090916
2753.000000	59.098967
2752.000000	59.099846
2751.000000	59.092139
2750.000000	59.075968
2749.000000	59.053164
2748.000000	59.025990
2747.000000	58.996153
2746.000000	58.965319
2745.000000	58.935373
2744.000000	58.907093
2743.000000	58.879428
2742.000000	58.850665
2741.000000	58.819552
2740.000000	58.785045
2739.000000	58.746275
2738.000000	58.703966
2737.000000	58.661461
2736.000000	58.623685
2735.000000	58.595728
2734.000000	58.582752
2733.000000	58.589283
2732.000000	58.617418
2731.000000	58.665924
2730.000000	58.731139
2729.000000	58.808401
2728.000000	58.892028
2727.000000	58.975713
2726.000000	59.054786
2725.000000	59.127762
2724.000000	59.195801
2723.000000	59.261349
2722.000000	59.327513
2721.000000	59.397522
2720.000000	59.473267
2719.000000	59.554375
2718.000000	59.638796
2717.000000	59.723539
2716.000000	59.804656
2715.000000	59.877849
2714.000000	59.940068
2713.000000	59.990475
2712.000000	60.029788
2711.000000	60.059436
2710.000000	60.082087
2709.000000	60.101754
2708.000000	60.122292
2707.000000	60.145922
2706.000000	60.173047
2705.000000	60.202776
2704.000000	60.232893
2703.000000	60.260068
2702.000000	60.281251
2701.000000	60.294768
2700.000000	60.300256
2699.000000	60.298296
2698.000000	60.290706
2697.000000	60.280622
2696.000000	60.271387
2695.000000	60.265516
2694.000000	60.264668
2693.000000	60.269614
2692.000000	60.279626
2691.000000	60.292412
2690.000000	60.305165
2689.000000	60.315351
2688.000000	60.320557
2687.000000	60.318750
2686.000000	60.309507
2685.000000	60.294631
2684.000000	60.277153
2683.000000	60.260166
2682.000000	60.246732
2681.000000	60.239665
2680.000000	60.240320
2679.000000	60.247806
2678.000000	60.259790
2677.000000	60.273547
2676.000000	60.286127
2675.000000	60.294537
2674.000000	60.296799
2673.000000	60.293047
2672.000000	60.285543
2671.000000	60.278197
2670.000000	60.275913
2669.000000	60.283122
2668.000000	60.301897
2667.000000	60.331229
2666.000000	60.368011
2665.000000	60.408057
2664.000000	60.446255
2663.000000	60.477350
2662.000000	60.497720
2661.000000	60.506443
2660.000000	60.504919
2659.000000	60.496316
2658.000000	60.485357
2657.000000	60.477384
2656.000000	60.476418
2655.000000	60.483908
2654.000000	60.499191
2653.000000	60.520262
2652.000000	60.543944
2651.000000	60.566610
2650.000000	60.585855
2649.000000	60.601338
2648.000000	60.614310
2647.000000	60.627077
2646.000000	60.643171
2645.000000	60.667022
2644.000000	60.702104
2643.000000	60.749611
2642.000000	60.808584
2641.000000	60.876473
2640.000000	60.949579
2639.000000	61.023619
2638.000000	61.094896
2637.000000	61.160875
2636.000000	61.219825
2635.000000	61.270816
2634.000000	61.314318
2633.000000	61.352099
2632.000000	61.386212
2631.000000	61.418494
2630.000000	61.450645
2629.000000	61.484038
2628.000000	61.518897
2627.000000	61.554173
2626.000000	61.588543
2625.000000	61.620692
2624.000000	61.648812
2623.000000	61.670719
2622.000000	61.685143
2621.000000	61.692656
2620.000000	61.694890
2619.000000	61.693642
2618.000000	61.690921
2617.000000	61.689000
2616.000000	61.689785
2615.000000	61.693865
2614.000000	61.700177
2613.000000	61.706031
2612.000000	61.707379
2611.000000	61.700262
2610.000000	61.682573
2609.000000	61.654715
2608.000000	61.619001
2607.000000	61.579172
2606.000000	61.540547
2605.000000	61.509277
2604.000000	61.490326
2603.000000	61.486026
2602.000000	61.496344
2601.000000	61.519230
2600.000000	61.550795
2599.000000	61.586210
2598.000000	61.621222
2597.000000	61.653412
2596.000000	61.682078
2595.000000	61.708281
2594.000000	61.735154
2593.000000	61.766810
2592.000000	61.806362
2591.000000	61.854713
2590.000000	61.910971
2589.000000	61.972991
2588.000000	62.037227
2587.000000	62.099526
2586.000000	62.156915
2585.000000	62.208618
2584.000000	62.255535
2583.000000	62.299495
2582.000000	62.343242
2581.000000	62.389982
2580.000000	62.442074
2579.000000	62.500270
2578.000000	62.564184
2577.000000	62.632864
2576.000000	62.704525
2575.000000	62.776531
2574.000000	62.846325
2573.000000	62.912223
2572.000000	62.973410
2571.000000	63.029820
2570.000000	63.082287
2569.000000	63.132136
2568.000000	63.180268
2567.000000	63.226791
2566.000000	63.271793
2565.000000	63.315982
2564.000000	63.359879
2563.000000	63.402840
2562.000000	63.442853
2561.000000	63.477055
2560.000000	63.502357
2559.000000	63.515589
2558.000000	63.514271
2557.000000	63.497179
2556.000000	63.464858
2555.000000	63.420676
2554.000000	63.371223
2553.000000	63.325511
2552.000000	63.292534
2551.000000	63.278910
2550.000000	63.287710
2549.000000	63.318481
2548.000000	63.367250
2547.000000	63.427480
2546.000000	63.492304
2545.000000	63.556105
2544.000000	63.615643
2543.000000	63.670255
2542.000000	63.721704
2541.000000	63.773451
2540.000000	63.828894
2539.000000	63.889874
2538.000000	63.956078
2537.000000	64.025083
2536.000000	64.092723
2535.000000	64.154169
2534.000000	64.205448
2533.000000	64.244825
2532.000000	64.273394
2531.000000	64.294662
2530.000000	64.313615
2529.000000	64.335237
2528.000000	64.363080
2527.000000	64.398608
2526.000000	64.441232
2525.000000	64.488663
2524.000000	64.537432
2523.000000	64.583859
2522.000000	64.625229
2521.000000	64.660438
2520.000000	64.689976
2519.000000	64.715627
2518.000000	64.739968
2517.000000	64.765510
2516.000000	64.793725
2515.000000	64.824838
2514.000000	64.858223
2513.000000	64.892749
2512.000000	64.926984
2511.000000	64.959726
2510.000000	64.990642
2509.000000	65.020218
2508.000000	65.048906
2507.000000	65.076567
2506.000000	65.102671
2505.000000	65.126786
2504.000000	65.148728
2503.000000	65.168551
2502.000000	65.186792
2501.000000	65.204633
2500.000000	65.223722
2499.000000	65.245714
2498.000000	65.271670
2497.000000	65.301372
2496.000000	65.333053
2495.000000	65.363982
2494.000000	65.391521
2493.000000	65.413717
2492.000000	65.429472
2491.000000	65.438930
2490.000000	65.444159
2489.000000	65.449074
2488.000000	65.458017
2487.000000	65.473985
2486.000000	65.497726
2485.000000	65.527721
2484.000000	65.560635
2483.000000	65.592053
2482.000000	65.617712
2481.000000	65.634791
2480.000000	65.642753
2479.000000	65.643548
2478.000000	65.641175
2477.000000	65.640679
2476.000000	65.646620
2475.000000	65.661601
2474.000000	65.685469
2473.000000	65.715475
2472.000000	65.747119
2471.000000	65.775570
2470.000000	65.797086
2469.000000	65.809931
2468.000000	65.814672
2467.000000	65.814030
2466.000000	65.812246
2465.000000	65.813756
2464.000000	65.821692
2463.000000	65.836989
2462.000000	65.858490
2461.000000	65.883513
2460.000000	65.908585
2459.000000	65.930426
2458.000000	65.947045
2457.000000	65.958252
2456.000000	65.965307
2455.000000	65.970277
2454.000000	65.975572
2453.000000	65.983350
2452.000000	65.994692
2451.000000	66.009154
2450.000000	66.025245
2449.000000	66.041353
2448.000000	66.056359
2447.000000	66.069936
2446.000000	66.082661
2445.000000	66.095782
2444.000000	66.110418
2443.000000	66.126765
2442.000000	66.143938
2441.000000	66.160412
2440.000000	66.174504
2439.000000	66.184981
2438.000000	66.191772
2437.000000	66.196367
2436.000000	66.201357
2435.000000	66.209483
2434.000000	66.222816
2433.000000	66.242200
2432.000000	66.266701
2431.000000	66.293414
2430.000000	66.318224
2429.000000	66.337258
2428.000000	66.348233
2427.000000	66.351161
2426.000000	66.348470
2425.000000	66.344501
2424.000000	66.344326
2423.000000	66.352083
2422.000000	66.369688
2421.000000	66.396266
2420.000000	66.428304
2419.000000	66.460592
2418.000000	66.487824
2417.000000	66.506164
2416.000000	66.514172
2415.000000	66.513121
2414.000000	66.506843
2413.000000	66.500915
2412.000000	66.501035
2411.000000	66.511237
2410.000000	66.532768
2409.000000	66.563683
2408.000000	66.599042
2407.000000	66.632310
2406.000000	66.657886
2405.000000	66.673305
2404.000000	66.679501
2403.000000	66.679590
2402.000000	66.677758
2401.000000	66.678636
2400.000000	66.686143
2399.000000	66.701969
2398.000000	66.725083
2397.000000	66.752635
2396.000000	66.781110
2395.000000	66.807128
2394.000000	66.828398
2393.000000	66.844630
2392.000000	66.857498
2391.000000	66.869464
2390.000000	66.882753
2389.000000	66.898881
2388.000000	66.918617
2387.000000	66.941610
2386.000000	66.966773
2385.000000	66.993503
2384.000000	67.021660
2383.000000	67.051464
2382.000000	67.083002
2381.000000	67.116545
2380.000000	67.152751
2379.000000	67.190891
2378.000000	67.228708
2377.000000	67.263257
2376.000000	67.291941
2375.000000	67.313530
2374.000000	67.329065
2373.000000	67.342427
2372.000000	67.358829
2371.000000	67.382194
2370.000000	67.413802
2369.000000	67.454145
2368.000000	67.501966
2367.000000	67.552150
2366.000000	67.597622
2365.000000	67.634749
2364.000000	67.663926
2363.000000	67.682819
2362.000000	67.692119
2361.000000	67.698520
2360.000000	67.710178
2359.000000	67.735514
2358.000000	67.774215
2357.000000	67.823092
2356.000000	67.876496
2355.000000	67.924605
2354.000000	67.963591
2353.000000	67.995425
2352.000000	68.032014
2351.000000	68.072580
2350.000000	68.104950
2349.000000	68.124809
2348.000000	68.140805
2347.000000	68.173245
2346.000000	68.224567
2345.000000	68.283641
2344.000000	68.337569
2343.000000	68.379903
2342.000000	68.417051
2341.000000	68.447400
2340.000000	68.470541
2339.000000	68.486444
2338.000000	68.501218
2337.000000	68.520654
2336.000000	68.549087
2335.000000	68.587428
2334.000000	68.634486
2333.000000	68.684622
2332.000000	68.734033
2331.000000	68.780294
2330.000000	68.820994
2329.000000	68.859284
2328.000000	68.891191
2327.000000	68.922328
2326.000000	68.950925
2325.000000	68.980314
2324.000000	69.009954
2323.000000	69.039209
2322.000000	69.069140
2321.000000	69.097779
2320.000000	69.128385
2319.000000	69.162518
2318.000000	69.202978
2317.000000	69.248361
2316.000000	69.296045
2315.000000	69.344173
2314.000000	69.389056
2313.000000	69.428671
2312.000000	69.459953
2311.000000	69.485639
2310.000000	69.506885
2309.000000	69.528027
2308.000000	69.551499
2307.000000	69.583255
2306.000000	69.625409
2305.000000	69.677939
2304.000000	69.736567
2303.000000	69.796772
2302.000000	69.852049
2301.000000	69.896715
2300.000000	69.926753
2299.000000	69.944249
2298.000000	69.953536
2297.000000	69.961952
2296.000000	69.975881
2295.000000	70.002295
2294.000000	70.042884
2293.000000	70.095430
2292.000000	70.153585
2291.000000	70.211231
2290.000000	70.261510
2289.000000	70.298762
2288.000000	70.320689
2287.000000	70.330386
2286.000000	70.334403
2285.000000	70.339781
2284.000000	70.353185
2283.000000	70.379477
2282.000000	70.419966
2281.000000	70.470947
2280.000000	70.526219
2279.000000	70.579335
2278.000000	70.625040
2277.000000	70.659598
2276.000000	70.682739
2275.000000	70.697916
2274.000000	70.710027
2273.000000	70.723391
2272.000000	70.741316
2271.000000	70.766193
2270.000000	70.798149
2269.000000	70.835034
2268.000000	70.874237
2267.000000	70.913890
2266.000000	70.952004
2265.000000	70.986453
2264.000000	71.016263
2263.000000	71.042354
2262.000000	71.065364
2261.000000	71.084880
2260.000000	71.100908
2259.000000	71.114763
2258.000000	71.128027
2257.000000	71.141437
2256.000000	71.156355
2255.000000	71.174875
2254.000000	71.198094
2253.000000	71.224675
2252.000000	71.251742
2251.000000	71.275810
2250.000000	71.292052
2249.000000	71.295609
2248.000000	71.284091
2247.000000	71.259433
2246.000000	71.225986
2245.000000	71.188709
2244.000000	71.153155
2243.000000	71.124677
2242.000000	71.105425
2241.000000	71.092813
2240.000000	71.081306
2239.000000	71.064993
2238.000000	71.038537
2237.000000	70.998362
2236.000000	70.945130
2235.000000	70.884432
2234.000000	70.824515
2233.000000	70.773641
2232.000000	70.739112
2231.000000	70.725778
2230.000000	70.733563
2229.000000	70.756892
2228.000000	70.787340
2227.000000	70.816409
2226.000000	70.836289
2225.000000	70.841275
2224.000000	70.830669
2223.000000	70.809575
2222.000000	70.785630
2221.000000	70.765461
2220.000000	70.753961
2219.000000	70.754305
2218.000000	70.766484
2217.000000	70.786629
2216.000000	70.809082
2215.000000	70.828882
2214.000000	70.842361
2213.000000	70.847429
2212.000000	70.844798
2211.000000	70.837848
2210.000000	70.830197
2209.000000	70.823982
2208.000000	70.820684
2207.000000	70.821765
2206.000000	70.827447
2205.000000	70.836130
2204.000000	70.846202
2203.000000	70.857392
2202.000000	70.869744
2201.000000	70.882535
2200.000000	70.895095
2199.000000	70.907122
2198.000000	70.917267
2197.000000	70.922705
2196.000000	70.921320
2195.000000	70.913445
2194.000000	70.901004
2193.000000	70.886545
2192.000000	70.873770
2191.000000	70.867199
2190.000000	70.869596
2189.000000	70.880161
2188.000000	70.895468
2187.000000	70.910856
2186.000000	70.920484
2185.000000	70.918563
2184.000000	70.902675
2183.000000	70.875708
2182.000000	70.844063
2181.000000	70.815239
2180.000000	70.796940
2179.000000	70.795729
2178.000000	70.814072
2177.000000	70.848833
2176.000000	70.893183
2175.000000	70.939033
2174.000000	70.977946
2173.000000	71.002789
2172.000000	71.011256
2171.000000	71.007422
2170.000000	70.999180
2169.000000	70.994906
2168.000000	71.002186
2167.000000	71.026490
2166.000000	71.068440
2165.000000	71.122835
2164.000000	71.181552
2163.000000	71.236842
2162.000000	71.282121
2161.000000	71.312623
2160.000000	71.327824
2159.000000	71.332488
2158.000000	71.333987
2157.000000	71.339127
2156.000000	71.353274
2155.000000	71.379763
2154.000000	71.418074
2153.000000	71.463562
2152.000000	71.510179
2151.000000	71.553007
2150.000000	71.588365
2149.000000	71.614041
2148.000000	71.631011
2147.000000	71.643434
2146.000000	71.655448
2145.000000	71.669105
2144.000000	71.685734
2143.000000	71.706865
2142.000000	71.732662
2141.000000	71.761306
2140.000000	71.791444
2139.000000	71.823706
2138.000000	71.858905
2137.000000	71.896398
2136.000000	71.935163
2135.000000	71.974461
2134.000000	72.012317
2133.000000	72.045230
2132.000000	72.070899
2131.000000	72.089968
2130.000000	72.104421
2129.000000	72.116445
2128.000000	72.129865
2127.000000	72.150114
2126.000000	72.180652
2125.000000	72.220344
2124.000000	72.265197
2123.000000	72.310540
2122.000000	72.350822
2121.000000	72.380099
2120.000000	72.395222
2119.000000	72.397943
2118.000000	72.393501
2117.000000	72.388920
2116.000000	72.392639
2115.000000	72.412254
2114.000000	72.450003
2113.000000	72.501307
2112.000000	72.558343
2111.000000	72.613337
2110.000000	72.658538
2109.000000	72.687180
2108.000000	72.697412
2107.000000	72.693805
2106.000000	72.683946
2105.000000	72.675152
2104.000000	72.674467
2103.000000	72.687835
2102.000000	72.716007
2101.000000	72.753081
2100.000000	72.790111
2099.000000	72.819250
2098.000000	72.834485
2097.000000	72.831751
2096.000000	72.811613
2095.000000	72.780008
2094.000000	72.744743
2093.000000	72.712559
2092.000000	72.689516
2091.000000	72.680354
2090.000000	72.684968
2089.000000	72.697516
2088.000000	72.711064
2087.000000	72.721935
2086.000000	72.728903
2085.000000	72.731629
2084.000000	72.732093
2083.000000	72.735097
2082.000000	72.744659
2081.000000	72.761478
2080.000000	72.784618
2079.000000	72.813418
2078.000000	72.846141
2077.000000	72.878956
2076.000000	72.909818
2075.000000	72.940458
2074.000000	72.973591
2073.000000	73.010251
2072.000000	73.050313
2071.000000	73.093566
2070.000000	73.137839
2069.000000	73.178984
2068.000000	73.215169
2067.000000	73.249382
2066.000000	73.285770
2065.000000	73.325427
2064.000000	73.367806
2063.000000	73.414275
2062.000000	73.467702
2061.000000	73.529943
2060.000000	73.600934
2059.000000	73.678063
2058.000000	73.755040
2057.000000	73.823502
2056.000000	73.878399
2055.000000	73.920351
2054.000000	73.952808
2053.000000	73.980361
2052.000000	74.009836
2051.000000	74.049089
2050.000000	74.102400
2049.000000	74.168022
2048.000000	74.240387
2047.000000	74.312790
2046.000000	74.377480
2045.000000	74.427685
2044.000000	74.462678
2043.000000	74.488921
2042.000000	74.514567
2041.000000	74.544778
2040.000000	74.583129
2039.000000	74.633569
2038.000000	74.697904
2037.000000	74.773284
2036.000000	74.854150
2035.000000	74.934914
2034.000000	75.009531
2033.000000	75.072106
2032.000000	75.121406
2031.000000	75.162074
2030.000000	75.200796
2029.000000	75.242342
2028.000000	75.290604
2027.000000	75.348946
2026.000000	75.416793
2025.000000	75.489489
2024.000000	75.560857
2023.000000	75.625827
2022.000000	75.680169
2021.000000	75.722226
2020.000000	75.757100
2019.000000	75.795903
2018.000000	75.847540
2017.000000	75.911954
2016.000000	75.982784
2015.000000	76.053943
2014.000000	76.121879
2013.000000	76.185095
2012.000000	76.244896
2011.000000	76.304628
2010.000000	76.366771
2009.000000	76.431483
2008.000000	76.499389
2007.000000	76.571888
2006.000000	76.647136
2005.000000	76.720848
2004.000000	76.789476
2003.000000	76.853781
2002.000000	76.914558
2001.000000	76.971155
2000.000000	77.026912
1999.000000	77.085975
1998.000000	77.146865
1997.000000	77.203684
1996.000000	77.255164
1995.000000	77.307026
1994.000000	77.365783
1993.000000	77.432822
1992.000000	77.504261
1991.000000	77.573533
1990.000000	77.634695
1989.000000	77.686864
1988.000000	77.736338
1987.000000	77.791238
1986.000000	77.853275
1985.000000	77.919099
1984.000000	77.986854
1983.000000	78.057252
1982.000000	78.125808
1981.000000	78.183856
1980.000000	78.229375
1979.000000	78.266542
1978.000000	78.298392
1977.000000	78.325835
1976.000000	78.354363
1975.000000	78.391410
1974.000000	78.436775
1973.000000	78.482442
1972.000000	78.522342
1971.000000	78.555915
1970.000000	78.584581
1969.000000	78.612747
1968.000000	78.649619
1967.000000	78.700303
1966.000000	78.756487
1965.000000	78.804524
1964.000000	78.841475
1963.000000	78.875698
1962.000000	78.913249
1961.000000	78.952935
1960.000000	78.993286
1959.000000	79.035286
1958.000000	79.077699
1957.000000	79.117270
1956.000000	79.156107
1955.000000	79.198369
1954.000000	79.241913
1953.000000	79.279537
1952.000000	79.307375
1951.000000	79.329942
1950.000000	79.349644
1949.000000	79.361582
1948.000000	79.363809
1947.000000	79.363011
1946.000000	79.367342
1945.000000	79.382411
1944.000000	79.416772
1943.000000	79.477691
1942.000000	79.555186
1941.000000	79.624987
1940.000000	79.671879
1939.000000	79.698774
1938.000000	79.714892
1937.000000	79.726676
1936.000000	79.740838
1935.000000	79.764187
1934.000000	79.799595
1933.000000	79.843236
1932.000000	79.888014
1931.000000	79.933559
1930.000000	79.975548
1929.000000	80.003488
1928.000000	80.008570
1927.000000	79.991818
1926.000000	79.966503
1925.000000	79.944216
1924.000000	79.936001
1923.000000	79.952370
1922.000000	79.993454
1921.000000	80.047636
1920.000000	80.102114
1919.000000	80.153504
1918.000000	80.205053
1917.000000	80.251052
1916.000000	80.281774
1915.000000	80.295313
1914.000000	80.295452
1913.000000	80.286644
1912.000000	80.277155
1911.000000	80.282620
1910.000000	80.310861
1909.000000	80.356483
1908.000000	80.406757
1907.000000	80.452127
1906.000000	80.493379
1905.000000	80.528472
1904.000000	80.556536
1903.000000	80.584824
1902.000000	80.615606
1901.000000	80.640207
1900.000000	80.649895
1899.000000	80.646038
1898.000000	80.639857
1897.000000	80.638473
1896.000000	80.643054
1895.000000	80.653310
1894.000000	80.665760
1893.000000	80.674533
1892.000000	80.681940
1891.000000	80.703327
1890.000000	80.749219
1889.000000	80.805152
1888.000000	80.846022
1887.000000	80.863559
1886.000000	80.865519
1885.000000	80.859840
1884.000000	80.852937
1883.000000	80.854965
1882.000000	80.870688
1881.000000	80.896916
1880.000000	80.931349
1879.000000	80.972072
1878.000000	81.014885
1877.000000	81.050080
1876.000000	81.062292
1875.000000	81.041440
1874.000000	80.989585
1873.000000	80.917996
1872.000000	80.842554
1871.000000	80.782577
1870.000000	80.763623
1869.000000	80.805286
1868.000000	80.897301
1867.000000	81.007431
1866.000000	81.104190
1865.000000	81.164502
1864.000000	81.182735
1863.000000	81.173803
1862.000000	81.156155
1861.000000	81.137706
1860.000000	81.123239
1859.000000	81.121843
1858.000000	81.137761
1857.000000	81.163943
1856.000000	81.189462
1855.000000	81.213899
1854.000000	81.232590
1853.000000	81.231683
1852.000000	81.208802
1851.000000	81.163556
1850.000000	81.094353
1849.000000	81.012980
1848.000000	80.956677
1847.000000	80.959913
1846.000000	81.012460
1845.000000	81.070642
1844.000000	81.111038
1843.000000	81.138887
1842.000000	81.155599
1841.000000	81.155448
1840.000000	81.136377
1839.000000	81.112526
1838.000000	81.104710
1837.000000	81.105323
1836.000000	81.087882
1835.000000	81.042544
1834.000000	80.975514
1833.000000	80.897807
1832.000000	80.823921
1831.000000	80.768747
1830.000000	80.744726
1829.000000	80.745159
1828.000000	80.758347
1827.000000	80.780891
1826.000000	80.810637
1825.000000	80.845661
1824.000000	80.877637
1823.000000	80.891669
1822.000000	80.874298
1821.000000	80.826678
1820.000000	80.764293
1819.000000	80.706038
1818.000000	80.665641
1817.000000	80.638083
1816.000000	80.611320
1815.000000	80.577027
1814.000000	80.534210
1813.000000	80.492847
1812.000000	80.459421
1811.000000	80.435456
1810.000000	80.417538
1809.000000	80.394870
1808.000000	80.359812
1807.000000	80.313762
1806.000000	80.262866
1805.000000	80.207837
1804.000000	80.157511
1803.000000	80.131584
1802.000000	80.139987
1801.000000	80.172400
1800.000000	80.193849
1799.000000	80.174863
1798.000000	80.111845
1797.000000	80.023987
1796.000000	79.946023
1795.000000	79.903609
1794.000000	79.894844
1793.000000	79.917728
1792.000000	79.974435
1791.000000	80.045989
1790.000000	80.098985
1789.000000	80.113008
1788.000000	80.088542
1787.000000	80.039517
1786.000000	79.978416
1785.000000	79.899618
1784.000000	79.808432
1783.000000	79.726685
1782.000000	79.663492
1781.000000	79.624157
1780.000000	79.599880
1779.000000	79.568808
1778.000000	79.499788
1777.000000	79.387769
1776.000000	79.279319
1775.000000	79.215539
1774.000000	79.173409
1773.000000	79.121687
1772.000000	79.079003
1771.000000	79.064113
1770.000000	79.073218
1769.000000	79.082204
1768.000000	79.065308
1767.000000	79.018749
1766.000000	78.955847
1765.000000	78.894969
1764.000000	78.850237
1763.000000	78.822395
1762.000000	78.796985
1761.000000	78.756617
1760.000000	78.700739
1759.000000	78.654634
1758.000000	78.611574
1757.000000	78.542579
1756.000000	78.449268
1755.000000	78.353112
1754.000000	78.256472
1753.000000	78.141532
1752.000000	78.009433
1751.000000	77.902368
1750.000000	77.849615
1749.000000	77.822585
1748.000000	77.794281
1747.000000	77.749149
1746.000000	77.669039
1745.000000	77.557753
1744.000000	77.449659
1743.000000	77.385710
1742.000000	77.370111
1741.000000	77.351206
1740.000000	77.275982
1739.000000	77.159966
1738.000000	77.053797
1737.000000	76.991036
1736.000000	76.934661
1735.000000	76.817868
1734.000000	76.657619
1733.000000	76.491033
1732.000000	76.337024
1731.000000	76.233058
1730.000000	76.177854
1729.000000	76.124951
1728.000000	76.047961
1727.000000	75.942710
1726.000000	75.808555
1725.000000	75.647019
1724.000000	75.450700
1723.000000	75.227001
1722.000000	74.995849
1721.000000	74.768067
1720.000000	74.531501
1719.000000	74.285335
1718.000000	74.084133
1717.000000	73.957100
1716.000000	73.859608
1715.000000	73.757342
1714.000000	73.645068
1713.000000	73.509065
1712.000000	73.337484
1711.000000	73.138058
1710.000000	72.917001
1709.000000	72.679460
1708.000000	72.436162
1707.000000	72.186210
1706.000000	71.921765
1705.000000	71.659066
1704.000000	71.458542
1703.000000	71.373531
1702.000000	71.306156
1701.000000	71.079168
1700.000000	70.737526
1699.000000	70.456746
1698.000000	70.330829
1697.000000	70.304311
1696.000000	70.220091
1695.000000	70.020107
1694.000000	69.757856
1693.000000	69.482871
1692.000000	69.202923
1691.000000	68.913720
1690.000000	68.621068
1689.000000	68.348977
1688.000000	68.134127
1687.000000	67.981957
1686.000000	67.828559
1685.000000	67.613805
1684.000000	67.385150
1683.000000	67.185337
1682.000000	66.996826
1681.000000	66.797938
1680.000000	66.595523
1679.000000	66.424426
1678.000000	66.300018
1677.000000	66.173857
1676.000000	65.985603
1675.000000	65.741273
1674.000000	65.476788
1673.000000	65.219849
1672.000000	64.989039
1671.000000	64.799905
1670.000000	64.648432
1669.000000	64.499294
1668.000000	64.329971
1667.000000	64.155160
1666.000000	63.990805
1665.000000	63.821890
1664.000000	63.631662
1663.000000	63.443675
1662.000000	63.267550
1661.000000	63.079023
1660.000000	62.859595
1659.000000	62.604312
1658.000000	62.319491
1657.000000	62.053925
1656.000000	61.873193
1655.000000	61.780395
1654.000000	61.710296
1653.000000	61.565751
1652.000000	61.291122
1651.000000	60.954833
1650.000000	60.656898
1649.000000	60.433767
1648.000000	60.292509
1647.000000	60.231350
1646.000000	60.191014
1645.000000	60.091259
1644.000000	59.926604
1643.000000	59.740328
1642.000000	59.533262
1641.000000	59.282326
1640.000000	59.002411
1639.000000	58.751472
1638.000000	58.571387
1637.000000	58.456556
1636.000000	58.377072
1635.000000	58.290412
1634.000000	58.171205
1633.000000	58.015692
1632.000000	57.837838
1631.000000	57.652309
1630.000000	57.460313
1629.000000	57.255242
1628.000000	57.047492
1627.000000	56.866176
1626.000000	56.721031
1625.000000	56.593407
1624.000000	56.468050
1623.000000	56.350871
1622.000000	56.235032
1621.000000	56.110137
1620.000000	55.996360
1619.000000	55.917976
1618.000000	55.863391
1617.000000	55.799620
1616.000000	55.718374
1615.000000	55.638471
1614.000000	55.573294
1613.000000	55.508396
1612.000000	55.430499
1611.000000	55.356335
1610.000000	55.304156
1609.000000	55.264551
1608.000000	55.226860
1607.000000	55.200231
1606.000000	55.181785
1605.000000	55.158364
1604.000000	55.133767
1603.000000	55.124941
1602.000000	55.133205
1601.000000	55.137601
1600.000000	55.125109
1599.000000	55.102315
1598.000000	55.077019
1597.000000	55.050255
1596.000000	55.029352
1595.000000	55.029708
1594.000000	55.052198
1593.000000	55.078472
1592.000000	55.096911
1591.000000	55.114551
1590.000000	55.134529
1589.000000	55.145299
1588.000000	55.138887
1587.000000	55.127172
1586.000000	55.119139
1585.000000	55.106913
1584.000000	55.094331
1583.000000	55.088601
1582.000000	55.073258
1581.000000	55.026623
1580.000000	54.965489
1579.000000	54.929621
1578.000000	54.933945
1577.000000	54.948983
1576.000000	54.935564
1575.000000	54.883818
1574.000000	54.808100
1573.000000	54.734171
1572.000000	54.671867
1571.000000	54.625192
1570.000000	54.606589
1569.000000	54.602227
1568.000000	54.589865
1567.000000	54.571653
1566.000000	54.546806
1565.000000	54.496350
1564.000000	54.432997
1563.000000	54.391426
1562.000000	54.386519
1561.000000	54.348188
1560.000000	54.302559
1559.000000	54.429989
1558.000000	54.651700
1557.000000	54.793373
1556.000000	54.889047
1555.000000	55.000318
1554.000000	55.110903
1553.000000	55.199609
1552.000000	55.281857
1551.000000	55.391699
1550.000000	55.542607
1549.000000	55.696245
1548.000000	55.807469
1547.000000	55.864857
1546.000000	55.885654
1545.000000	55.909561
1544.000000	55.970998
1543.000000	56.077091
1542.000000	56.251993
1541.000000	56.558885
1540.000000	56.975855
1539.000000	57.335119
1538.000000	57.537291
1537.000000	57.636662
1536.000000	57.723669
1535.000000	57.850938
1534.000000	58.050108
1533.000000	58.318827
1532.000000	58.585747
1531.000000	58.804331
1530.000000	58.995436
1529.000000	59.191697
1528.000000	59.415052
1527.000000	59.669586
1526.000000	59.929576
1525.000000	60.167837
1524.000000	60.396178
1523.000000	60.667796
1522.000000	61.030299
1521.000000	61.439310
1520.000000	61.792790
1519.000000	62.086489
1518.000000	62.414077
1517.000000	62.831142
1516.000000	63.290755
1515.000000	63.714187
1514.000000	64.068702
1513.000000	64.346847
1512.000000	64.542252
1511.000000	64.674867
1510.000000	64.800027
1509.000000	65.004026
1508.000000	65.444781
1507.000000	66.204667
1506.000000	67.013462
1505.000000	67.559908
1504.000000	67.861704
1503.000000	68.085399
1502.000000	68.325343
1501.000000	68.588681
1500.000000	68.870244
1499.000000	69.193091
1498.000000	69.594804
1497.000000	70.060141
1496.000000	70.494143
1495.000000	70.823872
1494.000000	71.054912
1493.000000	71.219740
1492.000000	71.346785
1491.000000	71.509712
1490.000000	71.802263
1489.000000	72.213099
1488.000000	72.638745
1487.000000	73.023479
1486.000000	73.356830
1485.000000	73.613755
1484.000000	73.796952
1483.000000	73.944025
1482.000000	74.089125
1481.000000	74.224156
1480.000000	74.325243
1479.000000	74.388867
1478.000000	74.421490
1477.000000	74.424913
1476.000000	74.413983
1475.000000	74.426922
1474.000000	74.475280
1473.000000	74.523586
1472.000000	74.510212
1471.000000	74.393976
1470.000000	74.165328
1469.000000	73.820851
1468.000000	73.364144
1467.000000	72.800724
1466.000000	72.086122
1465.000000	71.167788
1464.000000	70.100954
1463.000000	69.016956
1462.000000	67.987196
1461.000000	67.017525
1460.000000	66.145662
1459.000000	65.445447
1458.000000	64.950109
1457.000000	64.586557
1456.000000	64.272144
1455.000000	63.986712
1454.000000	63.683458
1453.000000	63.284506
1452.000000	62.755270
1451.000000	62.113359
1450.000000	61.351853
1449.000000	60.419822
1448.000000	59.325866
1447.000000	58.160494
1446.000000	56.954016
1445.000000	55.666686
1444.000000	54.282310
1443.000000	52.811355
1442.000000	51.252320
1441.000000	49.637251
1440.000000	48.059919
1439.000000	46.541533
1438.000000	44.928121
1437.000000	43.086659
1436.000000	41.225351
1435.000000	39.671564
1434.000000	38.427348
1433.000000	37.310169
1432.000000	36.262112
1431.000000	35.339015
1430.000000	34.560075
1429.000000	33.906405
1428.000000	33.426964
1427.000000	33.178223
1426.000000	33.118302
1425.000000	33.199206
1424.000000	33.457519
1423.000000	33.902021
1422.000000	34.443319
1421.000000	35.028689
1420.000000	35.747602
1419.000000	36.671832
1418.000000	37.663206
1417.000000	38.577568
1416.000000	39.466602
1415.000000	40.411768
1414.000000	41.395225
1413.000000	42.389553
1412.000000	43.432297
1411.000000	44.545023
1410.000000	45.669753
1409.000000	46.752479
1408.000000	47.815311
1407.000000	48.910999
1406.000000	50.057054
1405.000000	51.247814
1404.000000	52.459622
1403.000000	53.630707
1402.000000	54.716449
1401.000000	55.756499
1400.000000	56.835689
1399.000000	57.958732
1398.000000	59.043077
1397.000000	60.071122
1396.000000	61.134486
1395.000000	62.289801
1394.000000	63.459278
1393.000000	64.541264
1392.000000	65.523665
1391.000000	66.438008
1390.000000	67.307166
1389.000000	68.162629
1388.000000	69.035908
1387.000000	69.903829
1386.000000	70.695552
1385.000000	71.384303
1384.000000	71.996318
1383.000000	72.538564
1382.000000	72.990945
1381.000000	73.335019
1380.000000	73.551175
1379.000000	73.598125
1378.000000	73.432750
1377.000000	73.038360
1376.000000	72.408377
1375.000000	71.531088
1374.000000	70.416837
1373.000000	69.129803
1372.000000	67.765313
1371.000000	66.418866
1370.000000	65.202035
1369.000000	64.266069
1368.000000	63.751401
1367.000000	63.701516
1366.000000	64.067539
1365.000000	64.787869
1364.000000	65.829286
1363.000000	67.138470
1362.000000	68.578017
1361.000000	69.973593
1360.000000	71.210972
1359.000000	72.245262
1358.000000	73.058101
1357.000000	73.636910
1356.000000	73.968407
1355.000000	74.036465
1354.000000	73.833438
1353.000000	73.364342
1352.000000	72.637812
1351.000000	71.659916
1350.000000	70.433068
1349.000000	68.965977
1348.000000	67.270494
1347.000000	65.360995
1346.000000	63.261686
1345.000000	61.014321
1344.000000	58.683589
1343.000000	56.340935
1342.000000	54.044813
1341.000000	51.852264
1340.000000	49.851088
1339.000000	48.151949
1338.000000	46.829327
1337.000000	45.877314
1336.000000	45.225890
1335.000000	44.769090
1334.000000	44.367730
1333.000000	43.866366
1332.000000	43.136022
1331.000000	42.108234
1330.000000	40.781065
1329.000000	39.208293
1328.000000	37.483892
1327.000000	35.718771
1326.000000	34.008120
1325.000000	32.418759
1324.000000	31.008163
1323.000000	29.832737
1322.000000	28.922294
1321.000000	28.267321
1320.000000	27.841083
1319.000000	27.603763
1318.000000	27.488711
1317.000000	27.417182
1316.000000	27.337452
1315.000000	27.236399
1314.000000	27.110345
1313.000000	26.953780
1312.000000	26.776805
1311.000000	26.603878
1310.000000	26.451668
1309.000000	26.327453
1308.000000	26.249663
1307.000000	26.244934
1306.000000	26.321394
1305.000000	26.469109
1304.000000	26.683703
1303.000000	26.966833
1302.000000	27.305994
1301.000000	27.676818
1300.000000	28.068831
1299.000000	28.485348
1298.000000	28.921592
1297.000000	29.365572
1296.000000	29.816307
1295.000000	30.281398
1294.000000	30.757535
1293.000000	31.233312
1292.000000	31.708076
1291.000000	32.189002
1290.000000	32.671748
1289.000000	33.140959
1288.000000	33.583104
1287.000000	33.978751
1286.000000	34.289489
1285.000000	34.472947
1284.000000	34.516738
1283.000000	34.450899
1282.000000	34.332561
1281.000000	34.230935
1280.000000	34.215319
1279.000000	34.330919
1278.000000	34.578085
1277.000000	34.925707
1276.000000	35.341820
1275.000000	35.802494
1274.000000	36.282958
1273.000000	36.761290
1272.000000	37.231234
1271.000000	37.694906
1270.000000	38.147630
1269.000000	38.583443
1268.000000	39.008635
1267.000000	39.434975
1266.000000	39.863443
1265.000000	40.287091
1264.000000	40.704338
1263.000000	41.117309
1262.000000	41.521386
1261.000000	41.909919
1260.000000	42.285025
1259.000000	42.652278
1258.000000	43.011151
1257.000000	43.360925
1256.000000	43.709633
1255.000000	44.066083
1254.000000	44.428319
1253.000000	44.789155
1252.000000	45.146404
1251.000000	45.499039
1250.000000	45.840350
1249.000000	46.164705
1248.000000	46.476500
1247.000000	46.784039
1246.000000	47.090061
1245.000000	47.395406
1244.000000	47.704925
1243.000000	48.021508
1242.000000	48.339048
1241.000000	48.649003
1240.000000	48.949200
1239.000000	49.240189
1238.000000	49.519742
1237.000000	49.787698
1236.000000	50.050917
1235.000000	50.316961
1234.000000	50.586574
1233.000000	50.857474
1232.000000	51.129585
1231.000000	51.401080
1230.000000	51.665326
1229.000000	51.917407
1228.000000	52.159906
1227.000000	52.398404
1226.000000	52.636398
1225.000000	52.878038
1224.000000	53.129270
1223.000000	53.391549
1222.000000	53.658916
1221.000000	53.924448
1220.000000	54.184936
1219.000000	54.436885
1218.000000	54.675003
1217.000000	54.898775
1216.000000	55.115499
1215.000000	55.334130
1214.000000	55.560269
1213.000000	55.798378
1212.000000	56.051776
1211.000000	56.316732
1210.000000	56.582082
1209.000000	56.837441
1208.000000	57.078001
1207.000000	57.301628
1206.000000	57.508419
1205.000000	57.705237
1204.000000	57.904462
1203.000000	58.115640
1202.000000	58.341781
1201.000000	58.582492
1200.000000	58.834557
1199.000000	59.088143
1198.000000	59.328780
1197.000000	59.545850
1196.000000	59.734522
1195.000000	59.891827
1194.000000	60.015579
1193.000000	60.106278
1192.000000	60.165093
1191.000000	60.187865
1190.000000	60.169060
1189.000000	60.111912
1188.000000	60.031380
1187.000000	59.949462
1186.000000	59.890411
1185.000000	59.877504
1184.000000	59.926735
1183.000000	60.041003
1182.000000	60.211483
1181.000000	60.426397
1180.000000	60.673533
1179.000000	60.937085
1178.000000	61.201323
1177.000000	61.456700
1176.000000	61.699421
1175.000000	61.926409
1174.000000	62.136555
1173.000000	62.335502
1172.000000	62.532837
1171.000000	62.734604
1170.000000	62.942151
1169.000000	63.155437
1168.000000	63.371136
1167.000000	63.580344
1166.000000	63.774113
1165.000000	63.950810
1164.000000	64.114777
1163.000000	64.271085
1162.000000	64.426949
1161.000000	64.593765
1160.000000	64.780500
1159.000000	64.986148
1158.000000	65.202233
1157.000000	65.419505
1156.000000	65.627455
1155.000000	65.812968
1154.000000	65.968242
1153.000000	66.098230
1152.000000	66.216027
1151.000000	66.334198
1150.000000	66.463988
1149.000000	66.616365
1148.000000	66.795308
1147.000000	66.992488
1146.000000	67.193468
1145.000000	67.385905
1144.000000	67.559028
1143.000000	67.702524
1142.000000	67.814444
1141.000000	67.906505
1140.000000	67.995439
1139.000000	68.092938
1138.000000	68.206465
1137.000000	68.342162
1136.000000	68.499371
1135.000000	68.666596
1134.000000	68.829757
1133.000000	68.980998
1132.000000	69.116075
1131.000000	69.230746
1130.000000	69.326681
1129.000000	69.415610
1128.000000	69.510729
1127.000000	69.617656
1126.000000	69.737184
1125.000000	69.869409
1124.000000	70.009743
1123.000000	70.147532
1122.000000	70.275449
1121.000000	70.395644
1120.000000	70.512453
1119.000000	70.626204
1118.000000	70.738893
1117.000000	70.857728
1116.000000	70.986283
1115.000000	71.118372
1114.000000	71.246405
1113.000000	71.369070
1112.000000	71.486003
1111.000000	71.594222
1110.000000	71.696449
1109.000000	71.805391
1108.000000	71.932706
1107.000000	72.079409
1106.000000	72.241153
1105.000000	72.413426
1104.000000	72.585952
1103.000000	72.741002
1102.000000	72.866467
1101.000000	72.964118
1100.000000	73.042694
1099.000000	73.111766
1098.000000	73.186455
1097.000000	73.287770
1096.000000	73.428354
1095.000000	73.604120
1094.000000	73.802611
1093.000000	74.010233
1092.000000	74.207270
1091.000000	74.369353
1090.000000	74.483765
1089.000000	74.557640
1088.000000	74.606236
1087.000000	74.642265
1086.000000	74.680579
1085.000000	74.738082
1084.000000	74.818677
1083.000000	74.906941
1082.000000	74.978984
1081.000000	75.013159
1080.000000	74.986515
1079.000000	74.874535
1078.000000	74.668023
1077.000000	74.376153
1076.000000	74.012098
1075.000000	73.582469
1074.000000	73.090008
1073.000000	72.540024
1072.000000	71.930001
1071.000000	71.247641
1070.000000	70.483691
1069.000000	69.638105
1068.000000	68.718751
1067.000000	67.739583
1066.000000	66.728051
1065.000000	65.727541
1064.000000	64.789337
1063.000000	63.961278
1062.000000	63.285451
1061.000000	62.795406
1060.000000	62.504958
1059.000000	62.408149
1058.000000	62.481891
1057.000000	62.699339
1056.000000	63.036023
1055.000000	63.463032
1054.000000	63.953765
1053.000000	64.486183
1052.000000	65.039647
1051.000000	65.591255
1050.000000	66.120378
1049.000000	66.618375
1048.000000	67.084939
1047.000000	67.522086
1046.000000	67.937348
1045.000000	68.345960
1044.000000	68.759740
1043.000000	69.177832
1042.000000	69.591728
1041.000000	69.991720
1040.000000	70.364626
1039.000000	70.692456
1038.000000	70.965032
1037.000000	71.189734
1036.000000	71.383324
1035.000000	71.562996
1034.000000	71.747974
1033.000000	71.959702
1032.000000	72.209989
1031.000000	72.492127
1030.000000	72.788936
1029.000000	73.082097
1028.000000	73.351088
1027.000000	73.575281
1026.000000	73.747560
1025.000000	73.881613
1024.000000	74.000324
1023.000000	74.123553
1022.000000	74.268894
1021.000000	74.450845
1020.000000	74.670211
1019.000000	74.910187
1018.000000	75.149144
1017.000000	75.371839
1016.000000	75.566022
1015.000000	75.721504
1014.000000	75.840658
1013.000000	75.941352
1012.000000	76.042877
1011.000000	76.155276
1010.000000	76.284342
1009.000000	76.434515
1008.000000	76.600490
1007.000000	76.766262
1006.000000	76.919246
1005.000000	77.058677
1004.000000	77.187374
1003.000000	77.305646
1002.000000	77.418199
1001.000000	77.535759
1000.000000	77.663077
999.000000	77.792905
998.000000	77.916357
997.000000	78.030684
996.000000	78.133277
995.000000	78.219672
994.000000	78.294110
993.000000	78.372840
992.000000	78.470971
991.000000	78.592844
990.000000	78.736730
989.000000	78.897471
988.000000	79.059249
987.000000	79.197280
986.000000	79.294581
985.000000	79.351901
984.000000	79.380033
983.000000	79.393557
982.000000	79.415393
981.000000	79.473273
980.000000	79.582103
979.000000	79.735032
978.000000	79.913438
977.000000	80.095490
976.000000	80.253656
975.000000	80.360034
974.000000	80.405297
973.000000	80.405427
972.000000	80.387124
971.000000	80.375486
970.000000	80.395641
969.000000	80.469361
968.000000	80.599284
967.000000	80.763576
966.000000	80.931412
965.000000	81.077436
964.000000	81.181497
963.000000	81.230916
962.000000	81.232853
961.000000	81.215202
960.000000	81.208124
959.000000	81.230918
958.000000	81.294729
957.000000	81.402094
956.000000	81.537274
955.000000	81.669100
954.000000	81.771807
953.000000	81.837198
952.000000	81.867254
951.000000	81.869293
950.000000	81.862912
949.000000	81.876807
948.000000	81.928912
947.000000	82.015756
946.000000	82.122688
945.000000	82.232232
944.000000	82.320922
943.000000	82.365109
942.000000	82.360650
941.000000	82.328591
940.000000	82.297267
939.000000	82.288382
938.000000	82.319155
937.000000	82.399860
936.000000	82.520065
935.000000	82.647550
934.000000	82.748067
933.000000	82.800224
932.000000	82.793293
931.000000	82.728954
930.000000	82.632145
929.000000	82.546294
928.000000	82.507678
927.000000	82.528933
926.000000	82.605384
925.000000	82.720144
924.000000	82.838771
923.000000	82.916224
922.000000	82.921699
921.000000	82.852423
920.000000	82.723931
919.000000	82.561838
918.000000	82.403978
917.000000	82.290419
916.000000	82.240229
915.000000	82.242665
914.000000	82.271459
913.000000	82.296664
912.000000	82.282547
911.000000	82.195846
910.000000	82.028357
909.000000	81.803306
908.000000	81.554878
907.000000	81.310020
906.000000	81.089646
905.000000	80.906168
904.000000	80.750088
903.000000	80.591104
902.000000	80.398253
901.000000	80.153892
900.000000	79.849787
899.000000	79.486107
898.000000	79.080846
897.000000	78.663881
896.000000	78.254796
895.000000	77.851724
894.000000	77.440924
893.000000	77.006360
892.000000	76.525400
891.000000	75.973887
890.000000	75.344631
889.000000	74.652675
888.000000	73.921798
887.000000	73.171422
886.000000	72.416601
885.000000	71.664944
884.000000	70.905148
883.000000	70.109374
882.000000	69.249107
881.000000	68.307219
880.000000	67.278345
879.000000	66.169154
878.000000	65.004789
877.000000	63.823571
876.000000	62.660062
875.000000	61.533998
874.000000	60.451405
873.000000	59.407414
872.000000	58.385935
871.000000	57.365568
870.000000	56.332383
869.000000	55.288909
868.000000	54.250332
867.000000	53.237727
866.000000	52.274746
865.000000	51.382578
864.000000	50.574562
863.000000	49.850101
862.000000	49.195959
861.000000	48.594121
860.000000	48.026332
859.000000	47.478482
858.000000	46.943095
857.000000	46.421720
856.000000	45.924284
855.000000	45.462243
854.000000	45.046035
853.000000	44.684100
852.000000	44.381121
851.000000	44.136920
850.000000	43.945767
849.000000	43.801706
848.000000	43.701255
847.000000	43.642602
846.000000	43.627725
845.000000	43.662002
844.000000	43.753390
843.000000	43.908640
842.000000	44.130728
841.000000	44.421976
840.000000	44.782691
839.000000	45.212006
838.000000	45.708907
837.000000	46.273006
836.000000	46.904826
835.000000	47.604728
834.000000	48.370093
833.000000	49.185474
832.000000	50.002631
831.000000	50.690554
830.000000	50.976960
829.000000	50.446927
828.000000	48.727613
827.000000	45.845463
826.000000	42.440445
825.000000	39.534854
824.000000	37.950173
823.000000	37.861028
822.000000	38.859876
821.000000	40.380184
820.000000	42.015243
819.000000	43.562190
818.000000	44.946780
817.000000	46.162386
816.000000	47.240922
815.000000	48.215068
814.000000	49.106952
813.000000	49.944539
812.000000	50.760208
811.000000	51.567270
810.000000	52.355449
809.000000	53.111552
808.000000	53.823905
807.000000	54.474695
806.000000	55.048304
805.000000	55.551877
804.000000	56.010518
803.000000	56.443598
802.000000	56.863790
801.000000	57.290857
800.000000	57.745825
799.000000	58.231976
798.000000	58.736573
797.000000	59.247585
796.000000	59.752810
795.000000	60.231284
794.000000	60.666060
793.000000	61.062417
792.000000	61.439149
791.000000	61.807772
790.000000	62.173663
789.000000	62.547641
788.000000	62.938089
787.000000	63.337818
786.000000	63.733519
785.000000	64.122076
784.000000	64.505184
783.000000	64.877454
782.000000	65.234929
781.000000	65.586533
780.000000	65.941609
779.000000	66.293666
778.000000	66.629417
777.000000	66.945189
776.000000	67.241552
775.000000	67.513156
774.000000	67.760067
773.000000	68.000297
772.000000	68.256677
771.000000	68.537982
770.000000	68.842854
769.000000	69.169800
768.000000	69.507706
767.000000	69.827157
766.000000	70.098185
765.000000	70.310967
764.000000	70.470725
763.000000	70.586123
762.000000	70.677453
761.000000	70.783121
760.000000	70.939360
759.000000	71.157459
758.000000	71.428229
757.000000	71.735115
756.000000	72.049862
755.000000	72.329999
754.000000	72.541241
753.000000	72.678934
752.000000	72.760231
751.000000	72.808845
750.000000	72.857779
749.000000	72.949473
748.000000	73.112744
747.000000	73.344476
746.000000	73.622019
745.000000	73.920376
744.000000	74.207726
743.000000	74.444043
742.000000	74.604983
741.000000	74.699747
740.000000	74.754734
739.000000	74.792455
738.000000	74.835629
737.000000	74.911599
736.000000	75.033016
735.000000	75.183910
734.000000	75.338353
733.000000	75.481218
732.000000	75.601434
731.000000	75.684043
730.000000	75.725506
729.000000	75.742671
728.000000	75.752873
727.000000	75.757832
726.000000	75.758091
725.000000	75.766505
724.000000	75.792063
723.000000	75.826354
722.000000	75.862995
721.000000	75.917403
720.000000	76.011704
719.000000	76.152665
718.000000	76.337438
717.000000	76.564090
716.000000	76.818802
715.000000	77.067678
714.000000	77.278901
713.000000	77.442506
712.000000	77.560020
711.000000	77.635504
710.000000	77.692178
709.000000	77.777100
708.000000	77.929963
707.000000	78.157496
706.000000	78.445211
705.000000	78.772485
704.000000	79.100878
703.000000	79.371568
702.000000	79.541158
701.000000	79.609396
700.000000	79.602601
699.000000	79.554411
698.000000	79.513680
697.000000	79.542902
696.000000	79.680139
695.000000	79.912757
694.000000	80.202885
693.000000	80.514125
692.000000	80.799426
691.000000	80.999606
690.000000	81.083763
689.000000	81.076973
688.000000	81.029404
687.000000	80.978534
686.000000	80.961006
685.000000	81.024038
684.000000	81.188840
683.000000	81.424722
682.000000	81.684419
681.000000	81.938854
680.000000	82.159148
679.000000	82.305265
678.000000	82.367244
677.000000	82.381476
676.000000	82.388291
675.000000	82.408488
674.000000	82.461115
673.000000	82.574461
672.000000	82.758199
671.000000	82.986115
670.000000	83.220525
669.000000	83.416871
668.000000	83.520584
667.000000	83.555617
666.000000	83.600197
665.000000	83.674170
664.000000	83.774794
663.000000	83.889732
662.000000	83.997946
661.000000	84.084705
660.000000	84.143942
659.000000	84.176646
658.000000	84.200422
657.000000	84.245141
656.000000	84.335732
655.000000	84.488519
654.000000	84.701252
653.000000	84.946847
652.000000	85.183142
651.000000	85.365801
650.000000	85.462237
649.000000	85.464149
648.000000	85.391625
647.000000	85.288486
646.000000	85.212450
645.000000	85.218593
644.000000	85.336380
643.000000	85.557265
642.000000	85.843716
641.000000	86.144321
640.000000	86.399975
639.000000	86.553735
638.000000	86.577342
637.000000	86.492026
636.000000	86.356546
635.000000	86.238576
634.000000	86.197453
633.000000	86.271844
632.000000	86.464592
631.000000	86.739984
630.000000	87.041335
629.000000	87.310967
628.000000	87.498672
627.000000	87.573116
626.000000	87.543962
625.000000	87.463346
624.000000	87.390262
623.000000	87.362604
622.000000	87.403475
621.000000	87.526253
620.000000	87.716527
619.000000	87.927707
618.000000	88.113725
617.000000	88.258128
616.000000	88.362000
615.000000	88.425299
614.000000	88.457186
613.000000	88.484418
612.000000	88.526925
611.000000	88.576405
610.000000	88.608739
609.000000	88.599746
608.000000	88.521067
607.000000	88.335221
606.000000	88.012876
605.000000	87.526575
604.000000	86.803003
603.000000	85.693040
602.000000	83.979600
601.000000	81.441953
600.000000	77.982456
599.000000	73.803146
598.000000	69.483099
597.000000	65.803534
596.000000	63.423667
595.000000	62.629429
594.000000	63.274078
593.000000	64.923436
592.000000	67.105271
591.000000	69.440729
590.000000	71.668973
589.000000	73.662341
588.000000	75.387303
587.000000	76.842849
586.000000	78.037717
585.000000	79.006325
584.000000	79.805219
583.000000	80.498582
582.000000	81.156212
581.000000	81.842991
580.000000	82.577772
579.000000	83.308538
578.000000	83.965526
577.000000	84.516721
576.000000	84.952764
575.000000	85.255835
574.000000	85.422291
573.000000	85.498254
572.000000	85.555065
571.000000	85.648204
570.000000	85.814877
569.000000	86.077797
568.000000	86.421561
567.000000	86.781616
566.000000	87.087697
565.000000	87.311589
564.000000	87.454636
563.000000	87.521186
562.000000	87.533719
561.000000	87.543520
560.000000	87.593427
559.000000	87.686100
558.000000	87.807391
557.000000	87.953061
556.000000	88.112056
555.000000	88.252358
554.000000	88.353773
553.000000	88.433318
552.000000	88.516263
551.000000	88.606695
550.000000	88.705356
549.000000	88.823546
548.000000	88.954210
547.000000	89.059371
546.000000	89.112377
545.000000	89.127973
544.000000	89.131088
543.000000	89.133020
542.000000	89.158165
541.000000	89.253870
540.000000	89.441385
539.000000	89.684255
538.000000	89.926086
537.000000	90.129215
536.000000	90.256691
535.000000	90.262754
534.000000	90.143205
533.000000	89.966558
532.000000	89.823384
531.000000	89.768503
530.000000	89.823743
529.000000	89.994693
528.000000	90.255324
527.000000	90.539723
526.000000	90.774938
525.000000	90.906227
524.000000	90.884130
523.000000	90.671757
522.000000	90.293478
521.000000	89.840228
520.000000	89.402195
519.000000	89.019965
518.000000	88.712531
517.000000	88.507227
516.000000	88.405108
515.000000	88.359540
514.000000	88.323338
513.000000	88.285562
512.000000	88.238339
511.000000	88.149916
510.000000	87.999089
509.000000	87.798562
508.000000	87.546126
507.000000	87.186388
506.000000	86.645863
505.000000	85.878717
504.000000	84.873772
503.000000	83.691957
502.000000	82.534810
501.000000	81.680386
500.000000	81.294677
499.000000	81.360254
498.000000	81.773407
497.000000	82.411450
496.000000	83.122410
495.000000	83.743177
494.000000	84.177038
493.000000	84.446155
492.000000	84.642515
491.000000	84.854911
490.000000	85.149232
489.000000	85.563266
488.000000	86.073943
487.000000	86.600481
486.000000	87.072868
485.000000	87.477932
484.000000	87.821392
483.000000	88.089888
482.000000	88.291594
481.000000	88.483351
480.000000	88.713943
479.000000	88.982763
478.000000	89.277755
477.000000	89.598093
476.000000	89.901054
475.000000	90.082363
474.000000	90.071988
473.000000	89.916510
472.000000	89.717242
471.000000	89.525219
470.000000	89.370224
469.000000	89.326592
468.000000	89.466470
467.000000	89.776866
466.000000	90.164650
465.000000	90.535840
464.000000	90.811860
463.000000	90.913169
462.000000	90.812014
461.000000	90.568377
460.000000	90.258166
459.000000	89.937799
458.000000	89.724766
457.000000	89.767236
456.000000	90.049649
455.000000	90.395457
454.000000	90.670293
453.000000	90.855915
452.000000	90.947271
451.000000	90.877258
450.000000	90.605271
449.000000	90.195091
448.000000	89.738094
447.000000	89.257188
446.000000	88.732846
445.000000	88.152272
444.000000	87.464965
443.000000	86.554438
442.000000	85.327593
441.000000	83.801868
440.000000	82.048997
439.000000	80.140183
438.000000	78.207225
437.000000	76.511902
436.000000	75.355765
435.000000	74.895774
434.000000	75.084880
433.000000	75.794048
432.000000	76.911015
431.000000	78.283566
430.000000	79.732397
429.000000	81.160385
428.000000	82.530761
427.000000	83.769657
426.000000	84.815732
425.000000	85.717443
424.000000	86.525255
423.000000	87.156143
422.000000	87.513993
421.000000	87.664474
420.000000	87.781969
419.000000	88.054844
418.000000	88.563323
417.000000	89.209372
416.000000	89.860597
415.000000	90.387613
414.000000	90.715216
413.000000	90.902217
412.000000	90.999248
411.000000	90.926629
410.000000	90.670404
409.000000	90.447099
408.000000	90.450043
407.000000	90.617299
406.000000	90.866419
405.000000	91.256701
404.000000	91.792221
403.000000	92.198124
402.000000	92.212225
401.000000	91.890397
400.000000	91.425318
