PE IR       SUBTECH     SPECTRUM    ASCII       PEDS        4.00        
   -1
23ms076_nitro.asc
24/09/12
16:15:21.00
24/09/12
16:15:21.00
Administrator
Sample 1176 By Administrator Date Thursday, September 12 2024
400.000000
#HDR
-1
-1
#GR
cm-1
%T
1.0
0.0
4000.000000
-1.000000
3601
8
84.431311
5.302609
#DATA
4000.000000	48.467838
3999.000000	48.504919
3998.000000	48.541508
3997.000000	48.577866
3996.000000	48.614301
3995.000000	48.651098
3994.000000	48.688461
3993.000000	48.726474
3992.000000	48.765043
3991.000000	48.803714
3990.000000	48.841714
3989.000000	48.878581
3988.000000	48.914701
3987.000000	48.950856
3986.000000	48.987305
3985.000000	49.023547
3984.000000	49.059051
3983.000000	49.093860
3982.000000	49.128443
3981.000000	49.163247
3980.000000	49.198437
3979.000000	49.234116
3978.000000	49.270400
3977.000000	49.306951
3976.000000	49.342778
3975.000000	49.376692
3974.000000	49.408223
3973.000000	49.438054
3972.000000	49.467528
3971.000000	49.497988
3970.000000	49.530040
3969.000000	49.563374
3968.000000	49.597321
3967.000000	49.631363
3966.000000	49.665305
3965.000000	49.699258
3964.000000	49.733408
3963.000000	49.767444
3962.000000	49.800538
3961.000000	49.831675
3960.000000	49.860665
3959.000000	49.889090
3958.000000	49.919109
3957.000000	49.951720
3956.000000	49.986385
3955.000000	50.021839
3954.000000	50.057076
3953.000000	50.091388
3952.000000	50.124357
3951.000000	50.156011
3950.000000	50.186467
3949.000000	50.215642
3948.000000	50.243507
3947.000000	50.270700
3946.000000	50.299113
3945.000000	50.331706
3944.000000	50.370266
3943.000000	50.412109
3942.000000	50.451844
3941.000000	50.486763
3940.000000	50.519053
3939.000000	50.553317
3938.000000	50.591002
3937.000000	50.628750
3936.000000	50.662922
3935.000000	50.693829
3934.000000	50.725564
3933.000000	50.760418
3932.000000	50.796249
3931.000000	50.829356
3930.000000	50.858228
3929.000000	50.885782
3928.000000	50.916375
3927.000000	50.952948
3926.000000	50.995149
3925.000000	51.037624
3924.000000	51.073355
3923.000000	51.099824
3922.000000	51.120743
3921.000000	51.142601
3920.000000	51.169724
3919.000000	51.202726
3918.000000	51.240142
3917.000000	51.279727
3916.000000	51.319060
3915.000000	51.356231
3914.000000	51.392503
3913.000000	51.431195
3912.000000	51.473331
3911.000000	51.516849
3910.000000	51.558079
3909.000000	51.595017
3908.000000	51.628663
3907.000000	51.659484
3906.000000	51.686005
3905.000000	51.704752
3904.000000	51.713611
3903.000000	51.716490
3902.000000	51.721750
3901.000000	51.737901
3900.000000	51.768668
3899.000000	51.809475
3898.000000	51.852723
3897.000000	51.894888
3896.000000	51.937030
3895.000000	51.982423
3894.000000	52.032248
3893.000000	52.084095
3892.000000	52.132061
3891.000000	52.169920
3890.000000	52.194450
3889.000000	52.207405
3888.000000	52.219267
3887.000000	52.245008
3886.000000	52.287624
3885.000000	52.331776
3884.000000	52.361059
3883.000000	52.376825
3882.000000	52.394643
3881.000000	52.426210
3880.000000	52.467959
3879.000000	52.508110
3878.000000	52.540594
3877.000000	52.569957
3876.000000	52.606125
3875.000000	52.652651
3874.000000	52.699080
3873.000000	52.730724
3872.000000	52.746565
3871.000000	52.760555
3870.000000	52.783744
3869.000000	52.811853
3868.000000	52.834259
3867.000000	52.851807
3866.000000	52.878681
3865.000000	52.922507
3864.000000	52.974123
3863.000000	53.021110
3862.000000	53.060616
3861.000000	53.098130
3860.000000	53.139701
3859.000000	53.188783
3858.000000	53.246232
3857.000000	53.307580
3856.000000	53.362444
3855.000000	53.396916
3854.000000	53.403381
3853.000000	53.394235
3852.000000	53.390694
3851.000000	53.400415
3850.000000	53.423178
3849.000000	53.461375
3848.000000	53.513821
3847.000000	53.575550
3846.000000	53.639922
3845.000000	53.699504
3844.000000	53.748646
3843.000000	53.785000
3842.000000	53.809682
3841.000000	53.829057
3840.000000	53.849383
3839.000000	53.872775
3838.000000	53.899978
3837.000000	53.930420
3836.000000	53.961780
3835.000000	53.991677
3834.000000	54.021967
3833.000000	54.058820
3832.000000	54.105050
3831.000000	54.156339
3830.000000	54.206596
3829.000000	54.253371
3828.000000	54.299309
3827.000000	54.348125
3826.000000	54.396170
3825.000000	54.434727
3824.000000	54.460510
3823.000000	54.482453
3822.000000	54.512856
3821.000000	54.549322
3820.000000	54.577578
3819.000000	54.591158
3818.000000	54.600525
3817.000000	54.625225
3816.000000	54.674139
3815.000000	54.736179
3814.000000	54.796166
3813.000000	54.849045
3812.000000	54.897741
3811.000000	54.945843
3810.000000	54.993019
3809.000000	55.036643
3808.000000	55.076399
3807.000000	55.112231
3806.000000	55.140054
3805.000000	55.156261
3804.000000	55.164497
3803.000000	55.180504
3802.000000	55.215001
3801.000000	55.258794
3800.000000	55.296558
3799.000000	55.324789
3798.000000	55.353336
3797.000000	55.393481
3796.000000	55.446122
3795.000000	55.503117
3794.000000	55.558220
3793.000000	55.611059
3792.000000	55.663187
3791.000000	55.715002
3790.000000	55.764896
3789.000000	55.810849
3788.000000	55.852994
3787.000000	55.893418
3786.000000	55.934030
3785.000000	55.974060
3784.000000	56.010017
3783.000000	56.039733
3782.000000	56.066136
3781.000000	56.095634
3780.000000	56.131846
3779.000000	56.172321
3778.000000	56.212292
3777.000000	56.250480
3776.000000	56.289858
3775.000000	56.333701
3774.000000	56.380651
3773.000000	56.425179
3772.000000	56.464626
3771.000000	56.501678
3770.000000	56.537129
3769.000000	56.567046
3768.000000	56.589978
3767.000000	56.612698
3766.000000	56.645751
3765.000000	56.690545
3764.000000	56.737823
3763.000000	56.779811
3762.000000	56.818711
3761.000000	56.861813
3760.000000	56.908933
3759.000000	56.953558
3758.000000	56.992234
3757.000000	57.025374
3756.000000	57.053564
3755.000000	57.076996
3754.000000	57.098928
3753.000000	57.123446
3752.000000	57.148524
3751.000000	57.170429
3750.000000	57.193634
3749.000000	57.223550
3748.000000	57.254839
3747.000000	57.282376
3746.000000	57.314287
3745.000000	57.362267
3744.000000	57.424315
3743.000000	57.487270
3742.000000	57.540427
3741.000000	57.584449
3740.000000	57.626359
3739.000000	57.670964
3738.000000	57.721397
3737.000000	57.779674
3736.000000	57.843119
3735.000000	57.899511
3734.000000	57.942064
3733.000000	57.981307
3732.000000	58.030294
3731.000000	58.089454
3730.000000	58.148527
3729.000000	58.200977
3728.000000	58.251997
3727.000000	58.308663
3726.000000	58.368906
3725.000000	58.424707
3724.000000	58.474219
3723.000000	58.522061
3722.000000	58.571658
3721.000000	58.624022
3720.000000	58.677396
3719.000000	58.730726
3718.000000	58.784021
3717.000000	58.834779
3716.000000	58.879217
3715.000000	58.915428
3714.000000	58.946455
3713.000000	58.977488
3712.000000	59.010873
3711.000000	59.047835
3710.000000	59.092130
3709.000000	59.147055
3708.000000	59.211081
3707.000000	59.278696
3706.000000	59.344341
3705.000000	59.405309
3704.000000	59.462670
3703.000000	59.519469
3702.000000	59.576846
3701.000000	59.633329
3700.000000	59.686052
3699.000000	59.734560
3698.000000	59.783545
3697.000000	59.837089
3696.000000	59.891773
3695.000000	59.939959
3694.000000	59.978699
3693.000000	60.012722
3692.000000	60.047614
3691.000000	60.083364
3690.000000	60.116727
3689.000000	60.150173
3688.000000	60.191688
3687.000000	60.242291
3686.000000	60.296591
3685.000000	60.352353
3684.000000	60.409659
3683.000000	60.467610
3682.000000	60.524811
3681.000000	60.579705
3680.000000	60.629243
3679.000000	60.664807
3678.000000	60.680991
3677.000000	60.688804
3676.000000	60.708023
3675.000000	60.746689
3674.000000	60.791515
3673.000000	60.825500
3672.000000	60.851538
3671.000000	60.892650
3670.000000	60.961818
3669.000000	61.048166
3668.000000	61.136358
3667.000000	61.218550
3666.000000	61.293824
3665.000000	61.366808
3664.000000	61.441346
3663.000000	61.518521
3662.000000	61.595989
3661.000000	61.667059
3660.000000	61.724717
3659.000000	61.765116
3658.000000	61.791926
3657.000000	61.815348
3656.000000	61.843839
3655.000000	61.876830
3654.000000	61.904881
3653.000000	61.922004
3652.000000	61.934037
3651.000000	61.949395
3650.000000	61.966702
3649.000000	61.984817
3648.000000	62.018697
3647.000000	62.080390
3646.000000	62.161036
3645.000000	62.245110
3644.000000	62.326450
3643.000000	62.407384
3642.000000	62.487930
3641.000000	62.562710
3640.000000	62.628319
3639.000000	62.686882
3638.000000	62.740947
3637.000000	62.789138
3636.000000	62.831094
3635.000000	62.871546
3634.000000	62.913299
3633.000000	62.949649
3632.000000	62.968844
3631.000000	62.968753
3630.000000	62.964306
3629.000000	62.976090
3628.000000	63.014205
3627.000000	63.075052
3626.000000	63.145676
3625.000000	63.216352
3624.000000	63.284908
3623.000000	63.350029
3622.000000	63.407644
3621.000000	63.453018
3620.000000	63.483288
3619.000000	63.501221
3618.000000	63.515676
3617.000000	63.533176
3616.000000	63.554965
3615.000000	63.582760
3614.000000	63.618373
3613.000000	63.658898
3612.000000	63.698305
3611.000000	63.733861
3610.000000	63.770858
3609.000000	63.819423
3608.000000	63.882868
3607.000000	63.955162
3606.000000	64.027696
3605.000000	64.094355
3604.000000	64.153740
3603.000000	64.207572
3602.000000	64.258490
3601.000000	64.308386
3600.000000	64.355782
3599.000000	64.396899
3598.000000	64.430571
3597.000000	64.459261
3596.000000	64.488463
3595.000000	64.523017
3594.000000	64.563234
3593.000000	64.605187
3592.000000	64.642440
3591.000000	64.670438
3590.000000	64.692442
3589.000000	64.719731
3588.000000	64.761613
3587.000000	64.817576
3586.000000	64.880744
3585.000000	64.944494
3584.000000	65.005215
3583.000000	65.062586
3582.000000	65.117320
3581.000000	65.168868
3580.000000	65.216312
3579.000000	65.260275
3578.000000	65.303001
3577.000000	65.346453
3576.000000	65.391117
3575.000000	65.437292
3574.000000	65.484927
3573.000000	65.532199
3572.000000	65.574571
3571.000000	65.605450
3570.000000	65.620621
3569.000000	65.624617
3568.000000	65.630108
3567.000000	65.649654
3566.000000	65.688494
3565.000000	65.744133
3564.000000	65.810392
3563.000000	65.882387
3562.000000	65.956102
3561.000000	66.026603
3560.000000	66.089922
3559.000000	66.145729
3558.000000	66.196264
3557.000000	66.242992
3556.000000	66.285942
3555.000000	66.325847
3554.000000	66.364956
3553.000000	66.404803
3552.000000	66.444874
3551.000000	66.483576
3550.000000	66.520080
3549.000000	66.556806
3548.000000	66.598787
3547.000000	66.649305
3546.000000	66.705429
3545.000000	66.760260
3544.000000	66.809320
3543.000000	66.853136
3542.000000	66.894054
3541.000000	66.933957
3540.000000	66.975173
3539.000000	67.020412
3538.000000	67.070213
3537.000000	67.120755
3536.000000	67.167011
3535.000000	67.207126
3534.000000	67.242882
3533.000000	67.276808
3532.000000	67.309775
3531.000000	67.341051
3530.000000	67.368883
3529.000000	67.392909
3528.000000	67.416567
3527.000000	67.445872
3526.000000	67.484465
3525.000000	67.530274
3524.000000	67.577113
3523.000000	67.619360
3522.000000	67.655387
3521.000000	67.687658
3520.000000	67.720217
3519.000000	67.755036
3518.000000	67.790629
3517.000000	67.824189
3516.000000	67.854850
3515.000000	67.883346
3514.000000	67.908590
3513.000000	67.927564
3512.000000	67.939731
3511.000000	67.949487
3510.000000	67.962484
3509.000000	67.980862
3508.000000	68.002658
3507.000000	68.024967
3506.000000	68.046098
3505.000000	68.065342
3504.000000	68.081661
3503.000000	68.093397
3502.000000	68.099666
3501.000000	68.102235
3500.000000	68.105439
3499.000000	68.112696
3498.000000	68.123187
3497.000000	68.132789
3496.000000	68.138407
3495.000000	68.139865
3494.000000	68.137466
3493.000000	68.130142
3492.000000	68.117343
3491.000000	68.100739
3490.000000	68.082679
3489.000000	68.064409
3488.000000	68.045984
3487.000000	68.026407
3486.000000	68.003761
3485.000000	67.976930
3484.000000	67.948391
3483.000000	67.923251
3482.000000	67.903659
3481.000000	67.885421
3480.000000	67.860934
3479.000000	67.825044
3478.000000	67.777628
3477.000000	67.722531
3476.000000	67.665084
3475.000000	67.609436
3474.000000	67.557582
3473.000000	67.510522
3472.000000	67.469440
3471.000000	67.433884
3470.000000	67.398730
3469.000000	67.355512
3468.000000	67.297651
3467.000000	67.223674
3466.000000	67.136219
3465.000000	67.040221
3464.000000	66.942391
3463.000000	66.849095
3462.000000	66.762358
3461.000000	66.678822
3460.000000	66.593293
3459.000000	66.502833
3458.000000	66.407366
3457.000000	66.308097
3456.000000	66.206712
3455.000000	66.104104
3454.000000	65.999475
3453.000000	65.891396
3452.000000	65.779632
3451.000000	65.664842
3450.000000	65.546129
3449.000000	65.421292
3448.000000	65.290205
3447.000000	65.155967
3446.000000	65.021784
3445.000000	64.888102
3444.000000	64.753483
3443.000000	64.616800
3442.000000	64.477660
3441.000000	64.336444
3440.000000	64.194694
3439.000000	64.053623
3438.000000	63.911118
3437.000000	63.761360
3436.000000	63.599017
3435.000000	63.422792
3434.000000	63.235458
3433.000000	63.042207
3432.000000	62.848098
3431.000000	62.654992
3430.000000	62.459508
3429.000000	62.255935
3428.000000	62.042109
3427.000000	61.820721
3426.000000	61.595411
3425.000000	61.367656
3424.000000	61.137411
3423.000000	60.904138
3422.000000	60.665995
3421.000000	60.420540
3420.000000	60.167462
3419.000000	59.908957
3418.000000	59.647198
3417.000000	59.382963
3416.000000	59.116595
3415.000000	58.847697
3414.000000	58.573272
3413.000000	58.289150
3412.000000	57.993897
3411.000000	57.689548
3410.000000	57.377866
3409.000000	57.057889
3408.000000	56.728392
3407.000000	56.390578
3406.000000	56.047721
3405.000000	55.703563
3404.000000	55.360910
3403.000000	55.019411
3402.000000	54.673384
3401.000000	54.313820
3400.000000	53.934450
3399.000000	53.535892
3398.000000	53.124440
3397.000000	52.707692
3396.000000	52.290580
3395.000000	51.873617
3394.000000	51.453176
3393.000000	51.024091
3392.000000	50.582555
3391.000000	50.127181
3390.000000	49.659492
3389.000000	49.183649
3388.000000	48.704476
3387.000000	48.223975
3386.000000	47.740153
3385.000000	47.250506
3384.000000	46.754950
3383.000000	46.254644
3382.000000	45.749471
3381.000000	45.238273
3380.000000	44.720706
3379.000000	44.197207
3378.000000	43.668124
3377.000000	43.134260
3376.000000	42.597160
3375.000000	42.058146
3374.000000	41.517837
3373.000000	40.977108
3372.000000	40.436887
3371.000000	39.895691
3370.000000	39.349353
3369.000000	38.794274
3368.000000	38.230128
3367.000000	37.659144
3366.000000	37.084503
3365.000000	36.510223
3364.000000	35.940195
3363.000000	35.375768
3362.000000	34.815410
3361.000000	34.257222
3360.000000	33.700394
3359.000000	33.144141
3358.000000	32.587503
3357.000000	32.031006
3356.000000	31.476727
3355.000000	30.926183
3354.000000	30.379990
3353.000000	29.839476
3352.000000	29.306050
3351.000000	28.778886
3350.000000	28.255621
3349.000000	27.735899
3348.000000	27.222048
3347.000000	26.715676
3346.000000	26.216454
3345.000000	25.724053
3344.000000	25.238630
3343.000000	24.759444
3342.000000	24.285530
3341.000000	23.818416
3340.000000	23.361178
3339.000000	22.914438
3338.000000	22.476246
3337.000000	22.045664
3336.000000	21.623997
3335.000000	21.212071
3334.000000	20.809115
3333.000000	20.415053
3332.000000	20.030517
3331.000000	19.654757
3330.000000	19.286166
3329.000000	18.924942
3328.000000	18.573228
3327.000000	18.231909
3326.000000	17.900314
3325.000000	17.578741
3324.000000	17.268164
3323.000000	16.967980
3322.000000	16.676283
3321.000000	16.392483
3320.000000	16.117361
3319.000000	15.850364
3318.000000	15.590455
3317.000000	15.338524
3316.000000	15.096428
3315.000000	14.864067
3314.000000	14.639713
3313.000000	14.423215
3312.000000	14.215769
3311.000000	14.017113
3310.000000	13.826229
3309.000000	13.643723
3308.000000	13.471268
3307.000000	13.308921
3306.000000	13.155576
3305.000000	13.011653
3304.000000	12.877737
3303.000000	12.752165
3302.000000	12.632529
3301.000000	12.518765
3300.000000	12.412307
3299.000000	12.312856
3298.000000	12.219321
3297.000000	12.132709
3296.000000	12.054550
3295.000000	11.983839
3294.000000	11.918267
3293.000000	11.857876
3292.000000	11.804342
3291.000000	11.757087
3290.000000	11.713960
3289.000000	11.674472
3288.000000	11.639619
3287.000000	11.609224
3286.000000	11.582155
3285.000000	11.558778
3284.000000	11.539863
3283.000000	11.524146
3282.000000	11.509697
3281.000000	11.496660
3280.000000	11.486127
3279.000000	11.477253
3278.000000	11.468560
3277.000000	11.460932
3276.000000	11.456171
3275.000000	11.453731
3274.000000	11.451900
3273.000000	11.451287
3272.000000	11.453972
3271.000000	11.459876
3270.000000	11.466990
3269.000000	11.474386
3268.000000	11.482203
3267.000000	11.489591
3266.000000	11.495520
3265.000000	11.500936
3264.000000	11.507537
3263.000000	11.515186
3262.000000	11.522993
3261.000000	11.531642
3260.000000	11.542073
3259.000000	11.553108
3258.000000	11.563134
3257.000000	11.573029
3256.000000	11.584549
3255.000000	11.597074
3254.000000	11.608695
3253.000000	11.619427
3252.000000	11.630478
3251.000000	11.641532
3250.000000	11.651617
3249.000000	11.661713
3248.000000	11.673653
3247.000000	11.687214
3246.000000	11.700827
3245.000000	11.714153
3244.000000	11.727578
3243.000000	11.740238
3242.000000	11.751176
3241.000000	11.761337
3240.000000	11.772039
3239.000000	11.782520
3238.000000	11.791473
3237.000000	11.799751
3236.000000	11.809192
3235.000000	11.819861
3234.000000	11.830760
3233.000000	11.841941
3232.000000	11.853557
3231.000000	11.864215
3230.000000	11.872663
3229.000000	11.879810
3228.000000	11.886891
3227.000000	11.893120
3226.000000	11.897453
3225.000000	11.901030
3224.000000	11.905336
3223.000000	11.909610
3222.000000	11.912510
3221.000000	11.914735
3220.000000	11.917425
3219.000000	11.919469
3218.000000	11.919126
3217.000000	11.916858
3216.000000	11.914061
3215.000000	11.910478
3214.000000	11.905295
3213.000000	11.899370
3212.000000	11.893761
3211.000000	11.887501
3210.000000	11.879291
3209.000000	11.869869
3208.000000	11.860408
3207.000000	11.850131
3206.000000	11.837837
3205.000000	11.824266
3204.000000	11.810430
3203.000000	11.795330
3202.000000	11.777762
3201.000000	11.758746
3200.000000	11.739769
3199.000000	11.720168
3198.000000	11.698771
3197.000000	11.676468
3196.000000	11.654615
3195.000000	11.632523
3194.000000	11.608946
3193.000000	11.584456
3192.000000	11.559995
3191.000000	11.534638
3190.000000	11.507304
3189.000000	11.478988
3188.000000	11.450998
3187.000000	11.422655
3186.000000	11.392980
3185.000000	11.362942
3184.000000	11.333654
3183.000000	11.304220
3182.000000	11.273725
3181.000000	11.243439
3180.000000	11.214590
3179.000000	11.185829
3178.000000	11.155435
3177.000000	11.124275
3176.000000	11.094065
3175.000000	11.064509
3174.000000	11.034661
3173.000000	11.005310
3172.000000	10.977501
3171.000000	10.950398
3170.000000	10.922999
3169.000000	10.896286
3168.000000	10.871366
3167.000000	10.847236
3166.000000	10.822671
3165.000000	10.798492
3164.000000	10.775718
3163.000000	10.753428
3162.000000	10.730718
3161.000000	10.708864
3160.000000	10.689179
3159.000000	10.670627
3158.000000	10.651828
3157.000000	10.633491
3156.000000	10.616781
3155.000000	10.601272
3154.000000	10.586700
3153.000000	10.574561
3152.000000	10.565590
3151.000000	10.557796
3150.000000	10.549262
3149.000000	10.540829
3148.000000	10.533879
3147.000000	10.527715
3146.000000	10.521547
3145.000000	10.516751
3144.000000	10.514605
3143.000000	10.513978
3142.000000	10.513635
3141.000000	10.514813
3140.000000	10.519004
3139.000000	10.525156
3138.000000	10.531529
3137.000000	10.538280
3136.000000	10.545977
3135.000000	10.553711
3134.000000	10.561014
3133.000000	10.569718
3132.000000	10.581509
3131.000000	10.595594
3130.000000	10.610849
3129.000000	10.627982
3128.000000	10.647476
3127.000000	10.667588
3126.000000	10.686728
3125.000000	10.705760
3124.000000	10.725839
3123.000000	10.746312
3122.000000	10.766863
3121.000000	10.789322
3120.000000	10.815105
3119.000000	10.843040
3118.000000	10.872041
3117.000000	10.903471
3116.000000	10.938494
3115.000000	10.975441
3114.000000	11.012135
3113.000000	11.048730
3112.000000	11.086058
3111.000000	11.123529
3110.000000	11.160968
3109.000000	11.200161
3108.000000	11.242264
3107.000000	11.285787
3106.000000	11.329261
3105.000000	11.373754
3104.000000	11.420594
3103.000000	11.468997
3102.000000	11.518091
3101.000000	11.568869
3100.000000	11.621987
3099.000000	11.675800
3098.000000	11.728956
3097.000000	11.782697
3096.000000	11.838354
3095.000000	11.894931
3094.000000	11.951391
3093.000000	12.009135
3092.000000	12.069879
3091.000000	12.132997
3090.000000	12.197110
3089.000000	12.262233
3088.000000	12.328365
3087.000000	12.394130
3086.000000	12.458823
3085.000000	12.523878
3084.000000	12.590423
3083.000000	12.657552
3082.000000	12.724893
3081.000000	12.794401
3080.000000	12.867628
3079.000000	12.943382
3078.000000	13.020020
3077.000000	13.097773
3076.000000	13.176788
3075.000000	13.255371
3074.000000	13.332302
3073.000000	13.408711
3072.000000	13.485703
3071.000000	13.562359
3070.000000	13.638194
3069.000000	13.715279
3068.000000	13.795635
3067.000000	13.878509
3066.000000	13.962188
3065.000000	14.046511
3064.000000	14.131629
3063.000000	14.216401
3062.000000	14.300071
3061.000000	14.383606
3060.000000	14.467623
3059.000000	14.551041
3058.000000	14.633455
3057.000000	14.716632
3056.000000	14.801790
3055.000000	14.887626
3054.000000	14.972986
3053.000000	15.059243
3052.000000	15.147949
3051.000000	15.238075
3050.000000	15.327605
3049.000000	15.416023
3048.000000	15.503463
3047.000000	15.589339
3046.000000	15.673770
3045.000000	15.758626
3044.000000	15.845431
3043.000000	15.933840
3042.000000	16.023434
3041.000000	16.114876
3040.000000	16.207802
3039.000000	16.299821
3038.000000	16.389420
3037.000000	16.477889
3036.000000	16.566801
3035.000000	16.655692
3034.000000	16.743866
3033.000000	16.832308
3032.000000	16.921944
3031.000000	17.011976
3030.000000	17.101707
3029.000000	17.192111
3028.000000	17.283988
3027.000000	17.376474
3026.000000	17.468825
3025.000000	17.561622
3024.000000	17.654744
3023.000000	17.746281
3022.000000	17.835157
3021.000000	17.922857
3020.000000	18.011035
3019.000000	18.099418
3018.000000	18.187553
3017.000000	18.276509
3016.000000	18.367149
3015.000000	18.458703
3014.000000	18.550631
3013.000000	18.643895
3012.000000	18.738727
3011.000000	18.833096
3010.000000	18.925020
3009.000000	19.014726
3008.000000	19.103192
3007.000000	19.190595
3006.000000	19.277617
3005.000000	19.366199
3004.000000	19.457304
3003.000000	19.549498
3002.000000	19.641172
3001.000000	19.732507
3000.000000	19.824043
2999.000000	19.915182
2998.000000	20.005354
2997.000000	20.094896
2996.000000	20.183654
2995.000000	20.270682
2994.000000	20.356528
2993.000000	20.443749
2992.000000	20.533838
2991.000000	20.625558
2990.000000	20.717491
2989.000000	20.810052
2988.000000	20.903545
2987.000000	20.996431
2986.000000	21.087163
2985.000000	21.175980
2984.000000	21.263495
2983.000000	21.349452
2982.000000	21.434310
2981.000000	21.520107
2980.000000	21.608150
2979.000000	21.697539
2978.000000	21.787370
2977.000000	21.878524
2976.000000	21.971825
2975.000000	22.066212
2974.000000	22.160246
2973.000000	22.253704
2972.000000	22.346343
2971.000000	22.436911
2970.000000	22.524950
2969.000000	22.611992
2968.000000	22.699510
2967.000000	22.787319
2966.000000	22.875233
2965.000000	22.964490
2964.000000	23.055993
2963.000000	23.148720
2962.000000	23.241239
2961.000000	23.333137
2960.000000	23.423787
2959.000000	23.511639
2958.000000	23.596023
2957.000000	23.678056
2956.000000	23.758724
2955.000000	23.838098
2954.000000	23.917361
2953.000000	23.999093
2952.000000	24.084154
2951.000000	24.170421
2950.000000	24.256070
2949.000000	24.341877
2948.000000	24.428876
2947.000000	24.516039
2946.000000	24.602057
2945.000000	24.687409
2944.000000	24.772893
2943.000000	24.857862
2942.000000	24.941715
2941.000000	25.025611
2940.000000	25.111037
2939.000000	25.198030
2938.000000	25.286123
2937.000000	25.375495
2936.000000	25.465722
2935.000000	25.554884
2934.000000	25.641448
2933.000000	25.725880
2932.000000	25.809354
2931.000000	25.892382
2930.000000	25.975756
2929.000000	26.061083
2928.000000	26.149090
2927.000000	26.238912
2926.000000	26.330053
2925.000000	26.423141
2924.000000	26.517616
2923.000000	26.610510
2922.000000	26.698792
2921.000000	26.781327
2920.000000	26.857711
2919.000000	26.927312
2918.000000	26.990649
2917.000000	27.049873
2916.000000	27.106791
2915.000000	27.161959
2914.000000	27.216494
2913.000000	27.272722
2912.000000	27.332082
2911.000000	27.394027
2910.000000	27.457822
2909.000000	27.523626
2908.000000	27.590920
2907.000000	27.657880
2906.000000	27.723430
2905.000000	27.788330
2904.000000	27.853456
2903.000000	27.918509
2902.000000	27.983933
2901.000000	28.051448
2900.000000	28.122255
2899.000000	28.195852
2898.000000	28.271075
2897.000000	28.346911
2896.000000	28.421421
2895.000000	28.492022
2894.000000	28.557965
2893.000000	28.621124
2892.000000	28.683488
2891.000000	28.745559
2890.000000	28.807864
2889.000000	28.872023
2888.000000	28.939068
2887.000000	29.008335
2886.000000	29.079007
2885.000000	29.151117
2884.000000	29.224041
2883.000000	29.295745
2882.000000	29.364805
2881.000000	29.431705
2880.000000	29.497238
2879.000000	29.561406
2878.000000	29.625188
2877.000000	29.691580
2876.000000	29.762909
2875.000000	29.837875
2874.000000	29.912666
2873.000000	29.984369
2872.000000	30.052558
2871.000000	30.118564
2870.000000	30.184212
2869.000000	30.250437
2868.000000	30.316266
2867.000000	30.379889
2866.000000	30.441235
2865.000000	30.502542
2864.000000	30.566200
2863.000000	30.633160
2862.000000	30.703622
2861.000000	30.777441
2860.000000	30.853170
2859.000000	30.928422
2858.000000	31.002179
2857.000000	31.075507
2856.000000	31.149384
2855.000000	31.223353
2854.000000	31.296921
2853.000000	31.370606
2852.000000	31.444555
2851.000000	31.517292
2850.000000	31.586579
2849.000000	31.650472
2848.000000	31.707442
2847.000000	31.757325
2846.000000	31.802765
2845.000000	31.848146
2844.000000	31.896360
2843.000000	31.947659
2842.000000	32.001599
2841.000000	32.057954
2840.000000	32.115183
2839.000000	32.170511
2838.000000	32.223195
2837.000000	32.276194
2836.000000	32.333322
2835.000000	32.395839
2834.000000	32.462523
2833.000000	32.531498
2832.000000	32.600728
2831.000000	32.668035
2830.000000	32.732232
2829.000000	32.793785
2828.000000	32.853660
2827.000000	32.912417
2826.000000	32.971042
2825.000000	33.031479
2824.000000	33.095367
2823.000000	33.162999
2822.000000	33.233996
2821.000000	33.307804
2820.000000	33.382823
2819.000000	33.456278
2818.000000	33.525944
2817.000000	33.591289
2816.000000	33.652531
2815.000000	33.709922
2814.000000	33.764784
2813.000000	33.819919
2812.000000	33.877754
2811.000000	33.938703
2810.000000	34.001988
2809.000000	34.067060
2808.000000	34.133341
2807.000000	34.199484
2806.000000	34.263803
2805.000000	34.324899
2804.000000	34.381499
2803.000000	34.432776
2802.000000	34.479610
2801.000000	34.524679
2800.000000	34.570495
2799.000000	34.618038
2798.000000	34.667759
2797.000000	34.720635
2796.000000	34.777284
2795.000000	34.836921
2794.000000	34.898041
2793.000000	34.959408
2792.000000	35.019603
2791.000000	35.076487
2790.000000	35.128234
2789.000000	35.174771
2788.000000	35.217834
2787.000000	35.260170
2786.000000	35.304960
2785.000000	35.354940
2784.000000	35.411055
2783.000000	35.472132
2782.000000	35.536037
2781.000000	35.600523
2780.000000	35.662919
2779.000000	35.720356
2778.000000	35.771127
2777.000000	35.815231
2776.000000	35.853322
2775.000000	35.885991
2774.000000	35.914594
2773.000000	35.941717
2772.000000	35.969716
2771.000000	35.999346
2770.000000	36.030100
2769.000000	36.060854
2768.000000	36.089563
2767.000000	36.113118
2766.000000	36.128722
2765.000000	36.135242
2764.000000	36.133119
2763.000000	36.123971
2762.000000	36.110692
2761.000000	36.097028
2760.000000	36.086075
2759.000000	36.079348
2758.000000	36.077466
2757.000000	36.080567
2756.000000	36.087343
2755.000000	36.094665
2754.000000	36.099049
2753.000000	36.098139
2752.000000	36.090389
2751.000000	36.074550
2750.000000	36.050406
2749.000000	36.019307
2748.000000	35.983255
2747.000000	35.943786
2746.000000	35.902162
2745.000000	35.859752
2744.000000	35.817089
2743.000000	35.773287
2742.000000	35.727148
2741.000000	35.678369
2740.000000	35.627488
2739.000000	35.575673
2738.000000	35.525418
2737.000000	35.481015
2736.000000	35.447400
2735.000000	35.428833
2734.000000	35.429086
2733.000000	35.451064
2732.000000	35.495495
2731.000000	35.560540
2730.000000	35.642858
2729.000000	35.738956
2728.000000	35.844580
2727.000000	35.954255
2726.000000	36.063136
2725.000000	36.168833
2724.000000	36.271448
2723.000000	36.372279
2722.000000	36.472859
2721.000000	36.574596
2720.000000	36.678103
2719.000000	36.782763
2718.000000	36.887157
2717.000000	36.989452
2716.000000	37.087091
2715.000000	37.176950
2714.000000	37.256276
2713.000000	37.323639
2712.000000	37.379070
2711.000000	37.423632
2710.000000	37.459593
2709.000000	37.490146
2708.000000	37.518318
2707.000000	37.546184
2706.000000	37.574613
2705.000000	37.603434
2704.000000	37.631379
2703.000000	37.656394
2702.000000	37.676654
2701.000000	37.690938
2700.000000	37.698456
2699.000000	37.699080
2698.000000	37.694142
2697.000000	37.686543
2696.000000	37.679434
2695.000000	37.675113
2694.000000	37.675036
2693.000000	37.679759
2692.000000	37.688311
2691.000000	37.698184
2690.000000	37.706611
2689.000000	37.711679
2688.000000	37.712203
2687.000000	37.707507
2686.000000	37.697996
2685.000000	37.685550
2684.000000	37.672785
2683.000000	37.662026
2682.000000	37.655032
2681.000000	37.652962
2680.000000	37.655954
2679.000000	37.663030
2678.000000	37.672742
2677.000000	37.683594
2676.000000	37.693981
2675.000000	37.702446
2674.000000	37.708474
2673.000000	37.712885
2672.000000	37.717361
2671.000000	37.724139
2670.000000	37.735952
2669.000000	37.755168
2668.000000	37.782502
2667.000000	37.816655
2666.000000	37.855201
2665.000000	37.895213
2664.000000	37.933164
2663.000000	37.965509
2662.000000	37.990006
2661.000000	38.006151
2660.000000	38.014565
2659.000000	38.016861
2658.000000	38.016007
2657.000000	38.015736
2656.000000	38.018874
2655.000000	38.026567
2654.000000	38.039146
2653.000000	38.056678
2652.000000	38.078306
2651.000000	38.102187
2650.000000	38.126847
2649.000000	38.152064
2648.000000	38.178552
2647.000000	38.207566
2646.000000	38.241289
2645.000000	38.282860
2644.000000	38.334797
2643.000000	38.397968
2642.000000	38.471905
2641.000000	38.555187
2640.000000	38.645328
2639.000000	38.738582
2638.000000	38.830818
2637.000000	38.918475
2636.000000	38.998818
2635.000000	39.070283
2634.000000	39.133044
2633.000000	39.188743
2632.000000	39.239315
2631.000000	39.286414
2630.000000	39.331525
2629.000000	39.375989
2628.000000	39.420166
2627.000000	39.462967
2626.000000	39.502769
2625.000000	39.538120
2624.000000	39.567808
2623.000000	39.590878
2622.000000	39.607191
2621.000000	39.617911
2620.000000	39.624790
2619.000000	39.629396
2618.000000	39.632982
2617.000000	39.636310
2616.000000	39.639326
2615.000000	39.640974
2614.000000	39.639783
2613.000000	39.634313
2612.000000	39.622908
2611.000000	39.604036
2610.000000	39.577257
2609.000000	39.543917
2608.000000	39.506792
2607.000000	39.469360
2606.000000	39.435577
2605.000000	39.409561
2604.000000	39.394646
2603.000000	39.392740
2602.000000	39.404706
2601.000000	39.430219
2600.000000	39.467394
2599.000000	39.513128
2598.000000	39.564170
2597.000000	39.618424
2596.000000	39.674734
2595.000000	39.732582
2594.000000	39.792298
2593.000000	39.854728
2592.000000	39.920690
2591.000000	39.990471
2590.000000	40.063942
2589.000000	40.140581
2588.000000	40.219083
2587.000000	40.297684
2586.000000	40.375052
2585.000000	40.450667
2584.000000	40.524430
2583.000000	40.596395
2582.000000	40.667204
2581.000000	40.738276
2580.000000	40.811314
2579.000000	40.887758
2578.000000	40.968555
2577.000000	41.053869
2576.000000	41.142678
2575.000000	41.232976
2574.000000	41.322567
2573.000000	41.409504
2572.000000	41.491960
2571.000000	41.568475
2570.000000	41.638798
2569.000000	41.704058
2568.000000	41.765952
2567.000000	41.825597
2566.000000	41.883282
2565.000000	41.938905
2564.000000	41.991792
2563.000000	42.040546
2562.000000	42.082904
2561.000000	42.115929
2560.000000	42.136536
2559.000000	42.141812
2558.000000	42.130366
2557.000000	42.103210
2556.000000	42.063695
2555.000000	42.017062
2554.000000	41.969735
2553.000000	41.928930
2552.000000	41.901720
2551.000000	41.893583
2550.000000	41.907178
2549.000000	41.942420
2548.000000	41.996771
2547.000000	42.066012
2546.000000	42.145517
2545.000000	42.230772
2544.000000	42.318401
2543.000000	42.406461
2542.000000	42.494146
2541.000000	42.581415
2540.000000	42.668347
2539.000000	42.755052
2538.000000	42.841525
2537.000000	42.927198
2536.000000	43.010620
2535.000000	43.089888
2534.000000	43.163439
2533.000000	43.230595
2532.000000	43.291599
2531.000000	43.347224
2530.000000	43.398753
2529.000000	43.447881
2528.000000	43.496446
2527.000000	43.546044
2526.000000	43.597556
2525.000000	43.651046
2524.000000	43.705781
2523.000000	43.760386
2522.000000	43.813210
2521.000000	43.862706
2520.000000	43.907876
2519.000000	43.948532
2518.000000	43.985337
2517.000000	44.019649
2516.000000	44.053023
2515.000000	44.086847
2514.000000	44.122239
2513.000000	44.160007
2512.000000	44.200357
2511.000000	44.242488
2510.000000	44.284793
2509.000000	44.325631
2508.000000	44.363870
2507.000000	44.398828
2506.000000	44.430093
2505.000000	44.457845
2504.000000	44.483126
2503.000000	44.507406
2502.000000	44.532027
2501.000000	44.558091
2500.000000	44.586574
2499.000000	44.617954
2498.000000	44.651609
2497.000000	44.685899
2496.000000	44.718865
2495.000000	44.748917
2494.000000	44.775158
2493.000000	44.797582
2492.000000	44.817118
2491.000000	44.835143
2490.000000	44.852851
2489.000000	44.871162
2488.000000	44.890934
2487.000000	44.912871
2486.000000	44.937070
2485.000000	44.962860
2484.000000	44.989095
2483.000000	45.014509
2482.000000	45.037994
2481.000000	45.058907
2480.000000	45.077190
2479.000000	45.093127
2478.000000	45.107132
2477.000000	45.120054
2476.000000	45.133372
2475.000000	45.148572
2474.000000	45.166291
2473.000000	45.186194
2472.000000	45.207519
2471.000000	45.229381
2470.000000	45.250698
2469.000000	45.270387
2468.000000	45.287811
2467.000000	45.302908
2466.000000	45.315977
2465.000000	45.327624
2464.000000	45.338878
2463.000000	45.350907
2462.000000	45.364567
2461.000000	45.380302
2460.000000	45.398275
2459.000000	45.418198
2458.000000	45.439113
2457.000000	45.459694
2456.000000	45.478874
2455.000000	45.496065
2454.000000	45.511037
2453.000000	45.524027
2452.000000	45.535944
2451.000000	45.548046
2450.000000	45.561300
2449.000000	45.576168
2448.000000	45.592814
2447.000000	45.611142
2446.000000	45.630664
2445.000000	45.650646
2444.000000	45.670398
2443.000000	45.689333
2442.000000	45.706957
2441.000000	45.723102
2440.000000	45.738096
2439.000000	45.752508
2438.000000	45.766871
2437.000000	45.781780
2436.000000	45.797873
2435.000000	45.815385
2434.000000	45.833938
2433.000000	45.853068
2432.000000	45.872678
2431.000000	45.892635
2430.000000	45.912312
2429.000000	45.930979
2428.000000	45.948447
2427.000000	45.964975
2426.000000	45.980867
2425.000000	45.996629
2424.000000	46.013145
2423.000000	46.031114
2422.000000	46.050376
2421.000000	46.070174
2420.000000	46.089823
2419.000000	46.108874
2418.000000	46.127046
2417.000000	46.144512
2416.000000	46.161935
2415.000000	46.179718
2414.000000	46.197572
2413.000000	46.215305
2412.000000	46.233645
2411.000000	46.253639
2410.000000	46.275536
2409.000000	46.298753
2408.000000	46.322538
2407.000000	46.346075
2406.000000	46.368341
2405.000000	46.388682
2404.000000	46.407432
2403.000000	46.425489
2402.000000	46.443621
2401.000000	46.462652
2400.000000	46.483802
2399.000000	46.508014
2398.000000	46.535091
2397.000000	46.564042
2396.000000	46.593913
2395.000000	46.623771
2394.000000	46.652412
2393.000000	46.678998
2392.000000	46.703720
2391.000000	46.727393
2390.000000	46.750940
2389.000000	46.775575
2388.000000	46.803511
2387.000000	46.836923
2386.000000	46.876964
2385.000000	46.924221
2384.000000	46.978401
2383.000000	47.038218
2382.000000	47.100604
2381.000000	47.162143
2380.000000	47.220869
2379.000000	47.274935
2378.000000	47.322264
2377.000000	47.361850
2376.000000	47.395282
2375.000000	47.426119
2374.000000	47.458690
2373.000000	47.497477
2372.000000	47.545873
2371.000000	47.603858
2370.000000	47.666746
2369.000000	47.729873
2368.000000	47.790766
2367.000000	47.847533
2366.000000	47.897924
2365.000000	47.941609
2364.000000	47.983572
2363.000000	48.025084
2362.000000	48.065102
2361.000000	48.108557
2360.000000	48.156891
2359.000000	48.211062
2358.000000	48.266893
2357.000000	48.319593
2356.000000	48.370213
2355.000000	48.416176
2354.000000	48.461450
2353.000000	48.509847
2352.000000	48.566139
2351.000000	48.628668
2350.000000	48.680547
2349.000000	48.715951
2348.000000	48.744656
2347.000000	48.794425
2346.000000	48.874600
2345.000000	48.960542
2344.000000	49.029366
2343.000000	49.074459
2342.000000	49.112686
2341.000000	49.151355
2340.000000	49.187840
2339.000000	49.219954
2338.000000	49.249584
2337.000000	49.279898
2336.000000	49.314178
2335.000000	49.355889
2334.000000	49.411175
2333.000000	49.479952
2332.000000	49.556379
2331.000000	49.635069
2330.000000	49.706942
2329.000000	49.773304
2328.000000	49.829235
2327.000000	49.876857
2326.000000	49.918335
2325.000000	49.954561
2324.000000	49.991452
2323.000000	50.028146
2322.000000	50.068980
2321.000000	50.112267
2320.000000	50.160984
2319.000000	50.217767
2318.000000	50.283790
2317.000000	50.356931
2316.000000	50.431361
2315.000000	50.503445
2314.000000	50.567721
2313.000000	50.620874
2312.000000	50.660875
2311.000000	50.692411
2310.000000	50.721735
2309.000000	50.754689
2308.000000	50.795076
2307.000000	50.845336
2306.000000	50.905782
2305.000000	50.972530
2304.000000	51.041055
2303.000000	51.106775
2302.000000	51.165636
2301.000000	51.213908
2300.000000	51.250168
2299.000000	51.277482
2298.000000	51.299783
2297.000000	51.321519
2296.000000	51.346664
2295.000000	51.380022
2294.000000	51.423905
2293.000000	51.477203
2292.000000	51.536962
2291.000000	51.599597
2290.000000	51.660526
2289.000000	51.713937
2288.000000	51.756435
2287.000000	51.788184
2286.000000	51.811859
2285.000000	51.830494
2284.000000	51.848894
2283.000000	51.872818
2282.000000	51.906517
2281.000000	51.950662
2280.000000	52.004117
2279.000000	52.064987
2278.000000	52.129559
2277.000000	52.192158
2276.000000	52.247622
2275.000000	52.293512
2274.000000	52.328963
2273.000000	52.354589
2272.000000	52.373617
2271.000000	52.391654
2270.000000	52.413662
2269.000000	52.442281
2268.000000	52.479154
2267.000000	52.525150
2266.000000	52.578173
2265.000000	52.633187
2264.000000	52.685049
2263.000000	52.730601
2262.000000	52.767411
2261.000000	52.793382
2260.000000	52.809259
2259.000000	52.818688
2258.000000	52.825715
2257.000000	52.832801
2256.000000	52.842465
2255.000000	52.857480
2254.000000	52.878242
2253.000000	52.901867
2252.000000	52.924184
2251.000000	52.941755
2250.000000	52.950424
2249.000000	52.946208
2248.000000	52.927775
2247.000000	52.896970
2246.000000	52.856500
2245.000000	52.808080
2244.000000	52.754303
2243.000000	52.699029
2242.000000	52.644841
2241.000000	52.591674
2240.000000	52.538579
2239.000000	52.485064
2238.000000	52.430139
2237.000000	52.372543
2236.000000	52.313172
2235.000000	52.255516
2234.000000	52.203060
2233.000000	52.157856
2232.000000	52.122111
2231.000000	52.098467
2230.000000	52.087619
2229.000000	52.087367
2228.000000	52.094857
2227.000000	52.108021
2226.000000	52.123900
2225.000000	52.138124
2224.000000	52.147425
2223.000000	52.151256
2222.000000	52.150161
2221.000000	52.144533
2220.000000	52.136005
2219.000000	52.127925
2218.000000	52.123130
2217.000000	52.122574
2216.000000	52.126623
2215.000000	52.135570
2214.000000	52.147968
2213.000000	52.160474
2212.000000	52.170518
2211.000000	52.177622
2210.000000	52.181589
2209.000000	52.181655
2208.000000	52.178445
2207.000000	52.174774
2206.000000	52.173339
2205.000000	52.175147
2204.000000	52.180728
2203.000000	52.190712
2202.000000	52.204128
2201.000000	52.217996
2200.000000	52.229702
2199.000000	52.238232
2198.000000	52.242707
2197.000000	52.241925
2196.000000	52.236334
2195.000000	52.228480
2194.000000	52.220541
2193.000000	52.213191
2192.000000	52.207267
2191.000000	52.204195
2190.000000	52.203735
2189.000000	52.203288
2188.000000	52.200446
2187.000000	52.194513
2186.000000	52.185086
2185.000000	52.171575
2184.000000	52.155193
2183.000000	52.139415
2182.000000	52.127409
2181.000000	52.120849
2180.000000	52.121578
2179.000000	52.131920
2178.000000	52.152088
2177.000000	52.179238
2176.000000	52.210189
2175.000000	52.243221
2174.000000	52.276597
2173.000000	52.307874
2172.000000	52.336132
2171.000000	52.362975
2170.000000	52.390376
2169.000000	52.419415
2168.000000	52.451833
2167.000000	52.490379
2166.000000	52.536137
2165.000000	52.587236
2164.000000	52.641045
2163.000000	52.695562
2162.000000	52.748000
2161.000000	52.794707
2160.000000	52.834091
2159.000000	52.867840
2158.000000	52.898391
2157.000000	52.927402
2156.000000	52.957372
2155.000000	52.991962
2154.000000	53.033146
2153.000000	53.079907
2152.000000	53.130355
2151.000000	53.182856
2150.000000	53.234440
2149.000000	53.280829
2148.000000	53.319636
2147.000000	53.351715
2146.000000	53.378567
2145.000000	53.401293
2144.000000	53.422944
2143.000000	53.448607
2142.000000	53.481698
2141.000000	53.522408
2140.000000	53.570407
2139.000000	53.625906
2138.000000	53.686811
2137.000000	53.747894
2136.000000	53.804535
2135.000000	53.855108
2134.000000	53.899026
2133.000000	53.935683
2132.000000	53.966754
2131.000000	53.996707
2130.000000	54.029312
2129.000000	54.065793
2128.000000	54.106923
2127.000000	54.153782
2126.000000	54.205044
2125.000000	54.256357
2124.000000	54.304102
2123.000000	54.347246
2122.000000	54.384787
2121.000000	54.414903
2120.000000	54.438246
2119.000000	54.459175
2118.000000	54.482243
2117.000000	54.509895
2116.000000	54.544184
2115.000000	54.587217
2114.000000	54.638235
2113.000000	54.693015
2112.000000	54.747531
2111.000000	54.799636
2110.000000	54.846602
2109.000000	54.884863
2108.000000	54.913768
2107.000000	54.936382
2106.000000	54.955645
2105.000000	54.972658
2104.000000	54.989417
2103.000000	55.009557
2102.000000	55.033995
2101.000000	55.059590
2100.000000	55.082750
2099.000000	55.101581
2098.000000	55.113863
2097.000000	55.115621
2096.000000	55.104576
2095.000000	55.082633
2094.000000	55.053635
2093.000000	55.021387
2092.000000	54.990766
2091.000000	54.967352
2090.000000	54.954193
2089.000000	54.950769
2088.000000	54.955699
2087.000000	54.968003
2086.000000	54.985013
2085.000000	55.002591
2084.000000	55.018839
2083.000000	55.035231
2082.000000	55.053186
2081.000000	55.073018
2080.000000	55.096519
2079.000000	55.127348
2078.000000	55.167853
2077.000000	55.216906
2076.000000	55.273330
2075.000000	55.336755
2074.000000	55.404637
2073.000000	55.472566
2072.000000	55.537011
2071.000000	55.595972
2070.000000	55.647434
2069.000000	55.691829
2068.000000	55.735818
2067.000000	55.788609
2066.000000	55.853792
2065.000000	55.929057
2064.000000	56.013023
2063.000000	56.106631
2062.000000	56.207530
2061.000000	56.308847
2060.000000	56.405564
2059.000000	56.497234
2058.000000	56.583344
2057.000000	56.661210
2056.000000	56.731288
2055.000000	56.798792
2054.000000	56.867694
2053.000000	56.938718
2052.000000	57.013540
2051.000000	57.095096
2050.000000	57.183018
2049.000000	57.273025
2048.000000	57.360706
2047.000000	57.442989
2046.000000	57.516406
2045.000000	57.579038
2044.000000	57.634684
2043.000000	57.690411
2042.000000	57.749788
2041.000000	57.812768
2040.000000	57.881391
2039.000000	57.959905
2038.000000	58.048828
2037.000000	58.144113
2036.000000	58.242834
2035.000000	58.344494
2034.000000	58.445879
2033.000000	58.540124
2032.000000	58.624144
2031.000000	58.700253
2030.000000	58.771257
2029.000000	58.838104
2028.000000	58.904312
2027.000000	58.976595
2026.000000	59.058007
2025.000000	59.147304
2024.000000	59.241782
2023.000000	59.337650
2022.000000	59.428772
2021.000000	59.511137
2020.000000	59.588410
2019.000000	59.666681
2018.000000	59.744900
2017.000000	59.818057
2016.000000	59.887991
2015.000000	59.962384
2014.000000	60.044694
2013.000000	60.132477
2012.000000	60.225815
2011.000000	60.328806
2010.000000	60.441931
2009.000000	60.558561
2008.000000	60.672503
2007.000000	60.782451
2006.000000	60.885129
2005.000000	60.976370
2004.000000	61.056205
2003.000000	61.132020
2002.000000	61.210297
2001.000000	61.291836
2000.000000	61.380931
1999.000000	61.481883
1998.000000	61.588050
1997.000000	61.686686
1996.000000	61.776566
1995.000000	61.867964
1994.000000	61.962439
1993.000000	62.046535
1992.000000	62.114941
1991.000000	62.181391
1990.000000	62.257745
1989.000000	62.340138
1988.000000	62.421328
1987.000000	62.503989
1986.000000	62.592958
1985.000000	62.686575
1984.000000	62.780530
1983.000000	62.875310
1982.000000	62.969125
1981.000000	63.052839
1980.000000	63.122463
1979.000000	63.182166
1978.000000	63.234239
1977.000000	63.275937
1976.000000	63.311331
1975.000000	63.352199
1974.000000	63.402444
1973.000000	63.453055
1972.000000	63.497628
1971.000000	63.541834
1970.000000	63.594179
1969.000000	63.655785
1968.000000	63.722127
1967.000000	63.789568
1966.000000	63.854322
1965.000000	63.910430
1964.000000	63.956735
1963.000000	63.998900
1962.000000	64.039953
1961.000000	64.078578
1960.000000	64.117668
1959.000000	64.164592
1958.000000	64.222067
1957.000000	64.284576
1956.000000	64.348639
1955.000000	64.414046
1954.000000	64.476273
1953.000000	64.527374
1952.000000	64.561821
1951.000000	64.584031
1950.000000	64.601623
1949.000000	64.615623
1948.000000	64.625135
1947.000000	64.634400
1946.000000	64.651357
1945.000000	64.682605
1944.000000	64.727226
1943.000000	64.778229
1942.000000	64.833169
1941.000000	64.892913
1940.000000	64.954802
1939.000000	65.011259
1938.000000	65.051585
1937.000000	65.072050
1936.000000	65.085051
1935.000000	65.105260
1934.000000	65.135740
1933.000000	65.173465
1932.000000	65.213917
1931.000000	65.261506
1930.000000	65.314396
1929.000000	65.357919
1928.000000	65.378115
1927.000000	65.372502
1926.000000	65.360180
1925.000000	65.360270
1924.000000	65.371631
1923.000000	65.388963
1922.000000	65.419720
1921.000000	65.471576
1920.000000	65.533475
1919.000000	65.576390
1918.000000	65.591287
1917.000000	65.602421
1916.000000	65.632756
1915.000000	65.676997
1914.000000	65.710920
1913.000000	65.721417
1912.000000	65.719421
1911.000000	65.727786
1910.000000	65.750985
1909.000000	65.781490
1908.000000	65.819392
1907.000000	65.864750
1906.000000	65.915875
1905.000000	65.964268
1904.000000	66.003059
1903.000000	66.038549
1902.000000	66.073079
1901.000000	66.097130
1900.000000	66.104415
1899.000000	66.098825
1898.000000	66.094349
1897.000000	66.099962
1896.000000	66.111507
1895.000000	66.122940
1894.000000	66.133806
1893.000000	66.145924
1892.000000	66.162875
1891.000000	66.179283
1890.000000	66.180548
1889.000000	66.169359
1888.000000	66.166870
1887.000000	66.185039
1886.000000	66.213786
1885.000000	66.233214
1884.000000	66.237063
1883.000000	66.239431
1882.000000	66.249132
1881.000000	66.259871
1880.000000	66.270578
1879.000000	66.285796
1878.000000	66.304353
1877.000000	66.321168
1876.000000	66.331280
1875.000000	66.331944
1874.000000	66.320609
1873.000000	66.294201
1872.000000	66.255083
1871.000000	66.212457
1870.000000	66.169051
1869.000000	66.128613
1868.000000	66.116961
1867.000000	66.153916
1866.000000	66.220988
1865.000000	66.279727
1864.000000	66.309017
1863.000000	66.315851
1862.000000	66.313058
1861.000000	66.304661
1860.000000	66.294673
1859.000000	66.292047
1858.000000	66.296295
1857.000000	66.299308
1856.000000	66.296613
1855.000000	66.295913
1854.000000	66.295325
1853.000000	66.273736
1852.000000	66.231670
1851.000000	66.184762
1850.000000	66.134720
1849.000000	66.076641
1848.000000	66.034370
1847.000000	66.044020
1846.000000	66.079387
1845.000000	66.062269
1844.000000	65.986148
1843.000000	65.926293
1842.000000	65.917448
1841.000000	65.935512
1840.000000	65.946310
1839.000000	65.934468
1838.000000	65.910008
1837.000000	65.879768
1836.000000	65.840231
1835.000000	65.796640
1834.000000	65.751694
1833.000000	65.699923
1832.000000	65.649421
1831.000000	65.589782
1830.000000	65.506462
1829.000000	65.428159
1828.000000	65.389792
1827.000000	65.384733
1826.000000	65.363035
1825.000000	65.298771
1824.000000	65.231900
1823.000000	65.201233
1822.000000	65.186943
1821.000000	65.151127
1820.000000	65.090546
1819.000000	65.024290
1818.000000	64.963727
1817.000000	64.899685
1816.000000	64.827817
1815.000000	64.755290
1814.000000	64.680707
1813.000000	64.604682
1812.000000	64.527347
1811.000000	64.450224
1810.000000	64.384397
1809.000000	64.335509
1808.000000	64.300343
1807.000000	64.268247
1806.000000	64.227993
1805.000000	64.169869
1804.000000	64.102461
1803.000000	64.048230
1802.000000	64.002985
1801.000000	63.950703
1800.000000	63.890117
1799.000000	63.832856
1798.000000	63.785380
1797.000000	63.744628
1796.000000	63.720309
1795.000000	63.720444
1794.000000	63.712186
1793.000000	63.649269
1792.000000	63.548082
1791.000000	63.480462
1790.000000	63.473766
1789.000000	63.494314
1788.000000	63.502207
1787.000000	63.471857
1786.000000	63.395533
1785.000000	63.272454
1784.000000	63.129248
1783.000000	63.013576
1782.000000	62.923237
1781.000000	62.827124
1780.000000	62.722438
1779.000000	62.632215
1778.000000	62.542334
1777.000000	62.416744
1776.000000	62.289005
1775.000000	62.237368
1774.000000	62.243655
1773.000000	62.180685
1772.000000	62.013670
1771.000000	61.840429
1770.000000	61.733427
1769.000000	61.673155
1768.000000	61.613073
1767.000000	61.550672
1766.000000	61.505440
1765.000000	61.478510
1764.000000	61.450198
1763.000000	61.379706
1762.000000	61.249523
1761.000000	61.104379
1760.000000	60.991502
1759.000000	60.933240
1758.000000	60.882318
1757.000000	60.760302
1756.000000	60.579709
1755.000000	60.415930
1754.000000	60.301035
1753.000000	60.190468
1752.000000	60.027924
1751.000000	59.834501
1750.000000	59.677843
1749.000000	59.556946
1748.000000	59.448617
1747.000000	59.360495
1746.000000	59.286281
1745.000000	59.209455
1744.000000	59.131237
1743.000000	59.066220
1742.000000	59.007741
1741.000000	58.904914
1740.000000	58.708719
1739.000000	58.448806
1738.000000	58.204338
1737.000000	58.040968
1736.000000	57.927792
1735.000000	57.713805
1734.000000	57.395566
1733.000000	57.135065
1732.000000	56.972298
1731.000000	56.866613
1730.000000	56.768939
1729.000000	56.628148
1728.000000	56.454141
1727.000000	56.276073
1726.000000	56.086332
1725.000000	55.871059
1724.000000	55.634122
1723.000000	55.383056
1722.000000	55.100452
1721.000000	54.765258
1720.000000	54.413202
1719.000000	54.081508
1718.000000	53.762330
1717.000000	53.475698
1716.000000	53.237194
1715.000000	53.021410
1714.000000	52.815616
1713.000000	52.613407
1712.000000	52.405063
1711.000000	52.192583
1710.000000	51.968100
1709.000000	51.708956
1708.000000	51.422038
1707.000000	51.118184
1706.000000	50.778859
1705.000000	50.428998
1704.000000	50.180907
1703.000000	50.102925
1702.000000	49.980340
1701.000000	49.501585
1700.000000	48.781770
1699.000000	48.204658
1698.000000	47.953573
1697.000000	47.882085
1696.000000	47.725240
1695.000000	47.460970
1694.000000	47.178981
1693.000000	46.907329
1692.000000	46.640929
1691.000000	46.339513
1690.000000	45.962659
1689.000000	45.531680
1688.000000	45.169167
1687.000000	44.976378
1686.000000	44.902025
1685.000000	44.682185
1684.000000	44.231498
1683.000000	43.818472
1682.000000	43.561346
1681.000000	43.388910
1680.000000	43.238734
1679.000000	43.098741
1678.000000	42.979639
1677.000000	42.811488
1676.000000	42.507563
1675.000000	42.119935
1674.000000	41.770791
1673.000000	41.500581
1672.000000	41.283666
1671.000000	41.063945
1670.000000	40.784789
1669.000000	40.463613
1668.000000	40.176357
1667.000000	39.961192
1666.000000	39.796215
1665.000000	39.624619
1664.000000	39.386820
1663.000000	39.085056
1662.000000	38.777173
1661.000000	38.498664
1660.000000	38.254404
1659.000000	38.017922
1658.000000	37.743449
1657.000000	37.433127
1656.000000	37.188959
1655.000000	37.072411
1654.000000	36.843400
1653.000000	36.450306
1652.000000	36.158683
1651.000000	35.948318
1650.000000	35.737205
1649.000000	35.558610
1648.000000	35.379334
1647.000000	35.138892
1646.000000	34.887446
1645.000000	34.679963
1644.000000	34.484506
1643.000000	34.300322
1642.000000	34.122771
1641.000000	33.916130
1640.000000	33.674501
1639.000000	33.451924
1638.000000	33.309459
1637.000000	33.178842
1636.000000	32.939546
1635.000000	32.651446
1634.000000	32.422947
1633.000000	32.249135
1632.000000	32.102312
1631.000000	31.964945
1630.000000	31.817818
1629.000000	31.642043
1628.000000	31.442983
1627.000000	31.260064
1626.000000	31.111112
1625.000000	30.969861
1624.000000	30.800872
1623.000000	30.612703
1622.000000	30.434107
1621.000000	30.264267
1620.000000	30.116914
1619.000000	30.033037
1618.000000	29.998817
1617.000000	29.938762
1616.000000	29.835300
1615.000000	29.733520
1614.000000	29.658229
1613.000000	29.598523
1612.000000	29.531010
1611.000000	29.456984
1610.000000	29.395492
1609.000000	29.346355
1608.000000	29.297570
1607.000000	29.257001
1606.000000	29.231223
1605.000000	29.207652
1604.000000	29.180860
1603.000000	29.162113
1602.000000	29.157814
1601.000000	29.154583
1600.000000	29.142317
1599.000000	29.129392
1598.000000	29.124078
1597.000000	29.121938
1596.000000	29.118815
1595.000000	29.122411
1594.000000	29.137530
1593.000000	29.154302
1592.000000	29.164733
1591.000000	29.176691
1590.000000	29.195726
1589.000000	29.212537
1588.000000	29.218185
1587.000000	29.221114
1586.000000	29.231967
1585.000000	29.238867
1584.000000	29.234529
1583.000000	29.230567
1582.000000	29.219821
1581.000000	29.167234
1580.000000	29.070154
1579.000000	28.993364
1578.000000	28.998337
1577.000000	29.043151
1576.000000	29.055324
1575.000000	29.042232
1574.000000	29.027443
1573.000000	29.021746
1572.000000	29.024720
1571.000000	29.014919
1570.000000	28.975626
1569.000000	28.919573
1568.000000	28.878414
1567.000000	28.869423
1566.000000	28.879213
1565.000000	28.872808
1564.000000	28.833809
1563.000000	28.831667
1562.000000	28.901854
1561.000000	29.011915
1560.000000	29.101896
1559.000000	29.106772
1558.000000	29.149261
1557.000000	29.254757
1556.000000	29.371255
1555.000000	29.528578
1554.000000	29.696208
1553.000000	29.844772
1552.000000	29.977046
1551.000000	30.128155
1550.000000	30.309640
1549.000000	30.498314
1548.000000	30.664149
1547.000000	30.803205
1546.000000	30.935780
1545.000000	31.073452
1544.000000	31.209096
1543.000000	31.335620
1542.000000	31.519158
1541.000000	31.804340
1540.000000	32.136673
1539.000000	32.489527
1538.000000	32.810711
1537.000000	33.055403
1536.000000	33.270295
1535.000000	33.507677
1534.000000	33.772962
1533.000000	34.055058
1532.000000	34.350119
1531.000000	34.647213
1530.000000	34.943537
1529.000000	35.244295
1528.000000	35.561358
1527.000000	35.902283
1526.000000	36.245781
1525.000000	36.555152
1524.000000	36.852273
1523.000000	37.225065
1522.000000	37.703907
1521.000000	38.219723
1520.000000	38.677162
1519.000000	39.068021
1518.000000	39.486085
1517.000000	39.969863
1516.000000	40.473749
1515.000000	40.959456
1514.000000	41.414549
1513.000000	41.830488
1512.000000	42.165361
1511.000000	42.400713
1510.000000	42.577485
1509.000000	42.886626
1508.000000	43.468915
1507.000000	44.173044
1506.000000	44.911153
1505.000000	45.584223
1504.000000	46.083855
1503.000000	46.509776
1502.000000	46.950061
1501.000000	47.383869
1500.000000	47.762566
1499.000000	48.117677
1498.000000	48.525718
1497.000000	49.009156
1496.000000	49.518373
1495.000000	49.990406
1494.000000	50.390681
1493.000000	50.709422
1492.000000	50.967485
1491.000000	51.235767
1490.000000	51.579365
1489.000000	51.994939
1488.000000	52.422800
1487.000000	52.823113
1486.000000	53.196414
1485.000000	53.519205
1484.000000	53.783854
1483.000000	54.024162
1482.000000	54.267493
1481.000000	54.503408
1480.000000	54.708466
1479.000000	54.871182
1478.000000	54.971421
1477.000000	54.994582
1476.000000	54.967394
1475.000000	54.970646
1474.000000	55.029783
1473.000000	55.052570
1472.000000	54.996457
1471.000000	54.915419
1470.000000	54.816112
1469.000000	54.656535
1468.000000	54.408008
1467.000000	54.064823
1466.000000	53.590147
1465.000000	52.937876
1464.000000	52.198151
1463.000000	51.507629
1462.000000	50.863511
1461.000000	50.174165
1460.000000	49.421966
1459.000000	48.659406
1458.000000	47.764420
1457.000000	46.599293
1456.000000	45.396412
1455.000000	44.372256
1454.000000	43.414038
1453.000000	42.341514
1452.000000	41.100347
1451.000000	39.752203
1450.000000	38.307781
1449.000000	36.687424
1448.000000	34.890284
1447.000000	33.068856
1446.000000	31.313630
1445.000000	29.569185
1444.000000	27.794066
1443.000000	26.006530
1442.000000	24.216853
1441.000000	22.449967
1440.000000	20.793590
1439.000000	19.269065
1438.000000	17.708816
1437.000000	15.970629
1436.000000	14.286307
1435.000000	12.995827
1434.000000	12.068050
1433.000000	11.288919
1432.000000	10.589502
1431.000000	10.013618
1430.000000	9.553129
1429.000000	9.163924
1428.000000	8.886270
1427.000000	8.776602
1426.000000	8.796165
1425.000000	8.889708
1424.000000	9.090640
1423.000000	9.434046
1422.000000	9.864259
1421.000000	10.341936
1420.000000	10.954363
1419.000000	11.773336
1418.000000	12.674924
1417.000000	13.526815
1416.000000	14.382503
1415.000000	15.325650
1414.000000	16.332643
1413.000000	17.363017
1412.000000	18.453309
1411.000000	19.638239
1410.000000	20.865176
1409.000000	22.076359
1408.000000	23.293300
1407.000000	24.566724
1406.000000	25.905380
1405.000000	27.290721
1404.000000	28.701095
1403.000000	30.082429
1402.000000	31.385492
1401.000000	32.646217
1400.000000	33.953514
1399.000000	35.312761
1398.000000	36.636221
1397.000000	37.908054
1396.000000	39.221631
1395.000000	40.627266
1394.000000	42.049332
1393.000000	43.394220
1392.000000	44.648976
1391.000000	45.838409
1390.000000	46.981854
1389.000000	48.116709
1388.000000	49.280412
1387.000000	50.437492
1386.000000	51.491047
1385.000000	52.383758
1384.000000	53.121167
1383.000000	53.704740
1382.000000	54.124653
1381.000000	54.389149
1380.000000	54.501222
1379.000000	54.425346
1378.000000	54.110394
1377.000000	53.520940
1376.000000	52.614194
1375.000000	51.329163
1374.000000	49.663705
1373.000000	47.750061
1372.000000	45.769040
1371.000000	43.853836
1370.000000	42.132180
1369.000000	40.784411
1368.000000	40.001990
1367.000000	39.869630
1366.000000	40.339112
1365.000000	41.319695
1364.000000	42.736453
1363.000000	44.475785
1362.000000	46.333411
1361.000000	48.091176
1360.000000	49.616065
1359.000000	50.858143
1358.000000	51.802417
1357.000000	52.443518
1356.000000	52.773912
1355.000000	52.777936
1354.000000	52.443178
1353.000000	51.768701
1352.000000	50.757264
1351.000000	49.412413
1350.000000	47.747621
1349.000000	45.794407
1348.000000	43.595957
1347.000000	41.197317
1346.000000	38.645360
1345.000000	35.993180
1344.000000	33.310572
1343.000000	30.672169
1342.000000	28.136177
1341.000000	25.751144
1340.000000	23.592162
1339.000000	21.767492
1338.000000	20.359274
1337.000000	19.361051
1336.000000	18.693288
1335.000000	18.246140
1334.000000	17.886039
1333.000000	17.467063
1332.000000	16.869029
1331.000000	16.032363
1330.000000	14.964270
1329.000000	13.723221
1328.000000	12.402085
1327.000000	11.105066
1326.000000	9.913077
1325.000000	8.867874
1324.000000	7.991204
1323.000000	7.299514
1322.000000	6.789310
1321.000000	6.432117
1320.000000	6.198792
1319.000000	6.066274
1318.000000	6.000852
1317.000000	5.959360
1316.000000	5.914219
1315.000000	5.861533
1314.000000	5.798500
1313.000000	5.716649
1312.000000	5.620177
1311.000000	5.526768
1310.000000	5.445835
1309.000000	5.375143
1308.000000	5.321441
1307.000000	5.302609
1306.000000	5.325881
1305.000000	5.385067
1304.000000	5.480563
1303.000000	5.621161
1302.000000	5.804689
1301.000000	6.016505
1300.000000	6.251270
1299.000000	6.514834
1298.000000	6.804920
1297.000000	7.110748
1296.000000	7.430917
1295.000000	7.773772
1294.000000	8.138267
1293.000000	8.513318
1292.000000	8.895632
1291.000000	9.289422
1290.000000	9.688452
1289.000000	10.074937
1288.000000	10.433871
1287.000000	10.751236
1286.000000	11.002194
1285.000000	11.159973
1284.000000	11.221831
1283.000000	11.216425
1282.000000	11.187411
1281.000000	11.181841
1280.000000	11.247386
1279.000000	11.417570
1278.000000	11.692683
1277.000000	12.047674
1276.000000	12.457552
1275.000000	12.905619
1274.000000	13.374336
1273.000000	13.846856
1272.000000	14.319227
1271.000000	14.795212
1270.000000	15.271320
1269.000000	15.739481
1268.000000	16.200307
1267.000000	16.660272
1266.000000	17.118000
1265.000000	17.565963
1264.000000	18.002978
1263.000000	18.433767
1262.000000	18.858152
1261.000000	19.272508
1260.000000	19.679143
1259.000000	20.083316
1258.000000	20.484308
1257.000000	20.879184
1256.000000	21.271594
1255.000000	21.667267
1254.000000	22.064621
1253.000000	22.458552
1252.000000	22.849052
1251.000000	23.238145
1250.000000	23.622487
1249.000000	23.996829
1248.000000	24.361647
1247.000000	24.720206
1246.000000	25.071968
1245.000000	25.416033
1244.000000	25.756861
1243.000000	26.100069
1242.000000	26.445552
1241.000000	26.790695
1240.000000	27.136328
1239.000000	27.483382
1238.000000	27.827736
1237.000000	28.163830
1236.000000	28.490243
1235.000000	28.807528
1234.000000	29.114197
1233.000000	29.409992
1232.000000	29.699539
1231.000000	29.988468
1230.000000	30.279128
1229.000000	30.573025
1228.000000	30.873675
1227.000000	31.183044
1226.000000	31.498377
1225.000000	31.815509
1224.000000	32.131904
1223.000000	32.444407
1222.000000	32.748340
1221.000000	33.041558
1220.000000	33.326507
1219.000000	33.606381
1218.000000	33.882802
1217.000000	34.158492
1216.000000	34.437997
1215.000000	34.724327
1214.000000	35.017628
1213.000000	35.317689
1212.000000	35.623765
1211.000000	35.931129
1210.000000	36.232389
1209.000000	36.522875
1208.000000	36.801773
1207.000000	37.069019
1206.000000	37.325534
1205.000000	37.576318
1204.000000	37.828356
1203.000000	38.085578
1202.000000	38.349190
1201.000000	38.620655
1200.000000	38.899938
1199.000000	39.181328
1198.000000	39.455014
1197.000000	39.712495
1196.000000	39.945453
1195.000000	40.143047
1194.000000	40.294098
1193.000000	40.390365
1192.000000	40.426469
1191.000000	40.397634
1190.000000	40.306185
1189.000000	40.169197
1188.000000	40.017444
1187.000000	39.888669
1186.000000	39.820193
1185.000000	39.840503
1184.000000	39.959376
1183.000000	40.164176
1182.000000	40.426332
1181.000000	40.716770
1180.000000	41.015157
1179.000000	41.310959
1178.000000	41.603478
1177.000000	41.897303
1176.000000	42.195231
1175.000000	42.494991
1174.000000	42.793929
1173.000000	43.092731
1172.000000	43.391350
1171.000000	43.685073
1170.000000	43.968421
1169.000000	44.239436
1168.000000	44.496582
1167.000000	44.737235
1166.000000	44.962901
1165.000000	45.181632
1164.000000	45.401610
1163.000000	45.625889
1162.000000	45.856693
1161.000000	46.098459
1160.000000	46.352233
1159.000000	46.612395
1158.000000	46.872531
1157.000000	47.129651
1156.000000	47.379427
1155.000000	47.614068
1154.000000	47.829855
1153.000000	48.030457
1152.000000	48.220077
1151.000000	48.399913
1150.000000	48.574625
1149.000000	48.754739
1148.000000	48.947227
1147.000000	49.150264
1146.000000	49.360374
1145.000000	49.576938
1144.000000	49.795998
1143.000000	50.007658
1142.000000	50.204857
1141.000000	50.388234
1140.000000	50.558875
1139.000000	50.715012
1138.000000	50.859064
1137.000000	51.000000
1136.000000	51.144715
1135.000000	51.294303
1134.000000	51.451695
1133.000000	51.623369
1132.000000	51.809431
1131.000000	52.000623
1130.000000	52.189215
1129.000000	52.374621
1128.000000	52.555240
1127.000000	52.724648
1126.000000	52.880713
1125.000000	53.029162
1124.000000	53.174624
1123.000000	53.317244
1122.000000	53.461168
1121.000000	53.615759
1120.000000	53.783609
1119.000000	53.957196
1118.000000	54.130764
1117.000000	54.305278
1116.000000	54.478363
1115.000000	54.640986
1114.000000	54.789357
1113.000000	54.929600
1112.000000	55.066003
1111.000000	55.196406
1110.000000	55.322185
1109.000000	55.451355
1108.000000	55.587720
1107.000000	55.726218
1106.000000	55.863635
1105.000000	56.001591
1104.000000	56.136243
1103.000000	56.257117
1102.000000	56.360565
1101.000000	56.452789
1100.000000	56.536655
1099.000000	56.609129
1098.000000	56.673910
1097.000000	56.744102
1096.000000	56.827145
1095.000000	56.919468
1094.000000	57.018996
1093.000000	57.129790
1092.000000	57.250456
1091.000000	57.371422
1090.000000	57.488556
1089.000000	57.607107
1088.000000	57.728183
1087.000000	57.845002
1086.000000	57.956216
1085.000000	58.069729
1084.000000	58.188712
1083.000000	58.306532
1082.000000	58.419117
1081.000000	58.529562
1080.000000	58.636889
1079.000000	58.733643
1078.000000	58.819212
1077.000000	58.901298
1076.000000	58.981122
1075.000000	59.050304
1074.000000	59.104950
1073.000000	59.149469
1072.000000	59.181674
1071.000000	59.189123
1070.000000	59.163467
1069.000000	59.103595
1068.000000	59.004341
1067.000000	58.855411
1066.000000	58.658251
1065.000000	58.432150
1064.000000	58.200908
1063.000000	57.987277
1062.000000	57.820960
1061.000000	57.734977
1060.000000	57.745566
1059.000000	57.847115
1058.000000	58.024664
1057.000000	58.262773
1056.000000	58.539822
1055.000000	58.827738
1054.000000	59.108487
1053.000000	59.377889
1052.000000	59.632497
1051.000000	59.865547
1050.000000	60.079868
1049.000000	60.289373
1048.000000	60.501814
1047.000000	60.713167
1046.000000	60.921533
1045.000000	61.131477
1044.000000	61.340067
1043.000000	61.534487
1042.000000	61.707547
1041.000000	61.862559
1040.000000	62.000818
1039.000000	62.118716
1038.000000	62.221350
1037.000000	62.324174
1036.000000	62.436504
1035.000000	62.557330
1034.000000	62.688940
1033.000000	62.839209
1032.000000	63.006288
1031.000000	63.175750
1030.000000	63.337121
1029.000000	63.489194
1028.000000	63.626998
1027.000000	63.740093
1026.000000	63.828923
1025.000000	63.908113
1024.000000	63.989315
1023.000000	64.074727
1022.000000	64.169974
1021.000000	64.286422
1020.000000	64.425852
1019.000000	64.577041
1018.000000	64.731083
1017.000000	64.885766
1016.000000	65.032179
1015.000000	65.154248
1014.000000	65.246598
1013.000000	65.318998
1012.000000	65.380175
1011.000000	65.432579
1010.000000	65.485487
1009.000000	65.556217
1008.000000	65.653095
1007.000000	65.770591
1006.000000	65.903716
1005.000000	66.051852
1004.000000	66.205831
1003.000000	66.346974
1002.000000	66.464219
1001.000000	66.559082
1000.000000	66.632535
999.000000	66.682438
998.000000	66.717247
997.000000	66.756564
996.000000	66.813462
995.000000	66.888872
994.000000	66.984540
993.000000	67.105765
992.000000	67.247329
991.000000	67.391879
990.000000	67.526186
989.000000	67.646386
988.000000	67.745518
987.000000	67.813233
986.000000	67.851776
985.000000	67.877965
984.000000	67.905527
983.000000	67.939208
982.000000	67.987491
981.000000	68.063641
980.000000	68.169453
979.000000	68.292024
978.000000	68.420142
977.000000	68.549008
976.000000	68.667310
975.000000	68.756764
974.000000	68.810749
973.000000	68.838643
972.000000	68.849849
971.000000	68.848346
970.000000	68.845335
969.000000	68.860087
968.000000	68.902755
967.000000	68.969801
966.000000	69.058049
965.000000	69.167676
964.000000	69.287847
963.000000	69.396480
962.000000	69.479221
961.000000	69.535814
960.000000	69.565774
959.000000	69.565829
958.000000	69.544459
957.000000	69.522661
956.000000	69.515245
955.000000	69.525199
954.000000	69.557717
953.000000	69.621608
952.000000	69.712582
951.000000	69.810963
950.000000	69.900925
949.000000	69.976951
948.000000	70.030314
947.000000	70.047585
946.000000	70.028443
945.000000	69.988261
944.000000	69.940355
943.000000	69.890774
942.000000	69.852287
941.000000	69.844374
940.000000	69.873103
939.000000	69.925954
938.000000	69.989397
937.000000	70.056247
936.000000	70.112911
935.000000	70.138308
934.000000	70.122255
933.000000	70.071276
932.000000	69.993314
931.000000	69.893854
930.000000	69.788414
929.000000	69.700778
928.000000	69.642679
927.000000	69.608831
926.000000	69.593759
925.000000	69.595520
924.000000	69.600390
923.000000	69.582273
922.000000	69.523697
921.000000	69.423738
920.000000	69.283043
919.000000	69.099809
918.000000	68.884784
917.000000	68.661582
916.000000	68.447664
915.000000	68.247212
914.000000	68.063535
913.000000	67.900792
912.000000	67.748071
911.000000	67.579389
910.000000	67.373952
909.000000	67.124104
908.000000	66.823165
907.000000	66.462376
906.000000	66.046615
905.000000	65.596022
904.000000	65.127538
903.000000	64.648666
902.000000	64.167342
901.000000	63.692325
900.000000	63.218539
899.000000	62.725761
898.000000	62.196896
897.000000	61.622836
896.000000	60.991782
895.000000	60.289680
894.000000	59.514830
893.000000	58.681319
892.000000	57.802246
891.000000	56.883994
890.000000	55.935626
889.000000	54.968143
888.000000	53.983308
887.000000	52.970836
886.000000	51.920227
885.000000	50.825736
884.000000	49.678342
883.000000	48.467337
882.000000	47.190901
881.000000	45.859185
880.000000	44.485915
879.000000	43.083077
878.000000	41.665051
877.000000	40.248140
876.000000	38.844911
875.000000	37.462612
874.000000	36.107857
873.000000	34.787427
872.000000	33.505778
871.000000	32.265538
870.000000	31.069918
869.000000	29.926358
868.000000	28.843479
867.000000	27.827932
866.000000	26.884322
865.000000	26.014868
864.000000	25.222098
863.000000	24.505402
862.000000	23.859058
861.000000	23.275654
860.000000	22.747127
859.000000	22.265779
858.000000	21.822580
857.000000	21.410091
856.000000	21.026835
855.000000	20.673878
854.000000	20.353100
853.000000	20.068428
852.000000	19.827003
851.000000	19.636100
850.000000	19.497052
849.000000	19.408664
848.000000	19.372195
847.000000	19.389692
846.000000	19.461194
845.000000	19.584139
844.000000	19.758902
843.000000	19.989793
842.000000	20.281045
841.000000	20.637325
840.000000	21.062987
839.000000	21.562396
838.000000	22.138297
837.000000	22.790699
836.000000	23.518100
835.000000	24.314172
834.000000	25.163420
833.000000	26.031680
832.000000	26.848221
831.000000	27.450649
830.000000	27.536787
829.000000	26.703618
828.000000	24.675838
827.000000	21.636419
826.000000	18.334184
825.000000	15.759669
824.000000	14.585373
823.000000	14.839620
822.000000	16.061487
821.000000	17.713519
820.000000	19.440254
819.000000	21.076707
818.000000	22.572994
817.000000	23.934596
816.000000	25.192173
815.000000	26.366865
814.000000	27.468597
813.000000	28.512548
812.000000	29.516870
811.000000	30.483741
810.000000	31.403074
809.000000	32.271164
808.000000	33.088138
807.000000	33.848724
806.000000	34.551260
805.000000	35.211050
804.000000	35.846815
803.000000	36.460649
802.000000	37.049945
801.000000	37.627227
800.000000	38.211565
799.000000	38.808658
798.000000	39.415254
797.000000	40.033197
796.000000	40.661008
795.000000	41.281788
794.000000	41.876996
793.000000	42.443579
792.000000	42.984709
791.000000	43.496376
790.000000	43.978829
789.000000	44.449010
788.000000	44.925814
787.000000	45.414034
786.000000	45.914760
785.000000	46.437060
784.000000	46.983805
783.000000	47.537869
782.000000	48.076696
781.000000	48.589513
780.000000	49.068822
779.000000	49.501448
778.000000	49.883708
777.000000	50.233589
776.000000	50.574232
775.000000	50.917260
774.000000	51.272272
773.000000	51.654838
772.000000	52.070379
771.000000	52.503120
770.000000	52.933153
769.000000	53.350950
768.000000	53.744821
767.000000	54.093173
766.000000	54.385155
765.000000	54.634069
764.000000	54.859109
763.000000	55.069483
762.000000	55.277784
761.000000	55.508602
760.000000	55.777943
759.000000	56.078812
758.000000	56.398492
757.000000	56.732358
756.000000	57.068640
755.000000	57.379754
754.000000	57.645551
753.000000	57.869708
752.000000	58.062260
751.000000	58.226282
750.000000	58.374050
749.000000	58.535237
748.000000	58.732470
747.000000	58.965675
746.000000	59.230853
745.000000	59.531983
744.000000	59.859254
743.000000	60.178176
742.000000	60.457841
741.000000	60.692375
740.000000	60.882455
739.000000	61.020336
738.000000	61.110437
737.000000	61.181715
736.000000	61.261812
735.000000	61.356813
734.000000	61.469416
733.000000	61.611656
732.000000	61.782276
731.000000	61.953493
730.000000	62.097919
729.000000	62.208007
728.000000	62.278462
727.000000	62.295949
726.000000	62.263252
725.000000	62.213391
724.000000	62.182236
723.000000	62.185736
722.000000	62.236296
721.000000	62.355899
720.000000	62.552604
719.000000	62.805429
718.000000	63.089987
717.000000	63.397169
716.000000	63.711843
715.000000	64.001977
714.000000	64.249584
713.000000	64.468443
712.000000	64.675045
711.000000	64.868203
710.000000	65.054914
709.000000	65.264906
708.000000	65.518653
707.000000	65.806511
706.000000	66.113729
705.000000	66.439559
704.000000	66.773260
703.000000	67.078239
702.000000	67.326314
701.000000	67.523504
700.000000	67.682271
699.000000	67.802820
698.000000	67.898398
697.000000	68.008008
696.000000	68.158973
695.000000	68.341131
694.000000	68.542176
693.000000	68.772376
692.000000	69.027727
691.000000	69.271267
690.000000	69.476837
689.000000	69.658963
688.000000	69.830983
687.000000	69.970375
686.000000	70.065531
685.000000	70.151645
684.000000	70.262634
683.000000	70.391521
682.000000	70.531961
681.000000	70.710411
680.000000	70.936796
679.000000	71.171163
678.000000	71.382215
677.000000	71.579382
676.000000	71.763490
675.000000	71.912723
674.000000	72.026816
673.000000	72.145219
672.000000	72.300444
671.000000	72.488698
670.000000	72.706013
669.000000	72.959487
668.000000	73.163669
667.000000	73.253188
666.000000	73.332592
665.000000	73.439697
664.000000	73.558384
663.000000	73.687453
662.000000	73.821407
661.000000	73.953096
660.000000	74.077972
659.000000	74.197768
658.000000	74.321455
657.000000	74.453167
656.000000	74.588953
655.000000	74.736737
654.000000	74.904786
653.000000	75.083340
652.000000	75.259599
651.000000	75.431847
650.000000	75.599716
649.000000	75.751649
648.000000	75.876222
647.000000	75.977325
646.000000	76.068494
645.000000	76.161786
644.000000	76.262274
643.000000	76.369675
642.000000	76.486460
641.000000	76.616804
640.000000	76.758595
639.000000	76.902889
638.000000	77.040787
637.000000	77.170487
636.000000	77.297492
635.000000	77.426699
634.000000	77.559051
633.000000	77.692316
632.000000	77.820935
631.000000	77.940733
630.000000	78.054994
629.000000	78.169372
628.000000	78.283285
627.000000	78.395516
626.000000	78.513794
625.000000	78.648749
624.000000	78.793109
623.000000	78.923904
622.000000	79.031896
621.000000	79.129664
620.000000	79.225316
619.000000	79.310009
618.000000	79.380694
617.000000	79.454677
616.000000	79.546941
615.000000	79.650384
614.000000	79.748971
613.000000	79.833517
612.000000	79.892399
611.000000	79.905506
610.000000	79.857484
609.000000	79.737141
608.000000	79.516742
607.000000	79.140957
606.000000	78.544145
605.000000	77.645062
604.000000	76.299372
603.000000	74.283362
602.000000	71.316331
601.000000	67.161197
600.000000	61.803355
599.000000	55.659789
598.000000	49.601834
597.000000	44.667576
596.000000	41.664691
595.000000	40.896930
594.000000	42.106080
593.000000	44.651380
592.000000	47.850150
591.000000	51.174016
590.000000	54.288783
589.000000	57.065293
588.000000	59.511418
587.000000	61.677299
586.000000	63.599141
585.000000	65.303159
584.000000	66.809165
583.000000	68.138322
582.000000	69.325677
581.000000	70.416409
580.000000	71.427554
579.000000	72.325753
578.000000	73.084908
577.000000	73.731011
576.000000	74.305772
575.000000	74.813762
574.000000	75.235819
573.000000	75.578930
572.000000	75.872490
571.000000	76.141957
570.000000	76.414435
569.000000	76.721498
568.000000	77.070113
567.000000	77.428255
566.000000	77.760580
565.000000	78.060928
564.000000	78.327412
563.000000	78.539876
562.000000	78.687599
561.000000	78.792155
560.000000	78.880375
559.000000	78.960413
558.000000	79.045752
557.000000	79.169363
556.000000	79.350354
555.000000	79.570144
554.000000	79.801638
553.000000	80.033702
552.000000	80.249473
551.000000	80.413784
550.000000	80.509777
549.000000	80.558189
548.000000	80.581404
547.000000	80.585270
546.000000	80.592296
545.000000	80.649511
544.000000	80.779200
543.000000	80.959892
542.000000	81.169081
541.000000	81.406500
540.000000	81.654770
539.000000	81.862167
538.000000	81.992570
537.000000	82.058185
536.000000	82.078715
535.000000	82.050864
534.000000	81.985711
533.000000	81.933763
532.000000	81.940984
531.000000	82.012163
530.000000	82.136311
529.000000	82.306310
528.000000	82.494332
527.000000	82.651647
526.000000	82.755734
525.000000	82.808579
524.000000	82.776756
523.000000	82.587486
522.000000	82.208449
521.000000	81.681952
520.000000	81.065951
519.000000	80.391477
518.000000	79.705330
517.000000	79.102103
516.000000	78.664568
515.000000	78.408941
514.000000	78.311583
513.000000	78.343337
512.000000	78.441884
511.000000	78.497451
510.000000	78.407926
509.000000	78.123862
508.000000	77.611282
507.000000	76.829176
506.000000	75.765778
505.000000	74.444726
504.000000	72.895382
503.000000	71.209630
502.000000	69.646102
501.000000	68.542972
500.000000	68.081829
499.000000	68.216559
498.000000	68.805363
497.000000	69.685720
496.000000	70.660943
495.000000	71.533160
494.000000	72.198605
493.000000	72.699351
492.000000	73.147494
491.000000	73.633117
490.000000	74.205053
489.000000	74.878114
488.000000	75.611429
487.000000	76.323330
486.000000	76.964188
485.000000	77.549608
484.000000	78.103855
483.000000	78.621247
482.000000	79.115138
481.000000	79.634955
480.000000	80.195287
479.000000	80.749947
478.000000	81.262292
477.000000	81.738867
476.000000	82.156372
475.000000	82.425400
474.000000	82.497910
473.000000	82.457042
472.000000	82.413865
471.000000	82.376681
470.000000	82.326654
469.000000	82.320121
468.000000	82.429447
467.000000	82.644973
466.000000	82.888224
465.000000	83.097884
464.000000	83.231996
463.000000	83.246373
462.000000	83.145802
461.000000	82.993560
460.000000	82.812733
459.000000	82.562995
458.000000	82.285488
457.000000	82.133510
456.000000	82.158832
455.000000	82.248862
454.000000	82.310448
453.000000	82.371153
452.000000	82.462610
451.000000	82.484306
450.000000	82.289120
449.000000	81.833761
448.000000	81.161464
447.000000	80.299740
446.000000	79.252890
445.000000	78.027553
444.000000	76.594391
443.000000	74.878083
442.000000	72.830431
441.000000	70.490255
440.000000	67.936667
439.000000	65.254646
438.000000	62.589147
437.000000	60.229167
436.000000	58.545751
435.000000	57.789241
434.000000	57.955448
433.000000	58.890901
432.000000	60.458409
431.000000	62.483972
430.000000	64.723397
429.000000	66.982970
428.000000	69.150498
427.000000	71.107507
426.000000	72.763261
425.000000	74.163357
424.000000	75.388069
423.000000	76.400830
422.000000	77.139238
421.000000	77.681202
420.000000	78.186215
419.000000	78.856261
418.000000	79.764215
417.000000	80.742306
416.000000	81.618550
415.000000	82.252612
414.000000	82.599036
413.000000	82.804031
412.000000	82.993635
411.000000	83.080986
410.000000	83.004558
409.000000	82.955726
408.000000	83.117821
407.000000	83.385986
406.000000	83.616472
405.000000	83.881700
404.000000	84.234491
403.000000	84.431311
402.000000	84.210098
401.000000	83.651640
400.000000	82.980325
