PE IR       SUBTECH     SPECTRUM    ASCII       PEDS        4.00        
   -1
23ms085_nitrito.asc
24/09/05
16:53:32.00
24/09/05
16:53:32.00
Administrator
Sample 1113 By Administrator Date Thursday, September 05 2024
400.000000
#HDR
-1
-1
#GR
cm-1
%T
1.0
0.0
4000.000000
-1.000000
3601
8
80.877620
4.124579
#DATA
4000.000000	63.166793
3999.000000	63.220239
3998.000000	63.272880
3997.000000	63.325587
3996.000000	63.379274
3995.000000	63.434070
3994.000000	63.489479
3993.000000	63.545455
3992.000000	63.602860
3991.000000	63.662312
3990.000000	63.722733
3989.000000	63.782002
3988.000000	63.839165
3987.000000	63.895246
3986.000000	63.951876
3985.000000	64.009553
3984.000000	64.067454
3983.000000	64.124245
3982.000000	64.178733
3981.000000	64.230277
3980.000000	64.279075
3979.000000	64.326545
3978.000000	64.374959
3977.000000	64.425860
3976.000000	64.478882
3975.000000	64.532136
3974.000000	64.584046
3973.000000	64.634699
3972.000000	64.685366
3971.000000	64.737364
3970.000000	64.790826
3969.000000	64.844460
3968.000000	64.896580
3967.000000	64.946205
3966.000000	64.993548
3965.000000	65.039993
3964.000000	65.087380
3963.000000	65.136500
3962.000000	65.186582
3961.000000	65.235898
3960.000000	65.283686
3959.000000	65.331809
3958.000000	65.382829
3957.000000	65.437210
3956.000000	65.493082
3955.000000	65.548233
3954.000000	65.601723
3953.000000	65.653421
3952.000000	65.703355
3951.000000	65.751748
3950.000000	65.798582
3949.000000	65.843246
3948.000000	65.885203
3947.000000	65.925235
3946.000000	65.966556
3945.000000	66.014587
3944.000000	66.073230
3943.000000	66.138777
3942.000000	66.201691
3941.000000	66.256162
3940.000000	66.305360
3939.000000	66.357113
3938.000000	66.413889
3937.000000	66.470053
3936.000000	66.520062
3935.000000	66.566073
3934.000000	66.616487
3933.000000	66.675231
3932.000000	66.736882
3931.000000	66.793039
3930.000000	66.840661
3929.000000	66.885202
3928.000000	66.934414
3927.000000	66.993104
3926.000000	67.061245
3925.000000	67.131742
3924.000000	67.193737
3923.000000	67.241760
3922.000000	67.280280
3921.000000	67.319007
3920.000000	67.364006
3919.000000	67.414758
3918.000000	67.468266
3917.000000	67.522173
3916.000000	67.574351
3915.000000	67.622565
3914.000000	67.668892
3913.000000	67.719123
3912.000000	67.775562
3911.000000	67.835173
3910.000000	67.892871
3909.000000	67.947380
3908.000000	68.002108
3907.000000	68.058776
3906.000000	68.115144
3905.000000	68.166231
3904.000000	68.208509
3903.000000	68.245166
3902.000000	68.284694
3901.000000	68.335543
3900.000000	68.398988
3899.000000	68.464273
3898.000000	68.519098
3897.000000	68.562571
3896.000000	68.603977
3895.000000	68.654059
3894.000000	68.716155
3893.000000	68.785576
3892.000000	68.852947
3891.000000	68.909603
3890.000000	68.950979
3889.000000	68.978991
3888.000000	69.007418
3887.000000	69.056699
3886.000000	69.130163
3885.000000	69.204223
3884.000000	69.255678
3883.000000	69.290010
3882.000000	69.331959
3881.000000	69.393889
3880.000000	69.461274
3879.000000	69.513273
3878.000000	69.547991
3877.000000	69.582059
3876.000000	69.634272
3875.000000	69.707560
3874.000000	69.782151
3873.000000	69.834028
3872.000000	69.863980
3871.000000	69.898414
3870.000000	69.954720
3869.000000	70.018148
3868.000000	70.064269
3867.000000	70.094483
3866.000000	70.135551
3865.000000	70.201093
3864.000000	70.272854
3863.000000	70.328829
3862.000000	70.369373
3861.000000	70.410188
3860.000000	70.462463
3859.000000	70.527991
3858.000000	70.603622
3857.000000	70.681477
3856.000000	70.751859
3855.000000	70.810133
3854.000000	70.861720
3853.000000	70.913273
3852.000000	70.961812
3851.000000	71.001972
3850.000000	71.037752
3849.000000	71.079206
3848.000000	71.127625
3847.000000	71.179492
3846.000000	71.233886
3845.000000	71.290842
3844.000000	71.349221
3843.000000	71.406372
3842.000000	71.458800
3841.000000	71.508718
3840.000000	71.560714
3839.000000	71.615761
3838.000000	71.673004
3837.000000	71.731381
3836.000000	71.789687
3835.000000	71.845459
3834.000000	71.897576
3833.000000	71.949181
3832.000000	72.002965
3831.000000	72.057616
3830.000000	72.111585
3829.000000	72.165279
3828.000000	72.221340
3827.000000	72.282548
3826.000000	72.343455
3825.000000	72.393479
3824.000000	72.430892
3823.000000	72.472329
3822.000000	72.538327
3821.000000	72.622543
3820.000000	72.695609
3819.000000	72.743238
3818.000000	72.780871
3817.000000	72.834567
3816.000000	72.909512
3815.000000	72.983330
3814.000000	73.038099
3813.000000	73.079663
3812.000000	73.123467
3811.000000	73.175655
3810.000000	73.229242
3809.000000	73.276014
3808.000000	73.320910
3807.000000	73.374717
3806.000000	73.435477
3805.000000	73.492582
3804.000000	73.543847
3803.000000	73.605313
3802.000000	73.685911
3801.000000	73.766679
3800.000000	73.826377
3799.000000	73.868497
3798.000000	73.912703
3797.000000	73.970300
3796.000000	74.033371
3795.000000	74.087852
3794.000000	74.132550
3793.000000	74.177364
3792.000000	74.229353
3791.000000	74.287153
3790.000000	74.345306
3789.000000	74.400655
3788.000000	74.455045
3787.000000	74.512195
3786.000000	74.573986
3785.000000	74.638479
3784.000000	74.700558
3783.000000	74.756815
3782.000000	74.810301
3781.000000	74.868407
3780.000000	74.933986
3779.000000	75.000722
3778.000000	75.059331
3777.000000	75.107669
3776.000000	75.152329
3775.000000	75.201753
3774.000000	75.257138
3773.000000	75.312196
3772.000000	75.364981
3771.000000	75.422960
3770.000000	75.489507
3769.000000	75.556238
3768.000000	75.615681
3767.000000	75.672627
3766.000000	75.737413
3765.000000	75.808294
3764.000000	75.871882
3763.000000	75.921176
3762.000000	75.965110
3761.000000	76.018211
3760.000000	76.080296
3759.000000	76.140407
3758.000000	76.195571
3757.000000	76.251491
3756.000000	76.310781
3755.000000	76.370535
3754.000000	76.431695
3753.000000	76.499212
3752.000000	76.569834
3751.000000	76.634892
3750.000000	76.697810
3749.000000	76.768360
3748.000000	76.839592
3747.000000	76.897481
3746.000000	76.945566
3745.000000	76.999654
3744.000000	77.061935
3743.000000	77.120904
3742.000000	77.171272
3741.000000	77.221639
3740.000000	77.279373
3739.000000	77.339439
3738.000000	77.396988
3737.000000	77.459779
3736.000000	77.537857
3735.000000	77.618186
3734.000000	77.680650
3733.000000	77.729111
3732.000000	77.779661
3731.000000	77.836795
3730.000000	77.891582
3729.000000	77.938633
3728.000000	77.986918
3727.000000	78.046764
3726.000000	78.114752
3725.000000	78.179913
3724.000000	78.242578
3723.000000	78.311168
3722.000000	78.386278
3721.000000	78.462086
3720.000000	78.532362
3719.000000	78.596462
3718.000000	78.658175
3717.000000	78.718643
3716.000000	78.775648
3715.000000	78.827389
3714.000000	78.877362
3713.000000	78.931311
3712.000000	78.989409
3711.000000	79.048204
3710.000000	79.108237
3709.000000	79.172636
3708.000000	79.241378
3707.000000	79.311099
3706.000000	79.377522
3705.000000	79.437490
3704.000000	79.490975
3703.000000	79.541014
3702.000000	79.589846
3701.000000	79.638069
3700.000000	79.684956
3699.000000	79.730551
3698.000000	79.779333
3697.000000	79.835464
3696.000000	79.895250
3695.000000	79.951583
3694.000000	80.004591
3693.000000	80.062212
3692.000000	80.127701
3691.000000	80.192835
3690.000000	80.247472
3689.000000	80.294511
3688.000000	80.345741
3687.000000	80.400747
3686.000000	80.448361
3685.000000	80.484834
3684.000000	80.514341
3683.000000	80.540301
3682.000000	80.563976
3681.000000	80.589527
3680.000000	80.623755
3679.000000	80.660761
3678.000000	80.685450
3677.000000	80.698413
3676.000000	80.719322
3675.000000	80.759630
3674.000000	80.804717
3673.000000	80.833813
3672.000000	80.845425
3671.000000	80.856280
3670.000000	80.870633
3669.000000	80.876137
3668.000000	80.872729
3667.000000	80.871028
3666.000000	80.874017
3665.000000	80.877620
3664.000000	80.875869
3663.000000	80.868356
3662.000000	80.860327
3661.000000	80.855002
3660.000000	80.849194
3659.000000	80.832002
3658.000000	80.793772
3657.000000	80.737626
3656.000000	80.679846
3655.000000	80.634595
3654.000000	80.598695
3653.000000	80.560221
3652.000000	80.513763
3651.000000	80.455938
3650.000000	80.374581
3649.000000	80.266024
3648.000000	80.158429
3647.000000	80.081076
3646.000000	80.029476
3645.000000	79.981705
3644.000000	79.924574
3643.000000	79.857469
3642.000000	79.780272
3641.000000	79.688882
3640.000000	79.583897
3639.000000	79.474053
3638.000000	79.366617
3637.000000	79.258901
3636.000000	79.146463
3635.000000	79.034755
3634.000000	78.933083
3633.000000	78.839034
3632.000000	78.735195
3631.000000	78.604535
3630.000000	78.446814
3629.000000	78.279961
3628.000000	78.127658
3627.000000	78.005068
3626.000000	77.907547
3625.000000	77.820902
3624.000000	77.734063
3623.000000	77.637762
3622.000000	77.522758
3621.000000	77.384558
3620.000000	77.226940
3619.000000	77.062653
3618.000000	76.909212
3617.000000	76.775936
3616.000000	76.658047
3615.000000	76.545060
3614.000000	76.427690
3613.000000	76.300646
3612.000000	76.164061
3611.000000	76.021365
3610.000000	75.877361
3609.000000	75.738208
3608.000000	75.606624
3607.000000	75.480856
3606.000000	75.358195
3605.000000	75.236435
3604.000000	75.113741
3603.000000	74.986169
3602.000000	74.849738
3601.000000	74.706996
3600.000000	74.565800
3599.000000	74.431981
3598.000000	74.306185
3597.000000	74.184603
3596.000000	74.064163
3595.000000	73.944504
3594.000000	73.826071
3593.000000	73.710407
3592.000000	73.597737
3591.000000	73.483729
3590.000000	73.362771
3589.000000	73.235187
3588.000000	73.107800
3587.000000	72.988465
3586.000000	72.882173
3585.000000	72.789373
3584.000000	72.705317
3583.000000	72.621908
3582.000000	72.530820
3581.000000	72.427049
3580.000000	72.311292
3579.000000	72.187776
3578.000000	72.060596
3577.000000	71.932410
3576.000000	71.804841
3575.000000	71.679330
3574.000000	71.557067
3573.000000	71.439817
3572.000000	71.329392
3571.000000	71.223040
3570.000000	71.112900
3569.000000	70.993752
3568.000000	70.868279
3567.000000	70.743009
3566.000000	70.623417
3565.000000	70.513254
3564.000000	70.412931
3563.000000	70.318423
3562.000000	70.221800
3561.000000	70.115677
3560.000000	69.998466
3559.000000	69.874371
3558.000000	69.749290
3557.000000	69.627837
3556.000000	69.512251
3555.000000	69.401386
3554.000000	69.291428
3553.000000	69.179033
3552.000000	69.064000
3551.000000	68.947015
3550.000000	68.826331
3549.000000	68.700589
3548.000000	68.572128
3547.000000	68.444527
3546.000000	68.317781
3545.000000	68.189838
3544.000000	68.061023
3543.000000	67.933520
3542.000000	67.807699
3541.000000	67.682544
3540.000000	67.558314
3539.000000	67.436250
3538.000000	67.316817
3537.000000	67.199109
3536.000000	67.081947
3535.000000	66.963961
3534.000000	66.844221
3533.000000	66.724079
3532.000000	66.606000
3531.000000	66.489777
3530.000000	66.371430
3529.000000	66.248901
3528.000000	66.126332
3527.000000	66.010079
3526.000000	65.902885
3525.000000	65.803996
3524.000000	65.711157
3523.000000	65.620029
3522.000000	65.525181
3521.000000	65.424977
3520.000000	65.323207
3519.000000	65.223275
3518.000000	65.123776
3517.000000	65.021883
3516.000000	64.918352
3515.000000	64.815650
3514.000000	64.712747
3513.000000	64.605737
3512.000000	64.492533
3511.000000	64.374123
3510.000000	64.252686
3509.000000	64.131697
3508.000000	64.015578
3507.000000	63.906170
3506.000000	63.800898
3505.000000	63.696525
3504.000000	63.592345
3503.000000	63.487765
3502.000000	63.379686
3501.000000	63.265527
3500.000000	63.146827
3499.000000	63.026545
3498.000000	62.904880
3497.000000	62.780099
3496.000000	62.652048
3495.000000	62.522314
3494.000000	62.392235
3493.000000	62.263147
3492.000000	62.137176
3491.000000	62.015076
3490.000000	61.894578
3489.000000	61.773474
3488.000000	61.652391
3487.000000	61.532132
3486.000000	61.410381
3485.000000	61.283517
3484.000000	61.150369
3483.000000	61.012261
3482.000000	60.871107
3481.000000	60.729677
3480.000000	60.591037
3479.000000	60.455253
3478.000000	60.318727
3477.000000	60.179151
3476.000000	60.038791
3475.000000	59.900621
3474.000000	59.764188
3473.000000	59.627798
3472.000000	59.492311
3471.000000	59.359363
3470.000000	59.227261
3469.000000	59.091818
3468.000000	58.949927
3467.000000	58.800302
3466.000000	58.642907
3465.000000	58.480235
3464.000000	58.317634
3463.000000	58.159718
3462.000000	58.007321
3461.000000	57.859228
3460.000000	57.714285
3459.000000	57.570229
3458.000000	57.423156
3457.000000	57.270743
3456.000000	57.114504
3455.000000	56.956361
3454.000000	56.795747
3453.000000	56.632316
3452.000000	56.468551
3451.000000	56.306851
3450.000000	56.145794
3449.000000	55.982304
3448.000000	55.815819
3447.000000	55.647724
3446.000000	55.478638
3445.000000	55.308808
3444.000000	55.139093
3443.000000	54.969124
3442.000000	54.796269
3441.000000	54.619009
3440.000000	54.439670
3439.000000	54.261512
3438.000000	54.084712
3437.000000	53.907128
3436.000000	53.727205
3435.000000	53.543361
3434.000000	53.352979
3433.000000	53.155230
3432.000000	52.952959
3431.000000	52.749565
3430.000000	52.545040
3429.000000	52.337337
3428.000000	52.125974
3427.000000	51.911763
3426.000000	51.694919
3425.000000	51.475592
3424.000000	51.254633
3423.000000	51.031813
3422.000000	50.804735
3421.000000	50.571588
3420.000000	50.333329
3419.000000	50.091280
3418.000000	49.844833
3417.000000	49.593340
3416.000000	49.338138
3415.000000	49.080631
3414.000000	48.820026
3413.000000	48.555063
3412.000000	48.285843
3411.000000	48.012482
3410.000000	47.733929
3409.000000	47.449559
3408.000000	47.159926
3407.000000	46.864300
3406.000000	46.560179
3405.000000	46.246904
3404.000000	45.927385
3403.000000	45.604790
3402.000000	45.279385
3401.000000	44.949595
3400.000000	44.613526
3399.000000	44.268440
3398.000000	43.912239
3397.000000	43.546966
3396.000000	43.177651
3395.000000	42.806483
3394.000000	42.430719
3393.000000	42.047402
3392.000000	41.656367
3391.000000	41.256997
3390.000000	40.846742
3389.000000	40.424672
3388.000000	39.993479
3387.000000	39.555904
3386.000000	39.112190
3385.000000	38.663013
3384.000000	38.210706
3383.000000	37.755947
3382.000000	37.296371
3381.000000	36.830103
3380.000000	36.357672
3379.000000	35.878864
3378.000000	35.391436
3377.000000	34.894696
3376.000000	34.390599
3375.000000	33.880110
3374.000000	33.361913
3373.000000	32.836403
3372.000000	32.307495
3371.000000	31.778146
3370.000000	31.247776
3369.000000	30.715001
3368.000000	30.179522
3367.000000	29.640236
3366.000000	29.095105
3365.000000	28.544519
3364.000000	27.991306
3363.000000	27.436681
3362.000000	26.879883
3361.000000	26.322032
3360.000000	25.766085
3359.000000	25.212158
3358.000000	24.657305
3357.000000	24.100958
3356.000000	23.545929
3355.000000	22.993395
3354.000000	22.441816
3353.000000	21.891937
3352.000000	21.348027
3351.000000	20.812674
3350.000000	20.284301
3349.000000	19.760958
3348.000000	19.242602
3347.000000	18.728557
3346.000000	18.217665
3345.000000	17.711784
3344.000000	17.214834
3343.000000	16.727617
3342.000000	16.247429
3341.000000	15.773743
3340.000000	15.309670
3339.000000	14.857108
3338.000000	14.415100
3337.000000	13.983149
3336.000000	13.562218
3335.000000	13.151731
3334.000000	12.749896
3333.000000	12.357876
3332.000000	11.978624
3331.000000	11.611786
3330.000000	11.253890
3329.000000	10.903579
3328.000000	10.563157
3327.000000	10.234275
3326.000000	9.916982
3325.000000	9.612597
3324.000000	9.322517
3323.000000	9.044831
3322.000000	8.775898
3321.000000	8.515328
3320.000000	8.265494
3319.000000	8.026180
3318.000000	7.795354
3317.000000	7.573620
3316.000000	7.363291
3315.000000	7.163595
3314.000000	6.971101
3313.000000	6.784934
3312.000000	6.606535
3311.000000	6.434963
3310.000000	6.267940
3309.000000	6.106625
3308.000000	5.955179
3307.000000	5.815672
3306.000000	5.687648
3305.000000	5.571925
3304.000000	5.468873
3303.000000	5.374439
3302.000000	5.282692
3301.000000	5.191867
3300.000000	5.103896
3299.000000	5.018970
3298.000000	4.935907
3297.000000	4.856645
3296.000000	4.784542
3295.000000	4.719231
3294.000000	4.657978
3293.000000	4.601492
3292.000000	4.553061
3291.000000	4.512125
3290.000000	4.474517
3289.000000	4.438270
3288.000000	4.404490
3287.000000	4.373130
3286.000000	4.342706
3285.000000	4.314128
3284.000000	4.289632
3283.000000	4.268527
3282.000000	4.248414
3281.000000	4.229703
3280.000000	4.214466
3279.000000	4.201571
3278.000000	4.187959
3277.000000	4.173954
3276.000000	4.162309
3275.000000	4.152831
3274.000000	4.142898
3273.000000	4.133061
3272.000000	4.127228
3271.000000	4.127306
3270.000000	4.131953
3269.000000	4.139933
3268.000000	4.150395
3267.000000	4.160654
3266.000000	4.168043
3265.000000	4.173674
3264.000000	4.180549
3263.000000	4.188697
3262.000000	4.196111
3261.000000	4.203006
3260.000000	4.210954
3259.000000	4.219169
3258.000000	4.226060
3257.000000	4.233401
3256.000000	4.244369
3255.000000	4.258514
3254.000000	4.272828
3253.000000	4.286660
3252.000000	4.301143
3251.000000	4.315112
3250.000000	4.326344
3249.000000	4.336069
3248.000000	4.347830
3247.000000	4.362495
3246.000000	4.378303
3245.000000	4.394707
3244.000000	4.412201
3243.000000	4.429408
3242.000000	4.444595
3241.000000	4.459010
3240.000000	4.474854
3239.000000	4.491006
3238.000000	4.504628
3237.000000	4.515734
3236.000000	4.526536
3235.000000	4.537808
3234.000000	4.549652
3233.000000	4.564054
3232.000000	4.582307
3231.000000	4.601416
3230.000000	4.617302
3229.000000	4.630202
3228.000000	4.642949
3227.000000	4.655738
3226.000000	4.666831
3225.000000	4.676836
3224.000000	4.687649
3223.000000	4.698501
3222.000000	4.707315
3221.000000	4.714847
3220.000000	4.723344
3219.000000	4.732287
3218.000000	4.739531
3217.000000	4.745343
3216.000000	4.751341
3215.000000	4.756791
3214.000000	4.759851
3213.000000	4.761189
3212.000000	4.762483
3211.000000	4.762831
3210.000000	4.760555
3209.000000	4.756952
3208.000000	4.754394
3207.000000	4.752195
3206.000000	4.748132
3205.000000	4.742526
3204.000000	4.736879
3203.000000	4.730246
3202.000000	4.720899
3201.000000	4.710017
3200.000000	4.699888
3199.000000	4.689864
3198.000000	4.677935
3197.000000	4.664631
3196.000000	4.651593
3195.000000	4.638034
3194.000000	4.622393
3193.000000	4.605769
3192.000000	4.590007
3191.000000	4.574140
3190.000000	4.556539
3189.000000	4.538624
3188.000000	4.522572
3187.000000	4.507192
3186.000000	4.489952
3185.000000	4.471341
3184.000000	4.453345
3183.000000	4.435490
3182.000000	4.416337
3181.000000	4.397063
3180.000000	4.379637
3179.000000	4.363160
3178.000000	4.345749
3177.000000	4.328342
3176.000000	4.312865
3175.000000	4.298459
3174.000000	4.283279
3173.000000	4.268153
3172.000000	4.254794
3171.000000	4.242325
3170.000000	4.229183
3169.000000	4.216509
3168.000000	4.206001
3167.000000	4.196367
3166.000000	4.185657
3165.000000	4.175082
3164.000000	4.166863
3163.000000	4.160344
3162.000000	4.153790
3161.000000	4.147993
3160.000000	4.144424
3159.000000	4.141830
3158.000000	4.138244
3157.000000	4.134267
3156.000000	4.131139
3155.000000	4.128012
3154.000000	4.124703
3153.000000	4.124579
3152.000000	4.130596
3151.000000	4.140737
3150.000000	4.151032
3149.000000	4.160850
3148.000000	4.171611
3147.000000	4.182823
3146.000000	4.193444
3145.000000	4.204849
3144.000000	4.218349
3143.000000	4.232003
3142.000000	4.243772
3141.000000	4.255862
3140.000000	4.272011
3139.000000	4.292356
3138.000000	4.314675
3137.000000	4.338456
3136.000000	4.363993
3135.000000	4.389588
3134.000000	4.413491
3133.000000	4.437052
3132.000000	4.462507
3131.000000	4.489647
3130.000000	4.517769
3129.000000	4.548364
3128.000000	4.582482
3127.000000	4.617717
3126.000000	4.651304
3125.000000	4.683863
3124.000000	4.716804
3123.000000	4.748903
3122.000000	4.779149
3121.000000	4.810290
3120.000000	4.845598
3119.000000	4.884366
3118.000000	4.924513
3117.000000	4.967178
3116.000000	5.014694
3115.000000	5.066063
3114.000000	5.118112
3113.000000	5.169360
3112.000000	5.219478
3111.000000	5.267446
3110.000000	5.313815
3109.000000	5.362428
3108.000000	5.416183
3107.000000	5.473026
3106.000000	5.529255
3105.000000	5.584401
3104.000000	5.639636
3103.000000	5.694309
3102.000000	5.747981
3101.000000	5.803385
3100.000000	5.863440
3099.000000	5.927029
3098.000000	5.991264
3097.000000	6.055738
3096.000000	6.121118
3095.000000	6.185990
3094.000000	6.248826
3093.000000	6.311188
3092.000000	6.375633
3091.000000	6.442188
3090.000000	6.509814
3089.000000	6.579005
3088.000000	6.649922
3087.000000	6.720522
3086.000000	6.789789
3085.000000	6.860452
3084.000000	6.935061
3083.000000	7.011783
3082.000000	7.087553
3081.000000	7.162990
3080.000000	7.240863
3079.000000	7.321877
3078.000000	7.405349
3077.000000	7.491655
3076.000000	7.580419
3075.000000	7.668500
3074.000000	7.753304
3073.000000	7.836155
3072.000000	7.919398
3071.000000	8.002481
3070.000000	8.084328
3069.000000	8.167239
3068.000000	8.254598
3067.000000	8.346480
3066.000000	8.440673
3065.000000	8.536314
3064.000000	8.633251
3063.000000	8.729729
3062.000000	8.824086
3061.000000	8.917212
3060.000000	9.010587
3059.000000	9.103674
3058.000000	9.195876
3057.000000	9.289008
3056.000000	9.384840
3055.000000	9.482083
3054.000000	9.578757
3053.000000	9.675747
3052.000000	9.775243
3051.000000	9.877318
3050.000000	9.980486
3049.000000	10.083834
3048.000000	10.186266
3047.000000	10.285829
3046.000000	10.382304
3045.000000	10.478546
3044.000000	10.577124
3043.000000	10.677750
3042.000000	10.779902
3041.000000	10.884952
3040.000000	10.992999
3039.000000	11.100470
3038.000000	11.204074
3037.000000	11.305002
3036.000000	11.406619
3035.000000	11.510192
3034.000000	11.615456
3033.000000	11.722809
3032.000000	11.831971
3031.000000	11.940625
3030.000000	12.047132
3029.000000	12.152495
3028.000000	12.257505
3027.000000	12.360688
3026.000000	12.461677
3025.000000	12.563626
3024.000000	12.669082
3023.000000	12.776008
3022.000000	12.881058
3021.000000	12.984465
3020.000000	13.088477
3019.000000	13.193173
3018.000000	13.297128
3017.000000	13.400406
3016.000000	13.503847
3015.000000	13.607084
3014.000000	13.710124
3013.000000	13.815161
3012.000000	13.924006
3011.000000	14.035306
3010.000000	14.146580
3009.000000	14.257228
3008.000000	14.367323
3007.000000	14.475747
3006.000000	14.582109
3005.000000	14.688510
3004.000000	14.796813
3003.000000	14.905751
3002.000000	15.013008
3001.000000	15.118374
3000.000000	15.222889
2999.000000	15.326935
2998.000000	15.431112
2997.000000	15.536687
2996.000000	15.643114
2995.000000	15.747682
2994.000000	15.849966
2993.000000	15.953999
2992.000000	16.063334
2991.000000	16.176387
2990.000000	16.289268
2989.000000	16.400757
2988.000000	16.511514
2987.000000	16.620791
2986.000000	16.727265
2985.000000	16.831524
2984.000000	16.934905
2983.000000	17.037412
2982.000000	17.139302
2981.000000	17.242898
2980.000000	17.350053
2979.000000	17.459323
2978.000000	17.568142
2977.000000	17.676304
2976.000000	17.785096
2975.000000	17.894747
2974.000000	18.005024
2973.000000	18.116483
2972.000000	18.228803
2971.000000	18.339668
2970.000000	18.447639
2969.000000	18.554381
2968.000000	18.661793
2967.000000	18.768998
2966.000000	18.874490
2965.000000	18.979236
2964.000000	19.085033
2963.000000	19.191723
2962.000000	19.298616
2961.000000	19.406617
2960.000000	19.516343
2959.000000	19.626029
2958.000000	19.733760
2957.000000	19.839906
2956.000000	19.945188
2955.000000	20.048730
2954.000000	20.150432
2953.000000	20.252642
2952.000000	20.356578
2951.000000	20.459364
2950.000000	20.557712
2949.000000	20.652586
2948.000000	20.747513
2947.000000	20.844303
2946.000000	20.943213
2945.000000	21.045304
2944.000000	21.151247
2943.000000	21.259033
2942.000000	21.365708
2941.000000	21.470463
2940.000000	21.573768
2939.000000	21.675039
2938.000000	21.773648
2937.000000	21.870833
2936.000000	21.968103
2935.000000	22.064956
2934.000000	22.160459
2933.000000	22.255740
2932.000000	22.352728
2931.000000	22.451816
2930.000000	22.552741
2929.000000	22.656038
2928.000000	22.761378
2927.000000	22.866315
2926.000000	22.968991
2925.000000	23.070289
2924.000000	23.171201
2923.000000	23.270151
2922.000000	23.365439
2921.000000	23.458269
2920.000000	23.550770
2919.000000	23.642872
2918.000000	23.733563
2917.000000	23.823537
2916.000000	23.914022
2915.000000	24.004476
2914.000000	24.093768
2913.000000	24.182284
2912.000000	24.270858
2911.000000	24.358896
2910.000000	24.445508
2909.000000	24.531174
2908.000000	24.616497
2907.000000	24.700732
2906.000000	24.783232
2905.000000	24.864888
2904.000000	24.946516
2903.000000	25.027208
2902.000000	25.106607
2901.000000	25.186496
2900.000000	25.268949
2899.000000	25.354121
2898.000000	25.441186
2897.000000	25.529914
2896.000000	25.619283
2895.000000	25.706437
2894.000000	25.789171
2893.000000	25.868261
2892.000000	25.945512
2891.000000	26.021004
2890.000000	26.094074
2889.000000	26.165397
2888.000000	26.236057
2887.000000	26.305815
2886.000000	26.374242
2885.000000	26.442334
2884.000000	26.511141
2883.000000	26.580013
2882.000000	26.647857
2881.000000	26.714836
2880.000000	26.781067
2879.000000	26.845066
2878.000000	26.905521
2877.000000	26.963519
2876.000000	27.021224
2875.000000	27.079259
2874.000000	27.137043
2873.000000	27.194582
2872.000000	27.252393
2871.000000	27.310982
2870.000000	27.371941
2869.000000	27.438336
2868.000000	27.512244
2867.000000	27.592948
2866.000000	27.678860
2865.000000	27.769638
2864.000000	27.864988
2863.000000	27.963209
2862.000000	28.062785
2861.000000	28.163931
2860.000000	28.266810
2859.000000	28.369768
2858.000000	28.471301
2857.000000	28.572305
2856.000000	28.674450
2855.000000	28.777713
2854.000000	28.881283
2853.000000	28.985405
2852.000000	29.090397
2851.000000	29.195159
2850.000000	29.298507
2849.000000	29.400755
2848.000000	29.502316
2847.000000	29.602085
2846.000000	29.698902
2845.000000	29.793325
2844.000000	29.886245
2843.000000	29.977133
2842.000000	30.065457
2841.000000	30.152464
2840.000000	30.239556
2839.000000	30.326026
2838.000000	30.410395
2837.000000	30.493110
2836.000000	30.576043
2835.000000	30.660148
2834.000000	30.745310
2833.000000	30.831663
2832.000000	30.919174
2831.000000	31.006533
2830.000000	31.092088
2829.000000	31.175419
2828.000000	31.256661
2827.000000	31.335185
2826.000000	31.410475
2825.000000	31.483583
2824.000000	31.556221
2823.000000	31.629075
2822.000000	31.702376
2821.000000	31.777261
2820.000000	31.854936
2819.000000	31.935087
2818.000000	32.016502
2817.000000	32.098584
2816.000000	32.180904
2815.000000	32.262087
2814.000000	32.340676
2813.000000	32.416539
2812.000000	32.490196
2811.000000	32.561546
2810.000000	32.630663
2809.000000	32.699105
2808.000000	32.768903
2807.000000	32.840789
2806.000000	32.914583
2805.000000	32.990499
2804.000000	33.068583
2803.000000	33.147575
2802.000000	33.225863
2801.000000	33.303027
2800.000000	33.379172
2799.000000	33.453396
2798.000000	33.524335
2797.000000	33.591840
2796.000000	33.656945
2795.000000	33.720754
2794.000000	33.784506
2793.000000	33.849972
2792.000000	33.918351
2791.000000	33.989121
2790.000000	34.061002
2789.000000	34.133328
2788.000000	34.205465
2787.000000	34.275911
2786.000000	34.343395
2785.000000	34.408196
2784.000000	34.471182
2783.000000	34.532331
2782.000000	34.591506
2781.000000	34.649813
2780.000000	34.708663
2779.000000	34.768179
2778.000000	34.827987
2777.000000	34.888721
2776.000000	34.951092
2775.000000	35.014044
2774.000000	35.075484
2773.000000	35.134500
2772.000000	35.191444
2771.000000	35.246374
2770.000000	35.299060
2769.000000	35.350217
2768.000000	35.401241
2767.000000	35.452849
2766.000000	35.505166
2765.000000	35.558743
2764.000000	35.614072
2763.000000	35.670416
2762.000000	35.726413
2761.000000	35.781566
2760.000000	35.835952
2759.000000	35.888998
2758.000000	35.939944
2757.000000	35.989162
2756.000000	36.037672
2755.000000	36.085612
2754.000000	36.132493
2753.000000	36.178648
2752.000000	36.225059
2751.000000	36.271937
2750.000000	36.318734
2749.000000	36.365236
2748.000000	36.411422
2747.000000	36.456509
2746.000000	36.499521
2745.000000	36.540721
2744.000000	36.581292
2743.000000	36.621880
2742.000000	36.662616
2741.000000	36.704220
2740.000000	36.747690
2739.000000	36.792907
2738.000000	36.838706
2737.000000	36.884222
2736.000000	36.929096
2735.000000	36.972635
2734.000000	37.013992
2733.000000	37.053166
2732.000000	37.090771
2731.000000	37.127106
2730.000000	37.162563
2729.000000	37.198692
2728.000000	37.237489
2727.000000	37.279556
2726.000000	37.323902
2725.000000	37.369404
2724.000000	37.415415
2723.000000	37.461073
2722.000000	37.505094
2721.000000	37.546385
2720.000000	37.584212
2719.000000	37.618081
2718.000000	37.648410
2717.000000	37.677041
2716.000000	37.706063
2715.000000	37.736413
2714.000000	37.768381
2713.000000	37.802867
2712.000000	37.840878
2711.000000	37.882043
2710.000000	37.924723
2709.000000	37.967291
2708.000000	38.008249
2707.000000	38.045548
2706.000000	38.077265
2705.000000	38.103139
2704.000000	38.124421
2703.000000	38.142416
2702.000000	38.158257
2701.000000	38.173695
2700.000000	38.190827
2699.000000	38.210805
2698.000000	38.233557
2697.000000	38.258584
2696.000000	38.285000
2695.000000	38.311085
2694.000000	38.334913
2693.000000	38.355437
2692.000000	38.372238
2691.000000	38.384580
2690.000000	38.391895
2689.000000	38.394965
2688.000000	38.395549
2687.000000	38.395161
2686.000000	38.395024
2685.000000	38.396735
2684.000000	38.401623
2683.000000	38.409402
2682.000000	38.418577
2681.000000	38.427933
2680.000000	38.436659
2679.000000	38.443476
2678.000000	38.447053
2677.000000	38.447358
2676.000000	38.445624
2675.000000	38.443150
2674.000000	38.441091
2673.000000	38.441072
2672.000000	38.444677
2671.000000	38.452456
2670.000000	38.464338
2669.000000	38.480740
2668.000000	38.502342
2667.000000	38.528905
2666.000000	38.559601
2665.000000	38.594272
2664.000000	38.633111
2663.000000	38.675663
2662.000000	38.721101
2661.000000	38.769477
2660.000000	38.821583
2659.000000	38.877418
2658.000000	38.936003
2657.000000	38.996399
2656.000000	39.057932
2655.000000	39.119632
2654.000000	39.180410
2653.000000	39.239915
2652.000000	39.298325
2651.000000	39.355462
2650.000000	39.411108
2649.000000	39.466022
2648.000000	39.521678
2647.000000	39.578999
2646.000000	39.638088
2645.000000	39.698840
2644.000000	39.760756
2643.000000	39.822270
2642.000000	39.881318
2641.000000	39.936592
2640.000000	39.987438
2639.000000	40.033096
2638.000000	40.073134
2637.000000	40.108610
2636.000000	40.141714
2635.000000	40.174130
2634.000000	40.206783
2633.000000	40.240836
2632.000000	40.277593
2631.000000	40.317317
2630.000000	40.359045
2629.000000	40.401545
2628.000000	40.443354
2627.000000	40.482062
2626.000000	40.515059
2625.000000	40.541374
2624.000000	40.562147
2623.000000	40.579221
2622.000000	40.594204
2621.000000	40.608862
2620.000000	40.624982
2619.000000	40.643541
2618.000000	40.664800
2617.000000	40.689094
2616.000000	40.716491
2615.000000	40.745566
2614.000000	40.773675
2613.000000	40.798663
2612.000000	40.819452
2611.000000	40.835184
2610.000000	40.845012
2609.000000	40.849171
2608.000000	40.849231
2607.000000	40.846761
2606.000000	40.842706
2605.000000	40.837911
2604.000000	40.833238
2603.000000	40.828929
2602.000000	40.824484
2601.000000	40.819475
2600.000000	40.813561
2599.000000	40.805837
2598.000000	40.795297
2597.000000	40.782180
2596.000000	40.768165
2595.000000	40.755350
2594.000000	40.745935
2593.000000	40.742590
2592.000000	40.748068
2591.000000	40.763871
2590.000000	40.790228
2589.000000	40.827238
2588.000000	40.874586
2587.000000	40.930832
2586.000000	40.993681
2585.000000	41.061387
2584.000000	41.133245
2583.000000	41.208348
2582.000000	41.285579
2581.000000	41.364602
2580.000000	41.445918
2579.000000	41.529785
2578.000000	41.615690
2577.000000	41.703301
2576.000000	41.792751
2575.000000	41.883778
2574.000000	41.975630
2573.000000	42.067999
2572.000000	42.161368
2571.000000	42.256035
2570.000000	42.351611
2569.000000	42.447899
2568.000000	42.545359
2567.000000	42.644544
2566.000000	42.745741
2565.000000	42.849314
2564.000000	42.955539
2563.000000	43.063597
2562.000000	43.171580
2561.000000	43.277838
2560.000000	43.381558
2559.000000	43.481795
2558.000000	43.577154
2557.000000	43.667023
2556.000000	43.752402
2555.000000	43.835004
2554.000000	43.916085
2553.000000	43.996755
2552.000000	44.078285
2551.000000	44.161182
2550.000000	44.244593
2549.000000	44.327084
2548.000000	44.407641
2547.000000	44.485428
2546.000000	44.559329
2545.000000	44.628542
2544.000000	44.692857
2543.000000	44.752154
2542.000000	44.806335
2541.000000	44.856183
2540.000000	44.903657
2539.000000	44.950323
2538.000000	44.996305
2537.000000	45.041022
2536.000000	45.083687
2535.000000	45.122761
2534.000000	45.155497
2533.000000	45.179241
2532.000000	45.192584
2531.000000	45.194445
2530.000000	45.183852
2529.000000	45.161119
2528.000000	45.128829
2527.000000	45.090861
2526.000000	45.050751
2525.000000	45.012051
2524.000000	44.978822
2523.000000	44.954621
2522.000000	44.941341
2521.000000	44.939718
2520.000000	44.949838
2519.000000	44.970796
2518.000000	45.000708
2517.000000	45.037659
2516.000000	45.080906
2515.000000	45.130076
2514.000000	45.184560
2513.000000	45.244400
2512.000000	45.310397
2511.000000	45.383104
2510.000000	45.461712
2509.000000	45.544768
2508.000000	45.631200
2507.000000	45.719522
2506.000000	45.807228
2505.000000	45.891807
2504.000000	45.971968
2503.000000	46.047106
2502.000000	46.116411
2501.000000	46.179439
2500.000000	46.237156
2499.000000	46.291462
2498.000000	46.343950
2497.000000	46.396029
2496.000000	46.449171
2495.000000	46.504079
2494.000000	46.560085
2493.000000	46.616031
2492.000000	46.671303
2491.000000	46.725102
2490.000000	46.775674
2489.000000	46.821396
2488.000000	46.862043
2487.000000	46.898339
2486.000000	46.930806
2485.000000	46.960058
2484.000000	46.987513
2483.000000	47.014514
2482.000000	47.041493
2481.000000	47.068681
2480.000000	47.096930
2479.000000	47.126873
2478.000000	47.157916
2477.000000	47.189089
2476.000000	47.220168
2475.000000	47.251043
2474.000000	47.280852
2473.000000	47.308802
2472.000000	47.335123
2471.000000	47.360121
2470.000000	47.383055
2469.000000	47.403226
2468.000000	47.421337
2467.000000	47.438684
2466.000000	47.455638
2465.000000	47.472090
2464.000000	47.488769
2463.000000	47.506833
2462.000000	47.526727
2461.000000	47.548532
2460.000000	47.572795
2459.000000	47.599811
2458.000000	47.628622
2457.000000	47.657718
2456.000000	47.686157
2455.000000	47.713075
2454.000000	47.736943
2453.000000	47.756586
2452.000000	47.772379
2451.000000	47.785431
2450.000000	47.796258
2449.000000	47.805536
2448.000000	47.815352
2447.000000	47.828399
2446.000000	47.846307
2445.000000	47.869645
2444.000000	47.898566
2443.000000	47.932241
2442.000000	47.968297
2441.000000	48.004079
2440.000000	48.038083
2439.000000	48.069212
2438.000000	48.095606
2437.000000	48.115569
2436.000000	48.129183
2435.000000	48.137766
2434.000000	48.142617
2433.000000	48.145380
2432.000000	48.148737
2431.000000	48.155356
2430.000000	48.166782
2429.000000	48.184483
2428.000000	48.210980
2427.000000	48.248229
2426.000000	48.294933
2425.000000	48.346814
2424.000000	48.398867
2423.000000	48.446595
2422.000000	48.486302
2421.000000	48.516216
2420.000000	48.537471
2419.000000	48.552890
2418.000000	48.565265
2417.000000	48.577639
2416.000000	48.594073
2415.000000	48.618155
2414.000000	48.650920
2413.000000	48.691255
2412.000000	48.737671
2411.000000	48.788236
2410.000000	48.839637
2409.000000	48.888140
2408.000000	48.931445
2407.000000	48.968650
2406.000000	48.999096
2405.000000	49.022730
2404.000000	49.041211
2403.000000	49.057335
2402.000000	49.073622
2401.000000	49.092500
2400.000000	49.116937
2399.000000	49.149367
2398.000000	49.190204
2397.000000	49.238437
2396.000000	49.292742
2395.000000	49.350908
2394.000000	49.409242
2393.000000	49.464159
2392.000000	49.514208
2391.000000	49.559345
2390.000000	49.599204
2389.000000	49.633581
2388.000000	49.663903
2387.000000	49.692538
2386.000000	49.721306
2385.000000	49.751960
2384.000000	49.787107
2383.000000	49.828903
2382.000000	49.877304
2381.000000	49.931086
2380.000000	49.989848
2379.000000	50.053519
2378.000000	50.120679
2377.000000	50.189227
2376.000000	50.258342
2375.000000	50.327957
2374.000000	50.396563
2373.000000	50.461900
2372.000000	50.523153
2371.000000	50.581023
2370.000000	50.636285
2369.000000	50.690097
2368.000000	50.745342
2367.000000	50.805513
2366.000000	50.871806
2365.000000	50.942842
2364.000000	51.017666
2363.000000	51.097680
2362.000000	51.181879
2361.000000	51.265574
2360.000000	51.347098
2359.000000	51.425805
2358.000000	51.501095
2357.000000	51.573415
2356.000000	51.643247
2355.000000	51.713809
2354.000000	51.783663
2353.000000	51.848872
2352.000000	51.910038
2351.000000	51.975326
2350.000000	52.054311
2349.000000	52.141797
2348.000000	52.227481
2347.000000	52.305274
2346.000000	52.376091
2345.000000	52.448970
2344.000000	52.529561
2343.000000	52.617335
2342.000000	52.698456
2341.000000	52.763416
2340.000000	52.816841
2339.000000	52.865676
2338.000000	52.916398
2337.000000	52.972518
2336.000000	53.040566
2335.000000	53.124432
2334.000000	53.221787
2333.000000	53.324621
2332.000000	53.427627
2331.000000	53.528065
2330.000000	53.626640
2329.000000	53.719119
2328.000000	53.805405
2327.000000	53.885864
2326.000000	53.958796
2325.000000	54.025288
2324.000000	54.086977
2323.000000	54.152309
2322.000000	54.223582
2321.000000	54.301179
2320.000000	54.385130
2319.000000	54.474976
2318.000000	54.569133
2317.000000	54.661718
2316.000000	54.750662
2315.000000	54.834128
2314.000000	54.911797
2313.000000	54.982225
2312.000000	55.047488
2311.000000	55.110152
2310.000000	55.171139
2309.000000	55.230340
2308.000000	55.289916
2307.000000	55.353911
2306.000000	55.423491
2305.000000	55.497915
2304.000000	55.576458
2303.000000	55.659294
2302.000000	55.744381
2301.000000	55.828636
2300.000000	55.910866
2299.000000	55.990546
2298.000000	56.065273
2297.000000	56.132287
2296.000000	56.192452
2295.000000	56.249123
2294.000000	56.303762
2293.000000	56.356957
2292.000000	56.411224
2291.000000	56.470778
2290.000000	56.536398
2289.000000	56.606577
2288.000000	56.680704
2287.000000	56.759492
2286.000000	56.840704
2285.000000	56.919852
2284.000000	56.993997
2283.000000	57.062269
2282.000000	57.122750
2281.000000	57.173391
2280.000000	57.215836
2279.000000	57.254648
2278.000000	57.292878
2277.000000	57.331619
2276.000000	57.373675
2275.000000	57.422916
2274.000000	57.480586
2273.000000	57.544913
2272.000000	57.614565
2271.000000	57.688418
2270.000000	57.762329
2269.000000	57.830304
2268.000000	57.888930
2267.000000	57.937679
2266.000000	57.975528
2265.000000	58.001430
2264.000000	58.018304
2263.000000	58.032289
2262.000000	58.048044
2261.000000	58.068112
2260.000000	58.095682
2259.000000	58.134146
2258.000000	58.183097
2257.000000	58.238762
2256.000000	58.297771
2255.000000	58.356962
2254.000000	58.410487
2253.000000	58.451428
2252.000000	58.477069
2251.000000	58.488915
2250.000000	58.488523
2249.000000	58.477293
2248.000000	58.459866
2247.000000	58.443048
2246.000000	58.431160
2245.000000	58.425832
2244.000000	58.429406
2243.000000	58.444032
2242.000000	58.467402
2241.000000	58.493546
2240.000000	58.517716
2239.000000	58.536992
2238.000000	58.547007
2237.000000	58.542883
2236.000000	58.523837
2235.000000	58.493077
2234.000000	58.453561
2233.000000	58.407763
2232.000000	58.360711
2231.000000	58.318644
2230.000000	58.284327
2229.000000	58.257399
2228.000000	58.238445
2227.000000	58.228541
2226.000000	58.225231
2225.000000	58.223316
2224.000000	58.219680
2223.000000	58.213503
2222.000000	58.202356
2221.000000	58.182620
2220.000000	58.153903
2219.000000	58.118983
2218.000000	58.079636
2217.000000	58.036404
2216.000000	57.992125
2215.000000	57.951263
2214.000000	57.915856
2213.000000	57.885916
2212.000000	57.863376
2211.000000	57.851404
2210.000000	57.849876
2209.000000	57.855510
2208.000000	57.866048
2207.000000	57.880455
2206.000000	57.895310
2205.000000	57.905463
2204.000000	57.908361
2203.000000	57.904111
2202.000000	57.891961
2201.000000	57.871103
2200.000000	57.844643
2199.000000	57.818583
2198.000000	57.797033
2197.000000	57.782253
2196.000000	57.778476
2195.000000	57.790643
2194.000000	57.819259
2193.000000	57.860180
2192.000000	57.909118
2191.000000	57.961994
2190.000000	58.011707
2189.000000	58.049672
2188.000000	58.071370
2187.000000	58.076851
2186.000000	58.066553
2185.000000	58.041695
2184.000000	58.008461
2183.000000	57.976761
2182.000000	57.954128
2181.000000	57.944491
2180.000000	57.951594
2179.000000	57.978295
2178.000000	58.021952
2177.000000	58.074790
2176.000000	58.129141
2175.000000	58.178646
2174.000000	58.215377
2173.000000	58.231492
2172.000000	58.225168
2171.000000	58.200913
2170.000000	58.164327
2169.000000	58.120911
2168.000000	58.079148
2167.000000	58.048935
2166.000000	58.035947
2165.000000	58.040894
2164.000000	58.063578
2163.000000	58.102953
2162.000000	58.153135
2161.000000	58.204277
2160.000000	58.248336
2159.000000	58.280660
2158.000000	58.296862
2157.000000	58.293859
2156.000000	58.274496
2155.000000	58.246568
2154.000000	58.216783
2153.000000	58.189556
2152.000000	58.170581
2151.000000	58.165904
2150.000000	58.176808
2149.000000	58.199795
2148.000000	58.231518
2147.000000	58.269296
2146.000000	58.307467
2145.000000	58.338357
2144.000000	58.358197
2143.000000	58.367969
2142.000000	58.368446
2141.000000	58.359439
2140.000000	58.344027
2139.000000	58.328493
2138.000000	58.317161
2137.000000	58.311235
2136.000000	58.312325
2135.000000	58.322289
2134.000000	58.339278
2133.000000	58.358830
2132.000000	58.379257
2131.000000	58.401680
2130.000000	58.425072
2129.000000	58.446292
2128.000000	58.464986
2127.000000	58.483616
2126.000000	58.502484
2125.000000	58.519363
2124.000000	58.534144
2123.000000	58.549133
2122.000000	58.564547
2121.000000	58.578310
2120.000000	58.590614
2119.000000	58.604095
2118.000000	58.619841
2117.000000	58.637955
2116.000000	58.661600
2115.000000	58.695263
2114.000000	58.738924
2113.000000	58.788560
2112.000000	58.842054
2111.000000	58.899334
2110.000000	58.957192
2109.000000	59.010025
2108.000000	59.056045
2107.000000	59.097620
2106.000000	59.135474
2105.000000	59.168797
2104.000000	59.200897
2103.000000	59.238848
2102.000000	59.287268
2101.000000	59.346799
2100.000000	59.419267
2099.000000	59.507009
2098.000000	59.607001
2097.000000	59.711694
2096.000000	59.814935
2095.000000	59.912734
2094.000000	59.999169
2093.000000	60.068589
2092.000000	60.122404
2091.000000	60.167763
2090.000000	60.209464
2089.000000	60.249059
2088.000000	60.291192
2087.000000	60.343457
2086.000000	60.408989
2085.000000	60.485130
2084.000000	60.569282
2083.000000	60.659271
2082.000000	60.748067
2081.000000	60.824924
2080.000000	60.883581
2079.000000	60.923043
2078.000000	60.941717
2077.000000	60.938836
2076.000000	60.919993
2075.000000	60.896621
2074.000000	60.876687
2073.000000	60.863191
2072.000000	60.861888
2071.000000	60.879112
2070.000000	60.911983
2069.000000	60.949037
2068.000000	60.983511
2067.000000	61.017796
2066.000000	61.052425
2065.000000	61.079110
2064.000000	61.089375
2063.000000	61.083369
2062.000000	61.066888
2061.000000	61.046545
2060.000000	61.030579
2059.000000	61.028480
2058.000000	61.045767
2057.000000	61.082943
2056.000000	61.139669
2055.000000	61.215587
2054.000000	61.305393
2053.000000	61.398975
2052.000000	61.489306
2051.000000	61.574225
2050.000000	61.649859
2049.000000	61.711635
2048.000000	61.762750
2047.000000	61.812232
2046.000000	61.865101
2045.000000	61.922219
2044.000000	61.990075
2043.000000	62.080538
2042.000000	62.198314
2041.000000	62.336569
2040.000000	62.486447
2039.000000	62.643374
2038.000000	62.802550
2037.000000	62.956939
2036.000000	63.103289
2035.000000	63.243297
2034.000000	63.377612
2033.000000	63.505095
2032.000000	63.628310
2031.000000	63.754354
2030.000000	63.886157
2029.000000	64.022648
2028.000000	64.165068
2027.000000	64.317103
2026.000000	64.477303
2025.000000	64.638803
2024.000000	64.800642
2023.000000	64.964846
2022.000000	65.125193
2021.000000	65.270593
2020.000000	65.402760
2019.000000	65.538611
2018.000000	65.690201
2017.000000	65.851588
2016.000000	66.009951
2015.000000	66.159394
2014.000000	66.298661
2013.000000	66.426423
2012.000000	66.544111
2011.000000	66.656895
2010.000000	66.767604
2009.000000	66.876936
2008.000000	66.987978
2007.000000	67.106397
2006.000000	67.233899
2005.000000	67.365572
2004.000000	67.500158
2003.000000	67.636693
2002.000000	67.771005
2001.000000	67.894946
2000.000000	68.003446
1999.000000	68.101465
1998.000000	68.188833
1997.000000	68.253165
1996.000000	68.285996
1995.000000	68.300870
1994.000000	68.326548
1993.000000	68.383468
1992.000000	68.469788
1991.000000	68.573226
1990.000000	68.687264
1989.000000	68.813107
1988.000000	68.950556
1987.000000	69.088217
1986.000000	69.207313
1985.000000	69.295270
1984.000000	69.354565
1983.000000	69.391270
1982.000000	69.408774
1981.000000	69.411228
1980.000000	69.409972
1979.000000	69.422544
1978.000000	69.457556
1977.000000	69.514304
1976.000000	69.592536
1975.000000	69.694643
1974.000000	69.814476
1973.000000	69.934285
1972.000000	70.034056
1971.000000	70.099306
1970.000000	70.124723
1969.000000	70.122663
1968.000000	70.120027
1967.000000	70.132117
1966.000000	70.148350
1965.000000	70.155213
1964.000000	70.162020
1963.000000	70.190942
1962.000000	70.249320
1961.000000	70.325806
1960.000000	70.410455
1959.000000	70.499153
1958.000000	70.581707
1957.000000	70.646908
1956.000000	70.694604
1955.000000	70.731835
1954.000000	70.754675
1953.000000	70.757170
1952.000000	70.749557
1951.000000	70.743168
1950.000000	70.740129
1949.000000	70.743582
1948.000000	70.764644
1947.000000	70.804646
1946.000000	70.843208
1945.000000	70.868571
1944.000000	70.904697
1943.000000	70.974248
1942.000000	71.052779
1941.000000	71.099715
1940.000000	71.113365
1939.000000	71.122142
1938.000000	71.138470
1937.000000	71.151290
1936.000000	71.158051
1935.000000	71.175056
1934.000000	71.204664
1933.000000	71.233003
1932.000000	71.255931
1931.000000	71.273243
1930.000000	71.287825
1929.000000	71.294505
1928.000000	71.290116
1927.000000	71.268469
1926.000000	71.219080
1925.000000	71.169957
1924.000000	71.175714
1923.000000	71.251993
1922.000000	71.350202
1921.000000	71.417257
1920.000000	71.456415
1919.000000	71.497941
1918.000000	71.526269
1917.000000	71.502159
1916.000000	71.431545
1915.000000	71.358470
1914.000000	71.299044
1913.000000	71.235934
1912.000000	71.169621
1911.000000	71.130891
1910.000000	71.145355
1909.000000	71.192757
1908.000000	71.244708
1907.000000	71.293666
1906.000000	71.330586
1905.000000	71.348274
1904.000000	71.342374
1903.000000	71.316168
1902.000000	71.278558
1901.000000	71.229603
1900.000000	71.170931
1899.000000	71.111426
1898.000000	71.056568
1897.000000	71.024879
1896.000000	71.043644
1895.000000	71.114007
1894.000000	71.193058
1893.000000	71.232250
1892.000000	71.231635
1891.000000	71.237252
1890.000000	71.266363
1889.000000	71.277901
1888.000000	71.241939
1887.000000	71.182408
1886.000000	71.136317
1885.000000	71.116009
1884.000000	71.115194
1883.000000	71.128802
1882.000000	71.158206
1881.000000	71.194726
1880.000000	71.228576
1879.000000	71.262909
1878.000000	71.290940
1877.000000	71.296642
1876.000000	71.283463
1875.000000	71.268383
1874.000000	71.251294
1873.000000	71.208555
1872.000000	71.121308
1871.000000	71.011032
1870.000000	70.937618
1869.000000	70.934803
1868.000000	70.978247
1867.000000	71.035168
1866.000000	71.087684
1865.000000	71.119147
1864.000000	71.119418
1863.000000	71.093141
1862.000000	71.049188
1861.000000	70.991082
1860.000000	70.926753
1859.000000	70.872320
1858.000000	70.835964
1857.000000	70.808786
1856.000000	70.787165
1855.000000	70.775682
1854.000000	70.782317
1853.000000	70.790995
1852.000000	70.772610
1851.000000	70.736443
1850.000000	70.706424
1849.000000	70.692097
1848.000000	70.685889
1847.000000	70.686245
1846.000000	70.700083
1845.000000	70.709829
1844.000000	70.661248
1843.000000	70.538874
1842.000000	70.394031
1841.000000	70.270937
1840.000000	70.187463
1839.000000	70.138002
1838.000000	70.103143
1837.000000	70.076133
1836.000000	70.058249
1835.000000	70.042535
1834.000000	70.005074
1833.000000	69.909415
1832.000000	69.775926
1831.000000	69.705650
1830.000000	69.718255
1829.000000	69.717289
1828.000000	69.648009
1827.000000	69.551993
1826.000000	69.478614
1825.000000	69.410710
1824.000000	69.315611
1823.000000	69.212102
1822.000000	69.131929
1821.000000	69.066950
1820.000000	69.000864
1819.000000	68.937635
1818.000000	68.883535
1817.000000	68.839760
1816.000000	68.790513
1815.000000	68.721352
1814.000000	68.622472
1813.000000	68.498530
1812.000000	68.389377
1811.000000	68.310669
1810.000000	68.233316
1809.000000	68.136227
1808.000000	68.034292
1807.000000	67.955705
1806.000000	67.901147
1805.000000	67.850465
1804.000000	67.780405
1803.000000	67.700659
1802.000000	67.641472
1801.000000	67.603586
1800.000000	67.568446
1799.000000	67.514276
1798.000000	67.439767
1797.000000	67.362415
1796.000000	67.294731
1795.000000	67.235093
1794.000000	67.173022
1793.000000	67.097740
1792.000000	66.999224
1791.000000	66.880879
1790.000000	66.776553
1789.000000	66.712659
1788.000000	66.688347
1787.000000	66.681752
1786.000000	66.660033
1785.000000	66.599031
1784.000000	66.477203
1783.000000	66.319867
1782.000000	66.187803
1781.000000	66.090638
1780.000000	66.001518
1779.000000	65.898361
1778.000000	65.799553
1777.000000	65.717353
1776.000000	65.637787
1775.000000	65.560207
1774.000000	65.532782
1773.000000	65.585631
1772.000000	65.640520
1771.000000	65.610939
1770.000000	65.497656
1769.000000	65.356419
1768.000000	65.227109
1767.000000	65.113504
1766.000000	65.004920
1765.000000	64.893915
1764.000000	64.787905
1763.000000	64.707022
1762.000000	64.623552
1761.000000	64.486763
1760.000000	64.314207
1759.000000	64.158725
1758.000000	64.073636
1757.000000	64.034841
1756.000000	63.987510
1755.000000	63.929903
1754.000000	63.872286
1753.000000	63.778867
1752.000000	63.608766
1751.000000	63.375207
1750.000000	63.138363
1749.000000	62.953130
1748.000000	62.805227
1747.000000	62.665911
1746.000000	62.518546
1745.000000	62.368935
1744.000000	62.255247
1743.000000	62.190631
1742.000000	62.136458
1741.000000	62.071304
1740.000000	62.016297
1739.000000	61.979696
1738.000000	61.953710
1737.000000	61.907236
1736.000000	61.819766
1735.000000	61.692813
1734.000000	61.433163
1733.000000	61.001425
1732.000000	60.546613
1731.000000	60.199549
1730.000000	59.972406
1729.000000	59.778972
1728.000000	59.557760
1727.000000	59.332077
1726.000000	59.118168
1725.000000	58.904176
1724.000000	58.717261
1723.000000	58.588410
1722.000000	58.494374
1721.000000	58.347880
1720.000000	58.094968
1719.000000	57.801941
1718.000000	57.514200
1717.000000	57.177208
1716.000000	56.795390
1715.000000	56.422738
1714.000000	56.066222
1713.000000	55.714360
1712.000000	55.379411
1711.000000	55.087786
1710.000000	54.837268
1709.000000	54.573800
1708.000000	54.263820
1707.000000	53.965310
1706.000000	53.738046
1705.000000	53.573573
1704.000000	53.469041
1703.000000	53.416652
1702.000000	53.322241
1701.000000	53.008313
1700.000000	52.392786
1699.000000	51.681104
1698.000000	51.124665
1697.000000	50.792410
1696.000000	50.511775
1695.000000	50.087345
1694.000000	49.576214
1693.000000	49.083810
1692.000000	48.653143
1691.000000	48.273667
1690.000000	47.929502
1689.000000	47.611603
1688.000000	47.330596
1687.000000	47.071066
1686.000000	46.780154
1685.000000	46.451345
1684.000000	45.973279
1683.000000	45.347071
1682.000000	44.760124
1681.000000	44.290946
1680.000000	43.940731
1679.000000	43.675480
1678.000000	43.443122
1677.000000	43.172349
1676.000000	42.799994
1675.000000	42.329023
1674.000000	41.834412
1673.000000	41.372133
1672.000000	40.957102
1671.000000	40.583352
1670.000000	40.205702
1669.000000	39.757068
1668.000000	39.266325
1667.000000	38.826129
1666.000000	38.449099
1665.000000	38.081748
1664.000000	37.692835
1663.000000	37.288136
1662.000000	36.878853
1661.000000	36.466119
1660.000000	36.071207
1659.000000	35.742869
1658.000000	35.497910
1657.000000	35.303997
1656.000000	35.086064
1655.000000	34.834427
1654.000000	34.584091
1653.000000	34.128475
1652.000000	33.485339
1651.000000	32.935862
1650.000000	32.503718
1649.000000	32.144213
1648.000000	31.853497
1647.000000	31.603873
1646.000000	31.308603
1645.000000	30.957618
1644.000000	30.600556
1643.000000	30.278654
1642.000000	30.002596
1641.000000	29.740439
1640.000000	29.475641
1639.000000	29.223455
1638.000000	28.998786
1637.000000	28.807033
1636.000000	28.592363
1635.000000	28.301014
1634.000000	27.978043
1633.000000	27.682389
1632.000000	27.432918
1631.000000	27.227320
1630.000000	27.045710
1629.000000	26.871353
1628.000000	26.700234
1627.000000	26.541073
1626.000000	26.390178
1625.000000	26.227985
1624.000000	26.058715
1623.000000	25.901309
1622.000000	25.764894
1621.000000	25.642095
1620.000000	25.532496
1619.000000	25.454136
1618.000000	25.427661
1617.000000	25.424556
1616.000000	25.382042
1615.000000	25.305036
1614.000000	25.233731
1613.000000	25.181005
1612.000000	25.140461
1611.000000	25.111113
1610.000000	25.099551
1609.000000	25.101771
1608.000000	25.108720
1607.000000	25.122918
1606.000000	25.150414
1605.000000	25.180808
1604.000000	25.213009
1603.000000	25.266202
1602.000000	25.346575
1601.000000	25.433381
1600.000000	25.509180
1599.000000	25.580182
1598.000000	25.651975
1597.000000	25.716607
1596.000000	25.774090
1595.000000	25.837841
1594.000000	25.909918
1593.000000	25.973973
1592.000000	26.024209
1591.000000	26.077093
1590.000000	26.144671
1589.000000	26.216047
1588.000000	26.282528
1587.000000	26.351469
1586.000000	26.431010
1585.000000	26.511076
1584.000000	26.577455
1583.000000	26.641386
1582.000000	26.715632
1581.000000	26.785451
1580.000000	26.830147
1579.000000	26.860108
1578.000000	26.912509
1577.000000	27.013454
1576.000000	27.113344
1575.000000	27.157574
1574.000000	27.166896
1573.000000	27.173217
1572.000000	27.193694
1571.000000	27.248782
1570.000000	27.349489
1569.000000	27.442408
1568.000000	27.481998
1567.000000	27.501900
1566.000000	27.556115
1565.000000	27.659691
1564.000000	27.802275
1563.000000	27.978080
1562.000000	28.167184
1561.000000	28.255157
1560.000000	28.332960
1559.000000	28.535108
1558.000000	28.650808
1557.000000	28.629328
1556.000000	28.595435
1555.000000	28.644935
1554.000000	28.765021
1553.000000	28.879243
1552.000000	28.975192
1551.000000	29.112483
1550.000000	29.325505
1549.000000	29.572222
1548.000000	29.793505
1547.000000	29.979217
1546.000000	30.158896
1545.000000	30.362433
1544.000000	30.587821
1543.000000	30.805982
1542.000000	31.022551
1541.000000	31.370262
1540.000000	31.867638
1539.000000	32.313918
1538.000000	32.612837
1537.000000	32.824955
1536.000000	33.036044
1535.000000	33.331823
1534.000000	33.762794
1533.000000	34.234627
1532.000000	34.625373
1531.000000	34.944780
1530.000000	35.255416
1529.000000	35.587061
1528.000000	35.950652
1527.000000	36.365008
1526.000000	36.820186
1525.000000	37.258598
1524.000000	37.658345
1523.000000	38.113603
1522.000000	38.725730
1521.000000	39.368309
1520.000000	39.830786
1519.000000	40.129278
1518.000000	40.441529
1517.000000	40.862387
1516.000000	41.305306
1515.000000	41.678329
1514.000000	41.987787
1513.000000	42.258126
1512.000000	42.506367
1511.000000	42.732887
1510.000000	42.925759
1509.000000	43.096824
1508.000000	43.507640
1507.000000	44.308960
1506.000000	45.086059
1505.000000	45.528083
1504.000000	45.762413
1503.000000	46.018680
1502.000000	46.406225
1501.000000	46.896457
1500.000000	47.416943
1499.000000	47.953006
1498.000000	48.530805
1497.000000	49.139439
1496.000000	49.716304
1495.000000	50.217335
1494.000000	50.646868
1493.000000	51.011474
1492.000000	51.327402
1491.000000	51.670879
1490.000000	52.095978
1489.000000	52.534408
1488.000000	52.926402
1487.000000	53.270150
1486.000000	53.558260
1485.000000	53.761653
1484.000000	53.877265
1483.000000	53.963999
1482.000000	54.048797
1481.000000	54.092039
1480.000000	54.058185
1479.000000	53.952728
1478.000000	53.751825
1477.000000	53.413193
1476.000000	52.945531
1475.000000	52.372539
1474.000000	51.654764
1473.000000	50.671011
1472.000000	49.398915
1471.000000	48.005544
1470.000000	46.601723
1469.000000	45.145587
1468.000000	43.570506
1467.000000	41.792188
1466.000000	39.680970
1465.000000	37.176509
1464.000000	34.506614
1463.000000	32.027506
1462.000000	29.832074
1461.000000	27.807051
1460.000000	25.851687
1459.000000	23.894431
1458.000000	21.791390
1457.000000	19.532788
1456.000000	17.576304
1455.000000	16.286190
1454.000000	15.493656
1453.000000	14.966617
1452.000000	14.661983
1451.000000	14.609352
1450.000000	14.792455
1449.000000	15.191859
1448.000000	15.828440
1447.000000	16.665455
1446.000000	17.596226
1445.000000	18.558883
1444.000000	19.577497
1443.000000	20.668343
1442.000000	21.785986
1441.000000	22.874375
1440.000000	23.922813
1439.000000	24.957699
1438.000000	26.016424
1437.000000	27.115028
1436.000000	28.158793
1435.000000	29.013524
1434.000000	29.682298
1433.000000	30.259559
1432.000000	30.790453
1431.000000	31.250371
1430.000000	31.592085
1429.000000	31.795084
1428.000000	31.867463
1427.000000	31.827852
1426.000000	31.713312
1425.000000	31.578746
1424.000000	31.488777
1423.000000	31.480059
1422.000000	31.543952
1421.000000	31.651847
1420.000000	31.818633
1419.000000	32.093918
1418.000000	32.464852
1417.000000	32.911358
1416.000000	33.466559
1415.000000	34.146877
1414.000000	34.921989
1413.000000	35.763957
1412.000000	36.671732
1411.000000	37.632629
1410.000000	38.597924
1409.000000	39.527186
1408.000000	40.409407
1407.000000	41.241610
1406.000000	42.045178
1405.000000	42.848852
1404.000000	43.636014
1403.000000	44.354460
1402.000000	44.986960
1401.000000	45.574442
1400.000000	46.160194
1399.000000	46.728528
1398.000000	47.230775
1397.000000	47.670176
1396.000000	48.078282
1395.000000	48.435582
1394.000000	48.684546
1393.000000	48.805671
1392.000000	48.827095
1391.000000	48.758286
1390.000000	48.551421
1389.000000	48.102346
1388.000000	47.303576
1387.000000	46.186217
1386.000000	45.042937
1385.000000	44.290581
1384.000000	44.204690
1383.000000	44.796920
1382.000000	45.823313
1381.000000	46.922410
1380.000000	47.812202
1379.000000	48.386986
1378.000000	48.685755
1377.000000	48.807707
1376.000000	48.845328
1375.000000	48.868680
1374.000000	48.906597
1373.000000	48.936276
1372.000000	48.922888
1371.000000	48.852460
1370.000000	48.742612
1369.000000	48.616278
1368.000000	48.475539
1367.000000	48.308335
1366.000000	48.103380
1365.000000	47.852990
1364.000000	47.561385
1363.000000	47.247889
1362.000000	46.927420
1361.000000	46.602323
1360.000000	46.270294
1359.000000	45.938413
1358.000000	45.635294
1357.000000	45.400721
1356.000000	45.267491
1355.000000	45.256967
1354.000000	45.371417
1353.000000	45.585456
1352.000000	45.848723
1351.000000	46.100336
1350.000000	46.288087
1349.000000	46.356966
1348.000000	46.243792
1347.000000	45.897855
1346.000000	45.296834
1345.000000	44.440138
1344.000000	43.340670
1343.000000	42.020908
1342.000000	40.511448
1341.000000	38.851866
1340.000000	37.097380
1339.000000	35.318424
1338.000000	33.563675
1337.000000	31.825391
1336.000000	30.059037
1335.000000	28.231036
1334.000000	26.336139
1333.000000	24.384236
1332.000000	22.402122
1331.000000	20.445678
1330.000000	18.582323
1329.000000	16.857689
1328.000000	15.295570
1327.000000	13.911336
1326.000000	12.702656
1325.000000	11.642265
1324.000000	10.699897
1323.000000	9.865159
1322.000000	9.132310
1321.000000	8.485009
1320.000000	7.920543
1319.000000	7.464392
1318.000000	7.146051
1317.000000	6.973433
1316.000000	6.941771
1315.000000	7.050189
1314.000000	7.286099
1313.000000	7.617024
1312.000000	8.012424
1311.000000	8.457766
1310.000000	8.944722
1309.000000	9.461598
1308.000000	10.004445
1307.000000	10.580251
1306.000000	11.189574
1305.000000	11.821241
1304.000000	12.467523
1303.000000	13.131029
1302.000000	13.813169
1301.000000	14.508969
1300.000000	15.218297
1299.000000	15.947628
1298.000000	16.695990
1297.000000	17.450930
1296.000000	18.201195
1295.000000	18.946010
1294.000000	19.690205
1293.000000	20.441010
1292.000000	21.212819
1291.000000	22.025283
1290.000000	22.894384
1289.000000	23.827991
1288.000000	24.828087
1287.000000	25.890955
1286.000000	27.003690
1285.000000	28.147784
1284.000000	29.305512
1283.000000	30.460500
1282.000000	31.596998
1281.000000	32.701767
1280.000000	33.765927
1279.000000	34.787075
1278.000000	35.772022
1277.000000	36.734647
1276.000000	37.688423
1275.000000	38.641936
1274.000000	39.601886
1273.000000	40.574193
1272.000000	41.557117
1271.000000	42.539787
1270.000000	43.511335
1269.000000	44.466324
1268.000000	45.399882
1267.000000	46.304935
1266.000000	47.178646
1265.000000	48.021364
1264.000000	48.826943
1263.000000	49.586449
1262.000000	50.302100
1261.000000	50.987291
1260.000000	51.648395
1259.000000	52.280552
1258.000000	52.885039
1257.000000	53.472511
1256.000000	54.047868
1255.000000	54.606689
1254.000000	55.147566
1253.000000	55.674335
1252.000000	56.181759
1251.000000	56.655439
1250.000000	57.088815
1249.000000	57.484921
1248.000000	57.842532
1247.000000	58.156339
1246.000000	58.432995
1245.000000	58.690724
1244.000000	58.939422
1243.000000	59.177177
1242.000000	59.405000
1241.000000	59.628299
1240.000000	59.842913
1239.000000	60.034720
1238.000000	60.197161
1237.000000	60.333443
1236.000000	60.442058
1235.000000	60.517729
1234.000000	60.566733
1233.000000	60.606265
1232.000000	60.647208
1231.000000	60.692717
1230.000000	60.752311
1229.000000	60.840243
1228.000000	60.959095
1227.000000	61.100284
1226.000000	61.260623
1225.000000	61.442257
1224.000000	61.637618
1223.000000	61.830990
1222.000000	62.017212
1221.000000	62.204056
1220.000000	62.395183
1219.000000	62.587573
1218.000000	62.785210
1217.000000	62.997946
1216.000000	63.225107
1215.000000	63.455685
1214.000000	63.685771
1213.000000	63.919087
1212.000000	64.150019
1211.000000	64.362932
1210.000000	64.550866
1209.000000	64.718393
1208.000000	64.865889
1207.000000	64.988746
1206.000000	65.092605
1205.000000	65.193183
1204.000000	65.298257
1203.000000	65.405682
1202.000000	65.519372
1201.000000	65.649999
1200.000000	65.798768
1199.000000	65.957335
1198.000000	66.124354
1197.000000	66.305623
1196.000000	66.498217
1195.000000	66.690637
1194.000000	66.880224
1193.000000	67.073437
1192.000000	67.267846
1191.000000	67.451348
1190.000000	67.620664
1189.000000	67.783386
1188.000000	67.940494
1187.000000	68.085329
1186.000000	68.221588
1185.000000	68.364513
1184.000000	68.519370
1183.000000	68.672701
1182.000000	68.809026
1181.000000	68.924638
1180.000000	69.025488
1179.000000	69.125117
1178.000000	69.242821
1177.000000	69.387706
1176.000000	69.543946
1175.000000	69.684687
1174.000000	69.798673
1173.000000	69.890036
1172.000000	69.959255
1171.000000	70.003800
1170.000000	70.034976
1169.000000	70.074046
1168.000000	70.131399
1167.000000	70.206395
1166.000000	70.304666
1165.000000	70.435694
1164.000000	70.593422
1163.000000	70.757681
1162.000000	70.914523
1161.000000	71.058239
1160.000000	71.175616
1159.000000	71.249851
1158.000000	71.280837
1157.000000	71.284378
1156.000000	71.271899
1155.000000	71.248883
1154.000000	71.230654
1153.000000	71.237191
1152.000000	71.272311
1151.000000	71.325891
1150.000000	71.395373
1149.000000	71.485335
1148.000000	71.586846
1147.000000	71.677711
1146.000000	71.744454
1145.000000	71.785751
1144.000000	71.795925
1143.000000	71.765465
1142.000000	71.699787
1141.000000	71.618193
1140.000000	71.532631
1139.000000	71.445986
1138.000000	71.368382
1137.000000	71.315603
1136.000000	71.290638
1135.000000	71.284144
1134.000000	71.292216
1133.000000	71.316554
1132.000000	71.347889
1131.000000	71.367908
1130.000000	71.368465
1129.000000	71.352134
1128.000000	71.314518
1127.000000	71.244201
1126.000000	71.140447
1125.000000	71.011236
1124.000000	70.856393
1123.000000	70.669474
1122.000000	70.455350
1121.000000	70.229135
1120.000000	69.997019
1119.000000	69.756571
1118.000000	69.512677
1117.000000	69.274360
1116.000000	69.037113
1115.000000	68.783042
1114.000000	68.498485
1113.000000	68.174803
1112.000000	67.792728
1111.000000	67.328249
1110.000000	66.770810
1109.000000	66.123223
1108.000000	65.387250
1107.000000	64.562583
1106.000000	63.662588
1105.000000	62.708052
1104.000000	61.709156
1103.000000	60.665327
1102.000000	59.572484
1101.000000	58.422261
1100.000000	57.190790
1099.000000	55.845506
1098.000000	54.363727
1097.000000	52.730188
1096.000000	50.933308
1095.000000	48.967603
1094.000000	46.840148
1093.000000	44.570884
1092.000000	42.182143
1091.000000	39.702138
1090.000000	37.164015
1089.000000	34.599787
1088.000000	32.042104
1087.000000	29.528699
1086.000000	27.097154
1085.000000	24.778337
1084.000000	22.602008
1083.000000	20.593843
1082.000000	18.769582
1081.000000	17.129875
1080.000000	15.671695
1079.000000	14.396564
1078.000000	13.290625
1077.000000	12.328975
1076.000000	11.492159
1075.000000	10.769492
1074.000000	10.148993
1073.000000	9.609882
1072.000000	9.140845
1071.000000	8.741047
1070.000000	8.402406
1069.000000	8.111366
1068.000000	7.862748
1067.000000	7.661807
1066.000000	7.506968
1065.000000	7.387366
1064.000000	7.302142
1063.000000	7.259332
1062.000000	7.258794
1061.000000	7.291485
1060.000000	7.356054
1059.000000	7.461551
1058.000000	7.608909
1057.000000	7.790122
1056.000000	8.005384
1055.000000	8.262632
1054.000000	8.562363
1053.000000	8.895817
1052.000000	9.261515
1051.000000	9.667082
1050.000000	10.111286
1049.000000	10.584490
1048.000000	11.083742
1047.000000	11.613649
1046.000000	12.173534
1045.000000	12.757297
1044.000000	13.367996
1043.000000	14.015172
1042.000000	14.700519
1041.000000	15.419663
1040.000000	16.173111
1039.000000	16.965768
1038.000000	17.794877
1037.000000	18.651405
1036.000000	19.532811
1035.000000	20.439984
1034.000000	21.366468
1033.000000	22.300418
1032.000000	23.236681
1031.000000	24.178018
1030.000000	25.124844
1029.000000	26.073989
1028.000000	27.025513
1027.000000	27.982721
1026.000000	28.946157
1025.000000	29.913814
1024.000000	30.885940
1023.000000	31.863858
1022.000000	32.845028
1021.000000	33.823471
1020.000000	34.794250
1019.000000	35.754123
1018.000000	36.699478
1017.000000	37.626951
1016.000000	38.534115
1015.000000	39.419366
1014.000000	40.281514
1013.000000	41.120120
1012.000000	41.936371
1011.000000	42.732422
1010.000000	43.512153
1009.000000	44.280577
1008.000000	45.041284
1007.000000	45.796469
1006.000000	46.548159
1005.000000	47.297287
1004.000000	48.040280
1003.000000	48.769082
1002.000000	49.476311
1001.000000	50.155758
1000.000000	50.799986
999.000000	51.402934
998.000000	51.965351
997.000000	52.495252
996.000000	53.001666
995.000000	53.494345
994.000000	53.987914
993.000000	54.497462
992.000000	55.029389
991.000000	55.579990
990.000000	56.141776
989.000000	56.704501
988.000000	57.250270
987.000000	57.758475
986.000000	58.216829
985.000000	58.623044
984.000000	58.978778
983.000000	59.289972
982.000000	59.574486
981.000000	59.857935
980.000000	60.160996
979.000000	60.496924
978.000000	60.876398
977.000000	61.302784
976.000000	61.761674
975.000000	62.224769
974.000000	62.665996
973.000000	63.065658
972.000000	63.404522
971.000000	63.668658
970.000000	63.862660
969.000000	64.009258
968.000000	64.133684
967.000000	64.259347
966.000000	64.413741
965.000000	64.622604
964.000000	64.894442
963.000000	65.218703
962.000000	65.577476
961.000000	65.949331
960.000000	66.303943
959.000000	66.608491
958.000000	66.843347
957.000000	67.005227
956.000000	67.098587
955.000000	67.135862
954.000000	67.146238
953.000000	67.166712
952.000000	67.222104
951.000000	67.321474
950.000000	67.469149
949.000000	67.664555
948.000000	67.891943
947.000000	68.124261
946.000000	68.339910
945.000000	68.526084
944.000000	68.669508
943.000000	68.759559
942.000000	68.801916
941.000000	68.816611
940.000000	68.820057
939.000000	68.821240
938.000000	68.830617
937.000000	68.857421
936.000000	68.898189
935.000000	68.940261
934.000000	68.977233
933.000000	69.009865
932.000000	69.034429
931.000000	69.044913
930.000000	69.046020
929.000000	69.050348
928.000000	69.062099
927.000000	69.074804
926.000000	69.083945
925.000000	69.086101
924.000000	69.067103
923.000000	69.005653
922.000000	68.889797
921.000000	68.720900
920.000000	68.502798
919.000000	68.243066
918.000000	67.964157
917.000000	67.697841
916.000000	67.467372
915.000000	67.282199
914.000000	67.144889
913.000000	67.048588
912.000000	66.966992
911.000000	66.860608
910.000000	66.694765
909.000000	66.444693
908.000000	66.090468
907.000000	65.621380
906.000000	65.050509
905.000000	64.411340
904.000000	63.740777
903.000000	63.074409
902.000000	62.448089
901.000000	61.888281
900.000000	61.396174
899.000000	60.948401
898.000000	60.511825
897.000000	60.049559
896.000000	59.519327
895.000000	58.882516
894.000000	58.118977
893.000000	57.230835
892.000000	56.231909
891.000000	55.145736
890.000000	54.007632
889.000000	52.854175
888.000000	51.710923
887.000000	50.589010
886.000000	49.489946
885.000000	48.405986
884.000000	47.318305
883.000000	46.202772
882.000000	45.037927
881.000000	43.808110
880.000000	42.504770
879.000000	41.129050
878.000000	39.693263
877.000000	38.215578
876.000000	36.715102
875.000000	35.210601
874.000000	33.718196
873.000000	32.249701
872.000000	30.814304
871.000000	29.419810
870.000000	28.068595
869.000000	26.757782
868.000000	25.483824
867.000000	24.244883
866.000000	23.037741
865.000000	21.857077
864.000000	20.702809
863.000000	19.579747
862.000000	18.490623
861.000000	17.436900
860.000000	16.424885
859.000000	15.467289
858.000000	14.575425
857.000000	13.759866
856.000000	13.039788
855.000000	12.435727
854.000000	11.958515
853.000000	11.607093
852.000000	11.374905
851.000000	11.248933
850.000000	11.199502
849.000000	11.191207
848.000000	11.200567
847.000000	11.217177
846.000000	11.234377
845.000000	11.248630
844.000000	11.268480
843.000000	11.309168
842.000000	11.378799
841.000000	11.480237
840.000000	11.620868
839.000000	11.810048
838.000000	12.047862
837.000000	12.326287
836.000000	12.640919
835.000000	12.989426
834.000000	13.363529
833.000000	13.752947
832.000000	14.155610
831.000000	14.576672
830.000000	15.019100
829.000000	15.485891
828.000000	15.988190
827.000000	16.539288
826.000000	17.143420
825.000000	17.797206
824.000000	18.500922
823.000000	19.259880
822.000000	20.074689
821.000000	20.939355
820.000000	21.843329
819.000000	22.770733
818.000000	23.701493
817.000000	24.618504
816.000000	25.512871
815.000000	26.379740
814.000000	27.214616
813.000000	28.016007
812.000000	28.787915
811.000000	29.535998
810.000000	30.265224
809.000000	30.982573
808.000000	31.697374
807.000000	32.417534
806.000000	33.146902
805.000000	33.886720
804.000000	34.635484
803.000000	35.386916
802.000000	36.132440
801.000000	36.865269
800.000000	37.579603
799.000000	38.268263
798.000000	38.925385
797.000000	39.551664
796.000000	40.153569
795.000000	40.740239
794.000000	41.323776
793.000000	41.918317
792.000000	42.534014
791.000000	43.172049
790.000000	43.826472
789.000000	44.487157
788.000000	45.138998
787.000000	45.763737
786.000000	46.346847
785.000000	46.880173
784.000000	47.358785
783.000000	47.781643
782.000000	48.159063
781.000000	48.512925
780.000000	48.866604
779.000000	49.238701
778.000000	49.644944
777.000000	50.096787
776.000000	50.592507
775.000000	51.114508
774.000000	51.638443
773.000000	52.140974
772.000000	52.599380
771.000000	52.994591
770.000000	53.320117
769.000000	53.584791
768.000000	53.805306
767.000000	54.002862
766.000000	54.205504
765.000000	54.442760
764.000000	54.732885
763.000000	55.079077
762.000000	55.476974
761.000000	55.916036
760.000000	56.371771
759.000000	56.807006
758.000000	57.187572
757.000000	57.492980
756.000000	57.714692
755.000000	57.855284
754.000000	57.933787
753.000000	57.981714
752.000000	58.029233
751.000000	58.099083
750.000000	58.210227
749.000000	58.375419
748.000000	58.590882
747.000000	58.836956
746.000000	59.091158
745.000000	59.333785
744.000000	59.541932
743.000000	59.691947
742.000000	59.773259
741.000000	59.793271
740.000000	59.767059
739.000000	59.711476
738.000000	59.649120
737.000000	59.605712
736.000000	59.597972
735.000000	59.630294
734.000000	59.704190
733.000000	59.820640
732.000000	59.971874
731.000000	60.141593
730.000000	60.318340
729.000000	60.500563
728.000000	60.687194
727.000000	60.873714
726.000000	61.060393
725.000000	61.253579
724.000000	61.454700
723.000000	61.658067
722.000000	61.861823
721.000000	62.070460
720.000000	62.283735
719.000000	62.494560
718.000000	62.701472
717.000000	62.913242
716.000000	63.138702
715.000000	63.382725
714.000000	63.653442
713.000000	63.959977
712.000000	64.298165
711.000000	64.648738
710.000000	64.992480
709.000000	65.315447
708.000000	65.599286
707.000000	65.822009
706.000000	65.974321
705.000000	66.065305
704.000000	66.111252
703.000000	66.131341
702.000000	66.155464
701.000000	66.221032
700.000000	66.355223
699.000000	66.567140
698.000000	66.855359
697.000000	67.208493
696.000000	67.594266
695.000000	67.964701
694.000000	68.278369
693.000000	68.508895
692.000000	68.637247
691.000000	68.655349
690.000000	68.582470
689.000000	68.465388
688.000000	68.355291
687.000000	68.291701
686.000000	68.307092
685.000000	68.427246
684.000000	68.656888
683.000000	68.974566
682.000000	69.346068
681.000000	69.730452
680.000000	70.075691
679.000000	70.331115
678.000000	70.472002
677.000000	70.501394
676.000000	70.435434
675.000000	70.301584
674.000000	70.145095
673.000000	70.019217
672.000000	69.961921
671.000000	69.992917
670.000000	70.137241
669.000000	70.426853
668.000000	70.850209
667.000000	71.283856
666.000000	71.572923
665.000000	71.715545
664.000000	71.790952
663.000000	71.819401
662.000000	71.793393
661.000000	71.724170
660.000000	71.641431
659.000000	71.572243
658.000000	71.541711
657.000000	71.571376
656.000000	71.666335
655.000000	71.813026
654.000000	71.992690
653.000000	72.189419
652.000000	72.383227
651.000000	72.549812
650.000000	72.674967
649.000000	72.759565
648.000000	72.806915
647.000000	72.820642
646.000000	72.818656
645.000000	72.828942
644.000000	72.864438
643.000000	72.916678
642.000000	72.975408
641.000000	73.039081
640.000000	73.103123
639.000000	73.155923
638.000000	73.193149
637.000000	73.222666
636.000000	73.250435
635.000000	73.275776
634.000000	73.303109
633.000000	73.342059
632.000000	73.393495
631.000000	73.449657
630.000000	73.508607
629.000000	73.572071
628.000000	73.628487
627.000000	73.657111
626.000000	73.653241
625.000000	73.631231
624.000000	73.600710
623.000000	73.561692
622.000000	73.525914
621.000000	73.518755
620.000000	73.553573
619.000000	73.623027
618.000000	73.718804
617.000000	73.840874
616.000000	73.978258
615.000000	74.100830
614.000000	74.181066
613.000000	74.209574
612.000000	74.185168
611.000000	74.111316
610.000000	74.008606
609.000000	73.910866
608.000000	73.840160
607.000000	73.799139
606.000000	73.789511
605.000000	73.816376
604.000000	73.867444
603.000000	73.906107
602.000000	73.892365
601.000000	73.796176
600.000000	73.586063
599.000000	73.228958
598.000000	72.718666
597.000000	72.093121
596.000000	71.427649
595.000000	70.825157
594.000000	70.400601
593.000000	70.241633
592.000000	70.370857
591.000000	70.737977
590.000000	71.248577
589.000000	71.809080
588.000000	72.345092
587.000000	72.805773
586.000000	73.169734
585.000000	73.439912
584.000000	73.622279
583.000000	73.723480
582.000000	73.770668
581.000000	73.810871
580.000000	73.878724
579.000000	73.978153
578.000000	74.105974
577.000000	74.268926
576.000000	74.467049
575.000000	74.673937
574.000000	74.848474
573.000000	74.960192
572.000000	74.991262
571.000000	74.936045
570.000000	74.813021
569.000000	74.658931
568.000000	74.505432
567.000000	74.373610
566.000000	74.285598
565.000000	74.261707
564.000000	74.304904
563.000000	74.402837
562.000000	74.542559
561.000000	74.711232
560.000000	74.882990
559.000000	75.022812
558.000000	75.108563
557.000000	75.137029
556.000000	75.109524
555.000000	75.031414
554.000000	74.926050
553.000000	74.828260
552.000000	74.761209
551.000000	74.733553
550.000000	74.752687
549.000000	74.820948
548.000000	74.923514
547.000000	75.039648
546.000000	75.163012
545.000000	75.291264
544.000000	75.401939
543.000000	75.464364
542.000000	75.474366
541.000000	75.453644
540.000000	75.414947
539.000000	75.354716
538.000000	75.282337
537.000000	75.229326
536.000000	75.221967
535.000000	75.263060
534.000000	75.344220
533.000000	75.457747
532.000000	75.587755
531.000000	75.713020
530.000000	75.826592
529.000000	75.933720
528.000000	76.026963
527.000000	76.090363
526.000000	76.130460
525.000000	76.166037
524.000000	76.188965
523.000000	76.166597
522.000000	76.079587
521.000000	75.933760
520.000000	75.741996
519.000000	75.516820
518.000000	75.283462
517.000000	75.073432
516.000000	74.893810
515.000000	74.727577
514.000000	74.563625
513.000000	74.401914
512.000000	74.226550
511.000000	74.002700
510.000000	73.706204
509.000000	73.333880
508.000000	72.879995
507.000000	72.344050
506.000000	71.755504
505.000000	71.154073
504.000000	70.549885
503.000000	69.941451
502.000000	69.370867
501.000000	68.904754
500.000000	68.567302
499.000000	68.341376
498.000000	68.223331
497.000000	68.228902
496.000000	68.353135
495.000000	68.554714
494.000000	68.785278
493.000000	69.017483
492.000000	69.232241
491.000000	69.412867
490.000000	69.569828
489.000000	69.746801
488.000000	69.987435
487.000000	70.315315
486.000000	70.745913
485.000000	71.283602
484.000000	71.890490
483.000000	72.485625
482.000000	72.998325
481.000000	73.403892
480.000000	73.698266
479.000000	73.876393
478.000000	73.948036
477.000000	73.949315
476.000000	73.919488
475.000000	73.878823
474.000000	73.848780
473.000000	73.883077
472.000000	74.026853
471.000000	74.250274
470.000000	74.499476
469.000000	74.759353
468.000000	75.028557
467.000000	75.291183
466.000000	75.530734
465.000000	75.756792
464.000000	75.972829
463.000000	76.156644
462.000000	76.303008
461.000000	76.442575
460.000000	76.573530
459.000000	76.619112
458.000000	76.528039
457.000000	76.362746
456.000000	76.211501
455.000000	76.118701
454.000000	76.101693
453.000000	76.170695
452.000000	76.329832
451.000000	76.548964
450.000000	76.779130
449.000000	76.995100
448.000000	77.191516
447.000000	77.350646
446.000000	77.439914
445.000000	77.443018
444.000000	77.364599
443.000000	77.237109
442.000000	77.128537
441.000000	77.106750
440.000000	77.193586
439.000000	77.365449
438.000000	77.589909
437.000000	77.860477
436.000000	78.173015
435.000000	78.489697
434.000000	78.769492
433.000000	79.005889
432.000000	79.185523
431.000000	79.268645
430.000000	79.253273
429.000000	79.189215
428.000000	79.114163
427.000000	79.037407
426.000000	78.996094
425.000000	79.044168
424.000000	79.184687
423.000000	79.380011
422.000000	79.617912
421.000000	79.864666
420.000000	79.959304
419.000000	79.837167
418.000000	79.661545
417.000000	79.522530
416.000000	79.447087
415.000000	79.420828
414.000000	79.393027
413.000000	79.380147
412.000000	79.415958
411.000000	79.452545
410.000000	79.444770
409.000000	79.441439
408.000000	79.488562
407.000000	79.542161
406.000000	79.568902
405.000000	79.605649
404.000000	79.696164
403.000000	79.764301
402.000000	79.725988
401.000000	79.595450
400.000000	79.421840
