PE IR       SUBTECH     SPECTRUM    ASCII       PEDS        4.00        
   -1
23ms156_nitro.asc
24/09/06
16:59:30.00
24/09/06
16:59:30.00
Administrator
Sample 1134 By Administrator Date Friday, September 06 2024
400.000000
#HDR
-1
-1
#GR
cm-1
%T
1.0
0.0
4000.000000
-1.000000
3601
8
91.338505
18.787834
#DATA
4000.000000	69.088583
3999.000000	69.112829
3998.000000	69.138723
3997.000000	69.166286
3996.000000	69.195133
3995.000000	69.224165
3994.000000	69.251574
3993.000000	69.276026
3992.000000	69.298027
3991.000000	69.319572
3990.000000	69.341998
3989.000000	69.365016
3988.000000	69.388290
3987.000000	69.412707
3986.000000	69.439221
3985.000000	69.467045
3984.000000	69.494265
3983.000000	69.519724
3982.000000	69.543406
3981.000000	69.565330
3980.000000	69.585001
3979.000000	69.602445
3978.000000	69.619493
3977.000000	69.638869
3976.000000	69.661742
3975.000000	69.686459
3974.000000	69.710248
3973.000000	69.731675
3972.000000	69.751094
3971.000000	69.770280
3970.000000	69.791304
3969.000000	69.814820
3968.000000	69.839311
3967.000000	69.862370
3966.000000	69.882500
3965.000000	69.900468
3964.000000	69.918731
3963.000000	69.938991
3962.000000	69.960779
3961.000000	69.981889
3960.000000	70.000280
3959.000000	70.017150
3958.000000	70.036292
3957.000000	70.059832
3956.000000	70.085677
3955.000000	70.109861
3954.000000	70.129855
3953.000000	70.145203
3952.000000	70.156720
3951.000000	70.166486
3950.000000	70.176987
3949.000000	70.188501
3948.000000	70.199539
3947.000000	70.208865
3946.000000	70.217421
3945.000000	70.230674
3944.000000	70.256907
3943.000000	70.297684
3942.000000	70.342100
3941.000000	70.376659
3940.000000	70.398671
3939.000000	70.417643
3938.000000	70.442290
3937.000000	70.469292
3936.000000	70.487169
3935.000000	70.490943
3934.000000	70.490720
3933.000000	70.501351
3932.000000	70.526313
3931.000000	70.555635
3930.000000	70.578405
3929.000000	70.594255
3928.000000	70.609803
3927.000000	70.631261
3926.000000	70.662418
3925.000000	70.701559
3924.000000	70.736299
3923.000000	70.751179
3922.000000	70.744285
3921.000000	70.730815
3920.000000	70.727901
3919.000000	70.740245
3918.000000	70.763847
3917.000000	70.797356
3916.000000	70.839882
3915.000000	70.884663
3914.000000	70.924973
3913.000000	70.963677
3912.000000	71.005535
3911.000000	71.047828
3910.000000	71.080628
3909.000000	71.098109
3908.000000	71.101859
3907.000000	71.094683
3906.000000	71.075900
3905.000000	71.044918
3904.000000	71.003902
3903.000000	70.958480
3902.000000	70.920346
3901.000000	70.906828
3900.000000	70.932745
3899.000000	70.994033
3898.000000	71.065398
3897.000000	71.125134
3896.000000	71.170309
3895.000000	71.211632
3894.000000	71.256462
3893.000000	71.302845
3892.000000	71.341594
3891.000000	71.368006
3890.000000	71.379308
3889.000000	71.368896
3888.000000	71.338148
3887.000000	71.314511
3886.000000	71.330490
3885.000000	71.378124
3884.000000	71.411846
3883.000000	71.409278
3882.000000	71.399323
3881.000000	71.422849
3880.000000	71.479760
3879.000000	71.533402
3878.000000	71.555546
3877.000000	71.550669
3876.000000	71.548360
3875.000000	71.578054
3874.000000	71.634043
3873.000000	71.671502
3872.000000	71.655299
3871.000000	71.609339
3870.000000	71.591633
3869.000000	71.616830
3868.000000	71.640329
3867.000000	71.629438
3866.000000	71.613527
3865.000000	71.643706
3864.000000	71.717033
3863.000000	71.784412
3862.000000	71.818676
3861.000000	71.835845
3860.000000	71.860763
3859.000000	71.909919
3858.000000	71.984827
3857.000000	72.065954
3856.000000	72.110925
3855.000000	72.088402
3854.000000	72.020987
3853.000000	71.956809
3852.000000	71.918163
3851.000000	71.907743
3850.000000	71.927694
3849.000000	71.982276
3848.000000	72.062769
3847.000000	72.147224
3846.000000	72.217791
3845.000000	72.268442
3844.000000	72.297707
3843.000000	72.309185
3842.000000	72.305944
3841.000000	72.291156
3840.000000	72.271666
3839.000000	72.256362
3838.000000	72.248332
3837.000000	72.250096
3836.000000	72.264921
3835.000000	72.292881
3834.000000	72.330620
3833.000000	72.378289
3832.000000	72.438526
3831.000000	72.505290
3830.000000	72.563762
3829.000000	72.605695
3828.000000	72.636640
3827.000000	72.671737
3826.000000	72.714140
3825.000000	72.742593
3824.000000	72.729774
3823.000000	72.684909
3822.000000	72.659686
3821.000000	72.687282
3820.000000	72.733747
3819.000000	72.747287
3818.000000	72.723595
3817.000000	72.709964
3816.000000	72.755656
3815.000000	72.848417
3814.000000	72.931510
3813.000000	72.977820
3812.000000	73.010696
3811.000000	73.057234
3810.000000	73.111469
3809.000000	73.146478
3808.000000	73.154870
3807.000000	73.158787
3806.000000	73.170453
3805.000000	73.170919
3804.000000	73.142185
3803.000000	73.107045
3802.000000	73.109094
3801.000000	73.151216
3800.000000	73.187746
3799.000000	73.192258
3798.000000	73.191408
3797.000000	73.226996
3796.000000	73.307194
3795.000000	73.399874
3794.000000	73.473635
3793.000000	73.527529
3792.000000	73.579034
3791.000000	73.635089
3790.000000	73.685967
3789.000000	73.720948
3788.000000	73.741290
3787.000000	73.755677
3786.000000	73.771381
3785.000000	73.790103
3784.000000	73.807395
3783.000000	73.814990
3782.000000	73.811523
3781.000000	73.812509
3780.000000	73.837097
3779.000000	73.883611
3778.000000	73.929135
3777.000000	73.956817
3776.000000	73.970882
3775.000000	73.987992
3774.000000	74.014060
3773.000000	74.035670
3772.000000	74.039758
3771.000000	74.036927
3770.000000	74.044695
3769.000000	74.059017
3768.000000	74.065055
3767.000000	74.066609
3766.000000	74.085337
3765.000000	74.131054
3764.000000	74.182315
3763.000000	74.206977
3762.000000	74.199900
3761.000000	74.192404
3760.000000	74.210400
3759.000000	74.240291
3758.000000	74.257392
3757.000000	74.263540
3756.000000	74.268295
3755.000000	74.265785
3754.000000	74.249041
3753.000000	74.229174
3752.000000	74.217947
3751.000000	74.199403
3750.000000	74.161892
3749.000000	74.136302
3748.000000	74.143104
3747.000000	74.157454
3746.000000	74.162236
3745.000000	74.187730
3744.000000	74.259927
3743.000000	74.344247
3742.000000	74.392861
3741.000000	74.409360
3740.000000	74.424783
3739.000000	74.445470
3738.000000	74.455999
3737.000000	74.464237
3736.000000	74.501724
3735.000000	74.565138
3734.000000	74.613838
3733.000000	74.638640
3732.000000	74.673157
3731.000000	74.737708
3730.000000	74.814638
3729.000000	74.876811
3728.000000	74.924684
3727.000000	74.981660
3726.000000	75.053952
3725.000000	75.116161
3724.000000	75.151403
3723.000000	75.175665
3722.000000	75.209181
3721.000000	75.253814
3720.000000	75.300039
3719.000000	75.341289
3718.000000	75.379284
3717.000000	75.417637
3716.000000	75.448622
3715.000000	75.459454
3714.000000	75.451443
3713.000000	75.444962
3712.000000	75.456451
3711.000000	75.478831
3710.000000	75.500845
3709.000000	75.526362
3708.000000	75.564372
3707.000000	75.618626
3706.000000	75.682883
3705.000000	75.745708
3704.000000	75.802713
3703.000000	75.860625
3702.000000	75.924125
3701.000000	75.984050
3700.000000	76.027931
3699.000000	76.052881
3698.000000	76.070072
3697.000000	76.096663
3696.000000	76.133390
3695.000000	76.159295
3694.000000	76.158905
3693.000000	76.144314
3692.000000	76.138108
3691.000000	76.145460
3690.000000	76.151829
3689.000000	76.149892
3688.000000	76.156168
3687.000000	76.188169
3686.000000	76.239329
3685.000000	76.296233
3684.000000	76.355498
3683.000000	76.412879
3682.000000	76.457423
3681.000000	76.482142
3680.000000	76.494438
3679.000000	76.492277
3678.000000	76.454865
3677.000000	76.388340
3676.000000	76.350473
3675.000000	76.368840
3674.000000	76.394861
3673.000000	76.378594
3672.000000	76.332543
3671.000000	76.330229
3670.000000	76.420141
3669.000000	76.552384
3668.000000	76.655521
3667.000000	76.722906
3666.000000	76.783976
3665.000000	76.860344
3664.000000	76.950447
3663.000000	77.037961
3662.000000	77.109903
3661.000000	77.161444
3660.000000	77.189826
3659.000000	77.190601
3658.000000	77.168990
3657.000000	77.144867
3656.000000	77.133357
3655.000000	77.122527
3654.000000	77.084873
3653.000000	77.009170
3652.000000	76.920920
3651.000000	76.864353
3650.000000	76.854630
3649.000000	76.863710
3648.000000	76.882049
3647.000000	76.931588
3646.000000	77.013141
3645.000000	77.104658
3644.000000	77.194295
3643.000000	77.286203
3642.000000	77.381251
3641.000000	77.465103
3640.000000	77.521533
3639.000000	77.552264
3638.000000	77.570358
3637.000000	77.580362
3636.000000	77.579264
3635.000000	77.573663
3634.000000	77.576234
3633.000000	77.578315
3632.000000	77.548612
3631.000000	77.475661
3630.000000	77.405012
3629.000000	77.393409
3628.000000	77.425704
3627.000000	77.455916
3626.000000	77.475056
3625.000000	77.500029
3624.000000	77.542041
3623.000000	77.592154
3622.000000	77.630044
3621.000000	77.650071
3620.000000	77.664475
3619.000000	77.676444
3618.000000	77.673196
3617.000000	77.648754
3616.000000	77.612675
3615.000000	77.587451
3614.000000	77.593365
3613.000000	77.623638
3612.000000	77.647686
3611.000000	77.646881
3610.000000	77.639296
3609.000000	77.664223
3608.000000	77.735429
3607.000000	77.824189
3606.000000	77.896039
3605.000000	77.941618
3604.000000	77.972971
3603.000000	78.004282
3602.000000	78.039006
3601.000000	78.071241
3600.000000	78.091954
3599.000000	78.093412
3598.000000	78.080025
3597.000000	78.067777
3596.000000	78.071959
3595.000000	78.096440
3594.000000	78.130344
3593.000000	78.153755
3592.000000	78.150870
3591.000000	78.118159
3590.000000	78.071846
3589.000000	78.048015
3588.000000	78.073498
3587.000000	78.131955
3586.000000	78.185962
3585.000000	78.222349
3584.000000	78.254007
3583.000000	78.296221
3582.000000	78.352703
3581.000000	78.415424
3580.000000	78.473057
3579.000000	78.518082
3578.000000	78.549410
3577.000000	78.570352
3576.000000	78.585008
3575.000000	78.595835
3574.000000	78.602387
3573.000000	78.599996
3572.000000	78.581153
3571.000000	78.539587
3570.000000	78.477537
3569.000000	78.418669
3568.000000	78.399880
3567.000000	78.433763
3566.000000	78.492393
3565.000000	78.545543
3564.000000	78.588001
3563.000000	78.631528
3562.000000	78.685697
3561.000000	78.747894
3560.000000	78.807394
3559.000000	78.855466
3558.000000	78.890111
3557.000000	78.913940
3556.000000	78.931567
3555.000000	78.949205
3554.000000	78.973448
3553.000000	79.005712
3552.000000	79.036909
3551.000000	79.052839
3550.000000	79.046322
3549.000000	79.026419
3548.000000	79.014582
3547.000000	79.028496
3546.000000	79.067117
3545.000000	79.114994
3544.000000	79.159417
3543.000000	79.198796
3542.000000	79.237014
3541.000000	79.276094
3540.000000	79.315712
3539.000000	79.355200
3538.000000	79.394470
3537.000000	79.432087
3536.000000	79.463300
3535.000000	79.482871
3534.000000	79.489646
3533.000000	79.489019
3532.000000	79.489427
3531.000000	79.496514
3530.000000	79.510054
3529.000000	79.527137
3528.000000	79.546588
3527.000000	79.569014
3526.000000	79.595374
3525.000000	79.627400
3524.000000	79.666213
3523.000000	79.707600
3522.000000	79.742908
3521.000000	79.767701
3520.000000	79.787494
3519.000000	79.811668
3518.000000	79.843576
3517.000000	79.878859
3516.000000	79.911954
3515.000000	79.940909
3514.000000	79.964648
3513.000000	79.980721
3512.000000	79.989845
3511.000000	79.998482
3510.000000	80.011597
3509.000000	80.025580
3508.000000	80.032137
3507.000000	80.028677
3506.000000	80.022471
3505.000000	80.025496
3504.000000	80.044472
3503.000000	80.074935
3502.000000	80.105995
3501.000000	80.130788
3500.000000	80.151183
3499.000000	80.172333
3498.000000	80.195804
3497.000000	80.218064
3496.000000	80.234149
3495.000000	80.241509
3494.000000	80.240673
3493.000000	80.233846
3492.000000	80.224426
3491.000000	80.216698
3490.000000	80.214102
3489.000000	80.218006
3488.000000	80.227276
3487.000000	80.237284
3486.000000	80.241342
3485.000000	80.236045
3484.000000	80.225342
3483.000000	80.217217
3482.000000	80.214481
3481.000000	80.211461
3480.000000	80.200625
3479.000000	80.180693
3478.000000	80.157392
3477.000000	80.138549
3476.000000	80.129209
3475.000000	80.128809
3474.000000	80.132364
3473.000000	80.134709
3472.000000	80.133507
3471.000000	80.128035
3470.000000	80.115818
3469.000000	80.092878
3468.000000	80.057845
3467.000000	80.013515
3466.000000	79.964553
3465.000000	79.915835
3464.000000	79.872888
3463.000000	79.840237
3462.000000	79.816990
3461.000000	79.796483
3460.000000	79.771804
3459.000000	79.740644
3458.000000	79.704358
3457.000000	79.664155
3456.000000	79.620194
3455.000000	79.572472
3454.000000	79.520610
3453.000000	79.464259
3452.000000	79.403948
3451.000000	79.341167
3450.000000	79.278028
3449.000000	79.217812
3448.000000	79.164498
3447.000000	79.118270
3446.000000	79.072908
3445.000000	79.021350
3444.000000	78.962672
3443.000000	78.900833
3442.000000	78.837447
3441.000000	78.769603
3440.000000	78.695665
3439.000000	78.619009
3438.000000	78.543611
3437.000000	78.468826
3436.000000	78.391670
3435.000000	78.311626
3434.000000	78.230154
3433.000000	78.147772
3432.000000	78.062551
3431.000000	77.970758
3430.000000	77.867968
3429.000000	77.751239
3428.000000	77.622107
3427.000000	77.485867
3426.000000	77.347825
3425.000000	77.211121
3424.000000	77.077955
3423.000000	76.950536
3422.000000	76.828945
3421.000000	76.709446
3420.000000	76.586457
3419.000000	76.455850
3418.000000	76.316120
3417.000000	76.167915
3416.000000	76.013209
3415.000000	75.853371
3414.000000	75.687230
3413.000000	75.512710
3412.000000	75.330365
3411.000000	75.143686
3410.000000	74.955251
3409.000000	74.764222
3408.000000	74.568722
3407.000000	74.368750
3406.000000	74.166220
3405.000000	73.963045
3404.000000	73.759048
3403.000000	73.550538
3402.000000	73.329997
3401.000000	73.089647
3400.000000	72.827303
3399.000000	72.548783
3398.000000	72.264182
3397.000000	71.981819
3396.000000	71.705405
3395.000000	71.435156
3394.000000	71.168717
3393.000000	70.900778
3392.000000	70.623429
3391.000000	70.328835
3390.000000	70.013576
3389.000000	69.680104
3388.000000	69.334041
3387.000000	68.980108
3386.000000	68.620990
3385.000000	68.259709
3384.000000	67.899928
3383.000000	67.543418
3382.000000	67.188215
3381.000000	66.830203
3380.000000	66.465462
3379.000000	66.090507
3378.000000	65.702342
3377.000000	65.300097
3376.000000	64.885975
3375.000000	64.464002
3374.000000	64.038266
3373.000000	63.612217
3372.000000	63.187828
3371.000000	62.763482
3370.000000	62.334641
3369.000000	61.897381
3368.000000	61.450894
3367.000000	60.996469
3366.000000	60.535580
3365.000000	60.070201
3364.000000	59.602667
3363.000000	59.133660
3362.000000	58.661484
3361.000000	58.184150
3360.000000	57.701344
3359.000000	57.213933
3358.000000	56.723146
3357.000000	56.231343
3356.000000	55.741643
3355.000000	55.255935
3354.000000	54.774158
3353.000000	54.295456
3352.000000	53.818309
3351.000000	53.339427
3350.000000	52.854911
3349.000000	52.363376
3348.000000	51.866543
3347.000000	51.366742
3346.000000	50.865799
3345.000000	50.366512
3344.000000	49.872438
3343.000000	49.385468
3342.000000	48.905161
3341.000000	48.430372
3340.000000	47.959474
3339.000000	47.489188
3338.000000	47.015935
3337.000000	46.538926
3336.000000	46.060198
3335.000000	45.581889
3334.000000	45.105677
3333.000000	44.634363
3332.000000	44.170744
3331.000000	43.714839
3330.000000	43.264486
3329.000000	42.818405
3328.000000	42.376440
3327.000000	41.937148
3326.000000	41.498585
3325.000000	41.061412
3324.000000	40.628210
3323.000000	40.200168
3322.000000	39.776790
3321.000000	39.358361
3320.000000	38.945953
3319.000000	38.538998
3318.000000	38.136257
3317.000000	37.738410
3316.000000	37.347284
3315.000000	36.963284
3314.000000	36.586062
3313.000000	36.216921
3312.000000	35.857199
3311.000000	35.505138
3310.000000	35.158008
3309.000000	34.816019
3308.000000	34.481746
3307.000000	34.156659
3306.000000	33.841529
3305.000000	33.539393
3304.000000	33.253154
3303.000000	32.981964
3302.000000	32.722857
3301.000000	32.475039
3300.000000	32.239378
3299.000000	32.014351
3298.000000	31.796995
3297.000000	31.587151
3296.000000	31.386711
3295.000000	31.196292
3294.000000	31.015678
3293.000000	30.847123
3292.000000	30.694518
3291.000000	30.558782
3290.000000	30.438303
3289.000000	30.331610
3288.000000	30.237105
3287.000000	30.151255
3286.000000	30.070359
3285.000000	29.994468
3284.000000	29.925503
3283.000000	29.863367
3282.000000	29.806969
3281.000000	29.757255
3280.000000	29.716041
3279.000000	29.682317
3278.000000	29.653352
3277.000000	29.628636
3276.000000	29.609194
3275.000000	29.594350
3274.000000	29.582301
3273.000000	29.573223
3272.000000	29.568968
3271.000000	29.570167
3270.000000	29.576447
3269.000000	29.587946
3268.000000	29.603680
3267.000000	29.620118
3266.000000	29.634233
3265.000000	29.647007
3264.000000	29.661212
3263.000000	29.677321
3262.000000	29.694782
3261.000000	29.714948
3260.000000	29.739455
3259.000000	29.767013
3258.000000	29.795003
3257.000000	29.823240
3256.000000	29.852822
3255.000000	29.882826
3254.000000	29.911331
3253.000000	29.938707
3252.000000	29.966783
3251.000000	29.995940
3250.000000	30.025862
3249.000000	30.057959
3248.000000	30.094093
3247.000000	30.133825
3246.000000	30.175230
3245.000000	30.217107
3244.000000	30.258149
3243.000000	30.295852
3242.000000	30.329199
3241.000000	30.360759
3240.000000	30.393703
3239.000000	30.428112
3238.000000	30.462641
3237.000000	30.497631
3236.000000	30.533818
3235.000000	30.569841
3234.000000	30.604128
3233.000000	30.637690
3232.000000	30.672064
3231.000000	30.706292
3230.000000	30.738718
3229.000000	30.770009
3228.000000	30.801499
3227.000000	30.832207
3226.000000	30.860480
3225.000000	30.887047
3224.000000	30.913260
3223.000000	30.938066
3222.000000	30.959704
3221.000000	30.979005
3220.000000	30.998143
3219.000000	31.017327
3218.000000	31.035498
3217.000000	31.052647
3216.000000	31.068708
3215.000000	31.081677
3214.000000	31.089596
3213.000000	31.093452
3212.000000	31.095523
3211.000000	31.096280
3210.000000	31.095357
3209.000000	31.093773
3208.000000	31.092681
3207.000000	31.091174
3206.000000	31.087686
3205.000000	31.082181
3204.000000	31.074563
3203.000000	31.062861
3202.000000	31.045506
3201.000000	31.023651
3200.000000	30.999270
3199.000000	30.972521
3198.000000	30.943435
3197.000000	30.914022
3196.000000	30.885943
3195.000000	30.857962
3194.000000	30.827987
3193.000000	30.795873
3192.000000	30.761939
3191.000000	30.724771
3190.000000	30.683411
3189.000000	30.639763
3188.000000	30.596231
3187.000000	30.552791
3186.000000	30.508751
3185.000000	30.465267
3184.000000	30.423473
3183.000000	30.382051
3182.000000	30.339373
3181.000000	30.296310
3180.000000	30.254391
3179.000000	30.213138
3178.000000	30.171727
3177.000000	30.131350
3176.000000	30.093403
3175.000000	30.057094
3174.000000	30.021370
3173.000000	29.987220
3172.000000	29.955630
3171.000000	29.925479
3170.000000	29.895854
3169.000000	29.868476
3168.000000	29.845404
3167.000000	29.826168
3166.000000	29.809654
3165.000000	29.796401
3164.000000	29.786733
3163.000000	29.778871
3162.000000	29.771271
3161.000000	29.764938
3160.000000	29.761011
3159.000000	29.758452
3158.000000	29.756624
3157.000000	29.757554
3156.000000	29.763244
3155.000000	29.772913
3154.000000	29.785433
3153.000000	29.802139
3152.000000	29.824242
3151.000000	29.849866
3150.000000	29.876311
3149.000000	29.903294
3148.000000	29.931682
3147.000000	29.961072
3146.000000	29.991323
3145.000000	30.024317
3144.000000	30.061532
3143.000000	30.101870
3142.000000	30.143910
3141.000000	30.188421
3140.000000	30.236355
3139.000000	30.286561
3138.000000	30.337827
3137.000000	30.390823
3136.000000	30.446017
3135.000000	30.502031
3134.000000	30.558076
3133.000000	30.615834
3132.000000	30.676587
3131.000000	30.739132
3130.000000	30.802632
3129.000000	30.868767
3128.000000	30.938818
3127.000000	31.011077
3126.000000	31.083629
3125.000000	31.157257
3124.000000	31.233055
3123.000000	31.309721
3122.000000	31.385866
3121.000000	31.462713
3120.000000	31.541842
3119.000000	31.622451
3118.000000	31.703520
3117.000000	31.786516
3116.000000	31.873371
3115.000000	31.963805
3114.000000	32.056669
3113.000000	32.152076
3112.000000	32.249818
3111.000000	32.347952
3110.000000	32.445104
3109.000000	32.542236
3108.000000	32.640177
3107.000000	32.737634
3106.000000	32.833658
3105.000000	32.929960
3104.000000	33.028699
3103.000000	33.129920
3102.000000	33.233309
3101.000000	33.339975
3100.000000	33.450459
3099.000000	33.562829
3098.000000	33.674964
3097.000000	33.786680
3096.000000	33.897907
3095.000000	34.007205
3094.000000	34.114136
3093.000000	34.221011
3092.000000	34.330203
3091.000000	34.441619
3090.000000	34.554474
3089.000000	34.669337
3088.000000	34.786391
3087.000000	34.903821
3086.000000	35.019968
3085.000000	35.135378
3084.000000	35.251038
3083.000000	35.366406
3082.000000	35.480950
3081.000000	35.595594
3080.000000	35.711044
3079.000000	35.826574
3078.000000	35.941965
3077.000000	36.058516
3076.000000	36.176719
3075.000000	36.295146
3074.000000	36.413011
3073.000000	36.531640
3072.000000	36.651839
3071.000000	36.772047
3070.000000	36.890809
3069.000000	37.008696
3068.000000	37.126174
3067.000000	37.241772
3066.000000	37.354313
3065.000000	37.465001
3064.000000	37.575662
3063.000000	37.686894
3062.000000	37.799444
3061.000000	37.915105
3060.000000	38.034426
3059.000000	38.155384
3058.000000	38.275713
3057.000000	38.394748
3056.000000	38.511670
3055.000000	38.624529
3054.000000	38.732616
3053.000000	38.838038
3052.000000	38.943370
3051.000000	39.049628
3050.000000	39.157641
3049.000000	39.268867
3048.000000	39.383204
3047.000000	39.498084
3046.000000	39.611402
3045.000000	39.723365
3044.000000	39.834270
3043.000000	39.942826
3042.000000	40.048540
3041.000000	40.153317
3040.000000	40.259012
3039.000000	40.365123
3038.000000	40.470572
3037.000000	40.575665
3036.000000	40.680589
3035.000000	40.784225
3034.000000	40.886383
3033.000000	40.989240
3032.000000	41.094576
3031.000000	41.201341
3030.000000	41.307756
3029.000000	41.413904
3028.000000	41.520280
3027.000000	41.625501
3026.000000	41.727577
3025.000000	41.826192
3024.000000	41.922222
3023.000000	42.016369
3022.000000	42.109894
3021.000000	42.205167
3020.000000	42.303812
3019.000000	42.405152
3018.000000	42.507600
3017.000000	42.610083
3016.000000	42.711205
3015.000000	42.808864
3014.000000	42.902281
3013.000000	42.993070
3012.000000	43.083200
3011.000000	43.173449
3010.000000	43.264755
3009.000000	43.359009
3008.000000	43.456993
3007.000000	43.557083
3006.000000	43.657226
3005.000000	43.756631
3004.000000	43.854527
3003.000000	43.949170
3002.000000	44.039638
3001.000000	44.127142
3000.000000	44.213406
2999.000000	44.299266
2998.000000	44.385933
2997.000000	44.475425
2996.000000	44.568067
2995.000000	44.661147
2994.000000	44.751743
2993.000000	44.839757
2992.000000	44.926891
2991.000000	45.014215
2990.000000	45.102186
2989.000000	45.191505
2988.000000	45.282071
2987.000000	45.372130
2986.000000	45.459804
2985.000000	45.544669
2984.000000	45.626837
2983.000000	45.706016
2982.000000	45.782829
2981.000000	45.859872
2980.000000	45.939980
2979.000000	46.024116
2978.000000	46.111756
2977.000000	46.202029
2976.000000	46.293357
2975.000000	46.383199
2974.000000	46.469542
2973.000000	46.551954
2972.000000	46.630714
2971.000000	46.706261
2970.000000	46.780365
2969.000000	46.856286
2968.000000	46.936383
2967.000000	47.020526
2966.000000	47.107410
2965.000000	47.195882
2964.000000	47.284041
2963.000000	47.368888
2962.000000	47.448468
2961.000000	47.523478
2960.000000	47.595834
2959.000000	47.667068
2958.000000	47.738776
2957.000000	47.812813
2956.000000	47.889508
2955.000000	47.967063
2954.000000	48.043847
2953.000000	48.119914
2952.000000	48.195303
2951.000000	48.268550
2950.000000	48.338436
2949.000000	48.405932
2948.000000	48.473088
2947.000000	48.541084
2946.000000	48.610399
2945.000000	48.681607
2944.000000	48.754624
2943.000000	48.828039
2942.000000	48.900409
2941.000000	48.971563
2940.000000	49.042067
2939.000000	49.112549
2938.000000	49.184225
2937.000000	49.258666
2936.000000	49.335884
2935.000000	49.413506
2934.000000	49.488740
2933.000000	49.560217
2932.000000	49.627605
2931.000000	49.691077
2930.000000	49.752164
2929.000000	49.813647
2928.000000	49.877427
2927.000000	49.943433
2926.000000	50.011183
2925.000000	50.080712
2924.000000	50.151062
2923.000000	50.219531
2922.000000	50.283773
2921.000000	50.343574
2920.000000	50.399818
2919.000000	50.453242
2918.000000	50.505103
2917.000000	50.557635
2916.000000	50.612544
2915.000000	50.669899
2914.000000	50.729204
2913.000000	50.790331
2912.000000	50.852710
2911.000000	50.914842
2910.000000	50.975473
2909.000000	51.034524
2908.000000	51.092106
2907.000000	51.147995
2906.000000	51.202543
2905.000000	51.257036
2904.000000	51.312324
2903.000000	51.368032
2902.000000	51.423584
2901.000000	51.479881
2900.000000	51.537231
2899.000000	51.595369
2898.000000	51.653907
2897.000000	51.712683
2896.000000	51.771054
2895.000000	51.828016
2894.000000	51.883537
2893.000000	51.938569
2892.000000	51.993236
2891.000000	52.046382
2890.000000	52.097515
2889.000000	52.147846
2888.000000	52.198616
2887.000000	52.249790
2886.000000	52.301239
2885.000000	52.353921
2884.000000	52.408713
2883.000000	52.465028
2882.000000	52.521515
2881.000000	52.577299
2880.000000	52.631809
2879.000000	52.684584
2878.000000	52.736396
2877.000000	52.789593
2876.000000	52.845814
2875.000000	52.903566
2874.000000	52.959056
2873.000000	53.009481
2872.000000	53.055274
2871.000000	53.099625
2870.000000	53.146131
2869.000000	53.196324
2868.000000	53.248732
2867.000000	53.300462
2866.000000	53.349799
2865.000000	53.397086
2864.000000	53.443699
2863.000000	53.491051
2862.000000	53.540309
2861.000000	53.591635
2860.000000	53.643517
2859.000000	53.693997
2858.000000	53.742852
2857.000000	53.791544
2856.000000	53.840988
2855.000000	53.890573
2854.000000	53.939583
2853.000000	53.988304
2852.000000	54.037480
2851.000000	54.087732
2850.000000	54.139499
2849.000000	54.192281
2848.000000	54.243925
2847.000000	54.292176
2846.000000	54.337245
2845.000000	54.381645
2844.000000	54.427772
2843.000000	54.476994
2842.000000	54.530645
2841.000000	54.589168
2840.000000	54.649600
2839.000000	54.706222
2838.000000	54.755385
2837.000000	54.798459
2836.000000	54.839135
2835.000000	54.879411
2834.000000	54.919297
2833.000000	54.958940
2832.000000	54.999319
2831.000000	55.041601
2830.000000	55.087088
2829.000000	55.137132
2828.000000	55.191825
2827.000000	55.249072
2826.000000	55.305796
2825.000000	55.359779
2824.000000	55.410057
2823.000000	55.456555
2822.000000	55.500315
2821.000000	55.543459
2820.000000	55.587964
2819.000000	55.634673
2818.000000	55.683718
2817.000000	55.735055
2816.000000	55.787890
2815.000000	55.840401
2814.000000	55.890928
2813.000000	55.939054
2812.000000	55.985036
2811.000000	56.028918
2810.000000	56.070958
2809.000000	56.112346
2808.000000	56.154567
2807.000000	56.198194
2806.000000	56.242571
2805.000000	56.286219
2804.000000	56.327343
2803.000000	56.364835
2802.000000	56.399484
2801.000000	56.433747
2800.000000	56.469793
2799.000000	56.508134
2798.000000	56.548309
2797.000000	56.589895
2796.000000	56.632119
2795.000000	56.673276
2794.000000	56.711561
2793.000000	56.746328
2792.000000	56.778156
2791.000000	56.808192
2790.000000	56.838062
2789.000000	56.869929
2788.000000	56.905799
2787.000000	56.946598
2786.000000	56.991841
2785.000000	57.039627
2784.000000	57.086825
2783.000000	57.130081
2782.000000	57.167543
2781.000000	57.199652
2780.000000	57.228365
2779.000000	57.256117
2778.000000	57.285375
2777.000000	57.317806
2776.000000	57.352942
2775.000000	57.388020
2774.000000	57.419812
2773.000000	57.446591
2772.000000	57.468275
2771.000000	57.485574
2770.000000	57.499579
2769.000000	57.511588
2768.000000	57.522565
2767.000000	57.532618
2766.000000	57.541142
2765.000000	57.547058
2764.000000	57.548880
2763.000000	57.545456
2762.000000	57.537092
2761.000000	57.525639
2760.000000	57.513432
2759.000000	57.502578
2758.000000	57.495190
2757.000000	57.492805
2756.000000	57.494679
2755.000000	57.497286
2754.000000	57.496270
2753.000000	57.488801
2752.000000	57.473977
2751.000000	57.452152
2750.000000	57.424882
2749.000000	57.394900
2748.000000	57.365133
2747.000000	57.337331
2746.000000	57.311526
2745.000000	57.286173
2744.000000	57.258357
2743.000000	57.224859
2742.000000	57.183877
2741.000000	57.135788
2740.000000	57.082544
2739.000000	57.027161
2738.000000	56.973978
2737.000000	56.928316
2736.000000	56.894677
2735.000000	56.875268
2734.000000	56.870486
2733.000000	56.879652
2732.000000	56.901253
2731.000000	56.933583
2730.000000	56.975634
2729.000000	57.027403
2728.000000	57.088561
2727.000000	57.157678
2726.000000	57.233179
2725.000000	57.313614
2724.000000	57.396868
2723.000000	57.479949
2722.000000	57.560441
2721.000000	57.637973
2720.000000	57.713628
2719.000000	57.788581
2718.000000	57.863678
2717.000000	57.939365
2716.000000	58.014953
2715.000000	58.088148
2714.000000	58.155670
2713.000000	58.214420
2712.000000	58.262307
2711.000000	58.298666
2710.000000	58.325005
2709.000000	58.344833
2708.000000	58.362202
2707.000000	58.380423
2706.000000	58.401518
2705.000000	58.426069
2704.000000	58.452633
2703.000000	58.477782
2702.000000	58.497657
2701.000000	58.509531
2700.000000	58.512410
2699.000000	58.507074
2698.000000	58.496187
2697.000000	58.483823
2696.000000	58.473688
2695.000000	58.467680
2694.000000	58.465983
2693.000000	58.467713
2692.000000	58.471069
2691.000000	58.473610
2690.000000	58.473385
2689.000000	58.469875
2688.000000	58.463640
2687.000000	58.455490
2686.000000	58.446350
2685.000000	58.437293
2684.000000	58.428966
2683.000000	58.421077
2682.000000	58.412911
2681.000000	58.404127
2680.000000	58.394868
2679.000000	58.385662
2678.000000	58.377729
2677.000000	58.372884
2676.000000	58.372541
2675.000000	58.376693
2674.000000	58.383894
2673.000000	58.391974
2672.000000	58.398780
2671.000000	58.403143
2670.000000	58.405762
2669.000000	58.408883
2668.000000	58.415044
2667.000000	58.426148
2666.000000	58.443487
2665.000000	58.467464
2664.000000	58.496547
2663.000000	58.527188
2662.000000	58.555295
2661.000000	58.577581
2660.000000	58.591761
2659.000000	58.596738
2658.000000	58.593531
2657.000000	58.585659
2656.000000	58.577781
2655.000000	58.573757
2654.000000	58.575882
2653.000000	58.584812
2652.000000	58.599399
2651.000000	58.617054
2650.000000	58.635182
2649.000000	58.652396
2648.000000	58.668641
2647.000000	58.684778
2646.000000	58.702532
2645.000000	58.724414
2644.000000	58.752647
2643.000000	58.788363
2642.000000	58.831714
2641.000000	58.882058
2640.000000	58.937797
2639.000000	58.996252
2638.000000	59.054735
2637.000000	59.111716
2636.000000	59.166803
2635.000000	59.219926
2634.000000	59.270674
2633.000000	59.318132
2632.000000	59.361046
2631.000000	59.398429
2630.000000	59.430080
2629.000000	59.456725
2628.000000	59.479550
2627.000000	59.499873
2626.000000	59.519440
2625.000000	59.540185
2624.000000	59.563354
2623.000000	59.588701
2622.000000	59.614481
2621.000000	59.638074
2620.000000	59.656514
2619.000000	59.667295
2618.000000	59.669235
2617.000000	59.662727
2616.000000	59.649574
2615.000000	59.632614
2614.000000	59.615301
2613.000000	59.600623
2612.000000	59.589539
2611.000000	59.580786
2610.000000	59.571981
2609.000000	59.560728
2608.000000	59.544974
2607.000000	59.523458
2606.000000	59.496788
2605.000000	59.467832
2604.000000	59.440725
2603.000000	59.419585
2602.000000	59.408121
2601.000000	59.409084
2600.000000	59.423382
2599.000000	59.449756
2598.000000	59.485373
2597.000000	59.527100
2596.000000	59.571799
2595.000000	59.616730
2594.000000	59.660402
2593.000000	59.702711
2592.000000	59.744520
2591.000000	59.786946
2590.000000	59.831076
2589.000000	59.877702
2588.000000	59.926771
2587.000000	59.977561
2586.000000	60.029542
2585.000000	60.082892
2584.000000	60.138120
2583.000000	60.195443
2582.000000	60.254737
2581.000000	60.315527
2580.000000	60.376876
2579.000000	60.437597
2578.000000	60.496698
2577.000000	60.553435
2576.000000	60.607069
2575.000000	60.657253
2574.000000	60.704896
2573.000000	60.752280
2572.000000	60.801924
2571.000000	60.855391
2570.000000	60.912846
2569.000000	60.972785
2568.000000	61.031806
2567.000000	61.085079
2566.000000	61.128022
2565.000000	61.158122
2564.000000	61.175249
2563.000000	61.181340
2562.000000	61.179794
2561.000000	61.174746
2560.000000	61.169974
2559.000000	61.167311
2558.000000	61.166302
2557.000000	61.164682
2556.000000	61.159440
2555.000000	61.148372
2554.000000	61.131394
2553.000000	61.111093
2552.000000	61.092097
2551.000000	61.080082
2550.000000	61.080628
2549.000000	61.098139
2548.000000	61.134200
2547.000000	61.186901
2546.000000	61.251928
2545.000000	61.323746
2544.000000	61.396944
2543.000000	61.467158
2542.000000	61.532080
2541.000000	61.591917
2540.000000	61.648278
2539.000000	61.702660
2538.000000	61.755668
2537.000000	61.807109
2536.000000	61.856110
2535.000000	61.901461
2534.000000	61.942225
2533.000000	61.978582
2532.000000	62.012135
2531.000000	62.045376
2530.000000	62.080955
2529.000000	62.120877
2528.000000	62.165553
2527.000000	62.213199
2526.000000	62.260064
2525.000000	62.301724
2524.000000	62.334513
2523.000000	62.356669
2522.000000	62.369266
2521.000000	62.376340
2520.000000	62.383929
2519.000000	62.397927
2518.000000	62.422084
2517.000000	62.457031
2516.000000	62.500292
2515.000000	62.546841
2514.000000	62.590314
2513.000000	62.624890
2512.000000	62.647260
2511.000000	62.657673
2510.000000	62.659777
2509.000000	62.659445
2508.000000	62.662886
2507.000000	62.674772
2506.000000	62.696886
2505.000000	62.727837
2504.000000	62.763647
2503.000000	62.799151
2502.000000	62.829735
2501.000000	62.852896
2500.000000	62.868755
2499.000000	62.879479
2498.000000	62.888122
2497.000000	62.897671
2496.000000	62.910102
2495.000000	62.925615
2494.000000	62.942622
2493.000000	62.958786
2492.000000	62.972560
2491.000000	62.984019
2490.000000	62.994720
2489.000000	63.006885
2488.000000	63.022488
2487.000000	63.042334
2486.000000	63.065520
2485.000000	63.089433
2484.000000	63.110486
2483.000000	63.125130
2482.000000	63.131142
2481.000000	63.128707
2480.000000	63.120893
2479.000000	63.113036
2478.000000	63.111163
2477.000000	63.120012
2476.000000	63.141225
2475.000000	63.172546
2474.000000	63.208364
2473.000000	63.241545
2472.000000	63.265506
2471.000000	63.276028
2470.000000	63.272519
2469.000000	63.258586
2468.000000	63.241223
2467.000000	63.228388
2466.000000	63.226162
2465.000000	63.236959
2464.000000	63.259411
2463.000000	63.289226
2462.000000	63.320409
2461.000000	63.346736
2460.000000	63.363556
2459.000000	63.369334
2458.000000	63.366124
2457.000000	63.358588
2456.000000	63.351976
2455.000000	63.350094
2454.000000	63.354493
2453.000000	63.364664
2452.000000	63.378710
2451.000000	63.394021
2450.000000	63.408207
2449.000000	63.420154
2448.000000	63.430529
2447.000000	63.441133
2446.000000	63.453517
2445.000000	63.467909
2444.000000	63.482932
2443.000000	63.496086
2442.000000	63.504728
2441.000000	63.507368
2440.000000	63.504467
2439.000000	63.498474
2438.000000	63.493271
2437.000000	63.493363
2436.000000	63.502563
2435.000000	63.522413
2434.000000	63.550998
2433.000000	63.583251
2432.000000	63.612641
2431.000000	63.633266
2430.000000	63.641519
2429.000000	63.637221
2428.000000	63.623917
2427.000000	63.607946
2426.000000	63.596530
2425.000000	63.595613
2424.000000	63.608247
2423.000000	63.633712
2422.000000	63.667735
2421.000000	63.703687
2420.000000	63.734540
2419.000000	63.754849
2418.000000	63.762309
2417.000000	63.758482
2416.000000	63.748298
2415.000000	63.738254
2414.000000	63.733996
2413.000000	63.738626
2412.000000	63.752310
2411.000000	63.772938
2410.000000	63.797057
2409.000000	63.820946
2408.000000	63.841605
2407.000000	63.857624
2406.000000	63.869359
2405.000000	63.878471
2404.000000	63.886889
2403.000000	63.895886
2402.000000	63.905611
2401.000000	63.915287
2400.000000	63.923765
2399.000000	63.930396
2398.000000	63.935924
2397.000000	63.942773
2396.000000	63.954091
2395.000000	63.972027
2394.000000	63.996645
2393.000000	64.025997
2392.000000	64.056824
2391.000000	64.085100
2390.000000	64.106859
2389.000000	64.119489
2388.000000	64.123138
2387.000000	64.120965
2386.000000	64.118331
2385.000000	64.121420
2384.000000	64.135502
2383.000000	64.163489
2382.000000	64.205046
2381.000000	64.256729
2380.000000	64.312907
2379.000000	64.366943
2378.000000	64.413073
2377.000000	64.448196
2376.000000	64.472875
2375.000000	64.490398
2374.000000	64.505426
2373.000000	64.523021
2372.000000	64.547622
2371.000000	64.581696
2370.000000	64.624271
2369.000000	64.671382
2368.000000	64.718194
2367.000000	64.761064
2366.000000	64.797928
2365.000000	64.827851
2364.000000	64.852716
2363.000000	64.875919
2362.000000	64.899515
2361.000000	64.926422
2360.000000	64.957953
2359.000000	64.992201
2358.000000	65.027177
2357.000000	65.059610
2356.000000	65.090291
2355.000000	65.120516
2354.000000	65.150636
2353.000000	65.180958
2352.000000	65.211134
2351.000000	65.243932
2350.000000	65.277298
2349.000000	65.307115
2348.000000	65.333894
2347.000000	65.361560
2346.000000	65.396681
2345.000000	65.435037
2344.000000	65.469587
2343.000000	65.496737
2342.000000	65.520850
2341.000000	65.551763
2340.000000	65.590458
2339.000000	65.633712
2338.000000	65.673973
2337.000000	65.706342
2336.000000	65.728004
2335.000000	65.741592
2334.000000	65.751145
2333.000000	65.763484
2332.000000	65.781960
2331.000000	65.810938
2330.000000	65.848713
2329.000000	65.892489
2328.000000	65.939900
2327.000000	65.986639
2326.000000	66.031681
2325.000000	66.070313
2324.000000	66.102423
2323.000000	66.128692
2322.000000	66.151416
2321.000000	66.174621
2320.000000	66.199841
2319.000000	66.230102
2318.000000	66.263960
2317.000000	66.300938
2316.000000	66.338026
2315.000000	66.374061
2314.000000	66.406556
2313.000000	66.434800
2312.000000	66.459572
2311.000000	66.483973
2310.000000	66.511036
2309.000000	66.541824
2308.000000	66.575772
2307.000000	66.610683
2306.000000	66.643596
2305.000000	66.671348
2304.000000	66.692700
2303.000000	66.709459
2302.000000	66.725116
2301.000000	66.743843
2300.000000	66.768827
2299.000000	66.801710
2298.000000	66.841221
2297.000000	66.883307
2296.000000	66.922979
2295.000000	66.955728
2294.000000	66.979524
2293.000000	66.994621
2292.000000	67.004643
2291.000000	67.014497
2290.000000	67.029246
2289.000000	67.052093
2288.000000	67.084290
2287.000000	67.123910
2286.000000	67.165978
2285.000000	67.204194
2284.000000	67.234128
2283.000000	67.254653
2282.000000	67.267424
2281.000000	67.276394
2280.000000	67.287200
2279.000000	67.305452
2278.000000	67.333728
2277.000000	67.370716
2276.000000	67.412217
2275.000000	67.453016
2274.000000	67.487924
2273.000000	67.513447
2272.000000	67.529683
2271.000000	67.540251
2270.000000	67.550371
2269.000000	67.564916
2268.000000	67.587547
2267.000000	67.619509
2266.000000	67.658357
2265.000000	67.698511
2264.000000	67.733852
2263.000000	67.759878
2262.000000	67.774884
2261.000000	67.780472
2260.000000	67.781791
2259.000000	67.785522
2258.000000	67.796666
2257.000000	67.816871
2256.000000	67.844565
2255.000000	67.875584
2254.000000	67.903557
2253.000000	67.922151
2252.000000	67.927950
2251.000000	67.921651
2250.000000	67.906762
2249.000000	67.888420
2248.000000	67.871771
2247.000000	67.860878
2246.000000	67.855888
2245.000000	67.852886
2244.000000	67.846189
2243.000000	67.830430
2242.000000	67.801716
2241.000000	67.759102
2240.000000	67.705774
2239.000000	67.648041
2238.000000	67.592561
2237.000000	67.544533
2236.000000	67.507283
2235.000000	67.481461
2234.000000	67.464220
2233.000000	67.450331
2232.000000	67.435217
2231.000000	67.416899
2230.000000	67.395982
2229.000000	67.375375
2228.000000	67.359914
2227.000000	67.354564
2226.000000	67.361360
2225.000000	67.378152
2224.000000	67.399835
2223.000000	67.420206
2222.000000	67.433206
2221.000000	67.434607
2220.000000	67.424080
2219.000000	67.405488
2218.000000	67.385045
2217.000000	67.369298
2216.000000	67.363669
2215.000000	67.370599
2214.000000	67.387787
2213.000000	67.408858
2212.000000	67.426496
2211.000000	67.435391
2210.000000	67.433313
2209.000000	67.421456
2208.000000	67.404396
2207.000000	67.388571
2206.000000	67.379584
2205.000000	67.380471
2204.000000	67.391375
2203.000000	67.409381
2202.000000	67.428733
2201.000000	67.443002
2200.000000	67.448333
2199.000000	67.444748
2198.000000	67.434901
2197.000000	67.422779
2196.000000	67.413174
2195.000000	67.410291
2194.000000	67.415328
2193.000000	67.425654
2192.000000	67.436475
2191.000000	67.442968
2190.000000	67.441418
2189.000000	67.430297
2188.000000	67.411414
2187.000000	67.389483
2186.000000	67.369996
2185.000000	67.357348
2184.000000	67.353919
2183.000000	67.359226
2182.000000	67.369461
2181.000000	67.379057
2180.000000	67.383608
2179.000000	67.381598
2178.000000	67.374158
2177.000000	67.364579
2176.000000	67.357972
2175.000000	67.359588
2174.000000	67.372245
2173.000000	67.395306
2172.000000	67.425653
2171.000000	67.458718
2170.000000	67.489073
2169.000000	67.512106
2168.000000	67.526524
2167.000000	67.534886
2166.000000	67.541645
2165.000000	67.551356
2164.000000	67.568097
2163.000000	67.594442
2162.000000	67.629742
2161.000000	67.669969
2160.000000	67.709748
2159.000000	67.744420
2158.000000	67.770815
2157.000000	67.788042
2156.000000	67.798448
2155.000000	67.806929
2154.000000	67.818571
2153.000000	67.836910
2152.000000	67.863525
2151.000000	67.897540
2150.000000	67.935196
2149.000000	67.971211
2148.000000	68.001543
2147.000000	68.024569
2146.000000	68.040419
2145.000000	68.050924
2144.000000	68.060106
2143.000000	68.072789
2142.000000	68.091999
2141.000000	68.117975
2140.000000	68.149351
2139.000000	68.183773
2138.000000	68.217738
2137.000000	68.247902
2136.000000	68.273491
2135.000000	68.296438
2134.000000	68.319080
2133.000000	68.342968
2132.000000	68.369559
2131.000000	68.400021
2130.000000	68.433510
2129.000000	68.467047
2128.000000	68.497550
2127.000000	68.523097
2126.000000	68.542671
2125.000000	68.556867
2124.000000	68.569198
2123.000000	68.584844
2122.000000	68.607214
2121.000000	68.636584
2120.000000	68.671573
2119.000000	68.709865
2118.000000	68.747317
2117.000000	68.778795
2116.000000	68.801346
2115.000000	68.815677
2114.000000	68.824692
2113.000000	68.832256
2112.000000	68.843326
2111.000000	68.862784
2110.000000	68.892717
2109.000000	68.931636
2108.000000	68.976025
2107.000000	69.021001
2106.000000	69.059944
2105.000000	69.086531
2104.000000	69.098771
2103.000000	69.099919
2102.000000	69.094930
2101.000000	69.088277
2100.000000	69.084443
2099.000000	69.087512
2098.000000	69.098458
2097.000000	69.113905
2096.000000	69.129208
2095.000000	69.140609
2094.000000	69.144738
2093.000000	69.138861
2092.000000	69.123566
2091.000000	69.103595
2090.000000	69.084691
2089.000000	69.070460
2088.000000	69.062447
2087.000000	69.061173
2086.000000	69.065461
2085.000000	69.072473
2084.000000	69.080057
2083.000000	69.088580
2082.000000	69.099860
2081.000000	69.115751
2080.000000	69.138027
2079.000000	69.167947
2078.000000	69.204422
2077.000000	69.243103
2076.000000	69.279384
2075.000000	69.310177
2074.000000	69.333715
2073.000000	69.349782
2072.000000	69.361219
2071.000000	69.375126
2070.000000	69.399252
2069.000000	69.437717
2068.000000	69.489932
2067.000000	69.552508
2066.000000	69.620624
2065.000000	69.688249
2064.000000	69.748852
2063.000000	69.797028
2062.000000	69.830469
2061.000000	69.851898
2060.000000	69.869474
2059.000000	69.893288
2058.000000	69.930420
2057.000000	69.982959
2056.000000	70.049263
2055.000000	70.124525
2054.000000	70.200886
2053.000000	70.270150
2052.000000	70.327343
2051.000000	70.371880
2050.000000	70.405726
2049.000000	70.432479
2048.000000	70.457959
2047.000000	70.488815
2046.000000	70.528032
2045.000000	70.573404
2044.000000	70.620821
2043.000000	70.667548
2042.000000	70.712655
2041.000000	70.756759
2040.000000	70.802166
2039.000000	70.851682
2038.000000	70.906478
2037.000000	70.965645
2036.000000	71.027374
2035.000000	71.088861
2034.000000	71.145450
2033.000000	71.192735
2032.000000	71.230498
2031.000000	71.262796
2030.000000	71.295433
2029.000000	71.334316
2028.000000	71.385463
2027.000000	71.452805
2026.000000	71.534083
2025.000000	71.622208
2024.000000	71.708152
2023.000000	71.784523
2022.000000	71.845127
2021.000000	71.885816
2020.000000	71.907384
2019.000000	71.917155
2018.000000	71.927426
2017.000000	71.951854
2016.000000	72.000174
2015.000000	72.073278
2014.000000	72.163138
2013.000000	72.258331
2012.000000	72.349075
2011.000000	72.427818
2010.000000	72.489459
2009.000000	72.534307
2008.000000	72.570037
2007.000000	72.607143
2006.000000	72.652326
2005.000000	72.708737
2004.000000	72.776536
2003.000000	72.853754
2002.000000	72.934191
2001.000000	73.011308
2000.000000	73.083964
1999.000000	73.152809
1998.000000	73.220085
1997.000000	73.289059
1996.000000	73.361710
1995.000000	73.433193
1994.000000	73.494555
1993.000000	73.542635
1992.000000	73.583836
1991.000000	73.624112
1990.000000	73.661238
1989.000000	73.693618
1988.000000	73.730785
1987.000000	73.785196
1986.000000	73.857803
1985.000000	73.940876
1984.000000	74.028820
1983.000000	74.117504
1982.000000	74.195171
1981.000000	74.248106
1980.000000	74.275170
1979.000000	74.285317
1978.000000	74.288626
1977.000000	74.293266
1976.000000	74.311669
1975.000000	74.355074
1974.000000	74.423208
1973.000000	74.506145
1972.000000	74.594783
1971.000000	74.680148
1970.000000	74.746788
1969.000000	74.780355
1968.000000	74.783573
1967.000000	74.775453
1966.000000	74.772911
1965.000000	74.781859
1964.000000	74.806131
1963.000000	74.850844
1962.000000	74.912364
1961.000000	74.977779
1960.000000	75.037751
1959.000000	75.091238
1958.000000	75.136597
1957.000000	75.169648
1956.000000	75.194103
1955.000000	75.220394
1954.000000	75.252996
1953.000000	75.287232
1952.000000	75.319440
1951.000000	75.353181
1950.000000	75.386257
1949.000000	75.412201
1948.000000	75.435405
1947.000000	75.469047
1946.000000	75.515021
1945.000000	75.559508
1944.000000	75.594212
1943.000000	75.628094
1942.000000	75.670154
1941.000000	75.712587
1940.000000	75.740734
1939.000000	75.750981
1938.000000	75.748801
1937.000000	75.739693
1936.000000	75.731549
1935.000000	75.737583
1934.000000	75.769142
1933.000000	75.825656
1932.000000	75.897683
1931.000000	75.977411
1930.000000	76.050276
1929.000000	76.101239
1928.000000	76.126111
1927.000000	76.132480
1926.000000	76.128193
1925.000000	76.108606
1924.000000	76.084033
1923.000000	76.084052
1922.000000	76.125944
1921.000000	76.188536
1920.000000	76.238543
1919.000000	76.271410
1918.000000	76.305195
1917.000000	76.343243
1916.000000	76.370477
1915.000000	76.379479
1914.000000	76.384074
1913.000000	76.398078
1912.000000	76.419778
1911.000000	76.443018
1910.000000	76.466402
1909.000000	76.493389
1908.000000	76.522523
1907.000000	76.551246
1906.000000	76.583841
1905.000000	76.617524
1904.000000	76.650538
1903.000000	76.684584
1902.000000	76.720686
1901.000000	76.756995
1900.000000	76.789307
1899.000000	76.813732
1898.000000	76.828591
1897.000000	76.827420
1896.000000	76.811919
1895.000000	76.800632
1894.000000	76.815217
1893.000000	76.857117
1892.000000	76.908950
1891.000000	76.957553
1890.000000	77.001774
1889.000000	77.040491
1888.000000	77.064331
1887.000000	77.063093
1886.000000	77.037616
1885.000000	76.998709
1884.000000	76.959847
1883.000000	76.934280
1882.000000	76.931843
1881.000000	76.959203
1880.000000	77.014761
1879.000000	77.086823
1878.000000	77.161767
1877.000000	77.223104
1876.000000	77.256242
1875.000000	77.263920
1874.000000	77.261357
1873.000000	77.257669
1872.000000	77.249228
1871.000000	77.232204
1870.000000	77.216202
1869.000000	77.217810
1868.000000	77.242773
1867.000000	77.279706
1866.000000	77.314163
1865.000000	77.340041
1864.000000	77.358142
1863.000000	77.368576
1862.000000	77.369415
1861.000000	77.362935
1860.000000	77.355606
1859.000000	77.351551
1858.000000	77.351163
1857.000000	77.353862
1856.000000	77.357504
1855.000000	77.361841
1854.000000	77.366167
1853.000000	77.374544
1852.000000	77.393300
1851.000000	77.415333
1850.000000	77.443913
1849.000000	77.488827
1848.000000	77.544556
1847.000000	77.574756
1846.000000	77.540873
1845.000000	77.447084
1844.000000	77.349820
1843.000000	77.302717
1842.000000	77.296915
1841.000000	77.300171
1840.000000	77.311808
1839.000000	77.350612
1838.000000	77.412488
1837.000000	77.463194
1836.000000	77.488496
1835.000000	77.502662
1834.000000	77.512998
1833.000000	77.504222
1832.000000	77.459009
1831.000000	77.380625
1830.000000	77.304983
1829.000000	77.264008
1828.000000	77.253463
1827.000000	77.247197
1826.000000	77.240307
1825.000000	77.248695
1824.000000	77.270821
1823.000000	77.281616
1822.000000	77.259396
1821.000000	77.208561
1820.000000	77.143404
1819.000000	77.073015
1818.000000	77.006855
1817.000000	76.959159
1816.000000	76.947162
1815.000000	76.963267
1814.000000	76.981089
1813.000000	76.984464
1812.000000	76.970460
1811.000000	76.946079
1810.000000	76.913364
1809.000000	76.875951
1808.000000	76.846039
1807.000000	76.830832
1806.000000	76.824156
1805.000000	76.810059
1804.000000	76.778846
1803.000000	76.728461
1802.000000	76.667485
1801.000000	76.621623
1800.000000	76.602866
1799.000000	76.608840
1798.000000	76.633741
1797.000000	76.681041
1796.000000	76.744944
1795.000000	76.790913
1794.000000	76.776026
1793.000000	76.693407
1792.000000	76.581277
1791.000000	76.491103
1790.000000	76.435246
1789.000000	76.398828
1788.000000	76.370133
1787.000000	76.348510
1786.000000	76.340392
1785.000000	76.358626
1784.000000	76.409901
1783.000000	76.458655
1782.000000	76.451756
1781.000000	76.386451
1780.000000	76.289744
1779.000000	76.196172
1778.000000	76.117024
1777.000000	76.065316
1776.000000	76.053556
1775.000000	76.057527
1774.000000	76.038579
1773.000000	75.991939
1772.000000	75.946858
1771.000000	75.905156
1770.000000	75.824129
1769.000000	75.686854
1768.000000	75.562770
1767.000000	75.524801
1766.000000	75.549063
1765.000000	75.558326
1764.000000	75.514948
1763.000000	75.441128
1762.000000	75.372315
1761.000000	75.328828
1760.000000	75.300125
1759.000000	75.261056
1758.000000	75.189160
1757.000000	75.117263
1756.000000	75.099078
1755.000000	75.123660
1754.000000	75.114752
1753.000000	75.026661
1752.000000	74.897673
1751.000000	74.801317
1750.000000	74.748404
1749.000000	74.680926
1748.000000	74.595830
1747.000000	74.528267
1746.000000	74.485541
1745.000000	74.451791
1744.000000	74.429814
1743.000000	74.435263
1742.000000	74.431086
1741.000000	74.350786
1740.000000	74.209829
1739.000000	74.108044
1738.000000	74.062963
1737.000000	73.979399
1736.000000	73.780082
1735.000000	73.503979
1734.000000	73.283613
1733.000000	73.198789
1732.000000	73.176482
1731.000000	73.126082
1730.000000	73.034167
1729.000000	72.921842
1728.000000	72.806241
1727.000000	72.683549
1726.000000	72.542266
1725.000000	72.372924
1724.000000	72.188224
1723.000000	72.047155
1722.000000	71.972625
1721.000000	71.914997
1720.000000	71.805181
1719.000000	71.617130
1718.000000	71.368431
1717.000000	71.110624
1716.000000	70.888855
1715.000000	70.700632
1714.000000	70.533985
1713.000000	70.376799
1712.000000	70.216211
1711.000000	70.049936
1710.000000	69.885126
1709.000000	69.732040
1708.000000	69.575169
1707.000000	69.380139
1706.000000	69.159265
1705.000000	68.983166
1704.000000	68.886868
1703.000000	68.790482
1702.000000	68.590893
1701.000000	68.288223
1700.000000	68.012861
1699.000000	67.829380
1698.000000	67.605893
1697.000000	67.231604
1696.000000	66.801602
1695.000000	66.503560
1694.000000	66.357461
1693.000000	66.238349
1692.000000	66.078123
1691.000000	65.897253
1690.000000	65.722441
1689.000000	65.570538
1688.000000	65.443934
1687.000000	65.303400
1686.000000	65.085197
1685.000000	64.723563
1684.000000	64.294082
1683.000000	63.978686
1682.000000	63.767067
1681.000000	63.556240
1680.000000	63.361622
1679.000000	63.226892
1678.000000	63.116339
1677.000000	62.944698
1676.000000	62.691715
1675.000000	62.440419
1674.000000	62.261982
1673.000000	62.117368
1672.000000	61.930751
1671.000000	61.684677
1670.000000	61.385554
1669.000000	61.069751
1668.000000	60.803530
1667.000000	60.620355
1666.000000	60.486281
1665.000000	60.337569
1664.000000	60.138798
1663.000000	59.908551
1662.000000	59.679399
1661.000000	59.465869
1660.000000	59.257642
1659.000000	59.070218
1658.000000	58.933790
1657.000000	58.847034
1656.000000	58.748370
1655.000000	58.564596
1654.000000	58.219182
1653.000000	57.764940
1652.000000	57.492174
1651.000000	57.445636
1650.000000	57.420254
1649.000000	57.309814
1648.000000	57.079861
1647.000000	56.749547
1646.000000	56.414934
1645.000000	56.150563
1644.000000	55.942006
1643.000000	55.753417
1642.000000	55.571039
1641.000000	55.414147
1640.000000	55.302414
1639.000000	55.229018
1638.000000	55.145378
1637.000000	54.978460
1636.000000	54.701157
1635.000000	54.412419
1634.000000	54.215165
1633.000000	54.064433
1632.000000	53.909270
1631.000000	53.753931
1630.000000	53.607060
1629.000000	53.455567
1628.000000	53.301425
1627.000000	53.173380
1626.000000	53.074810
1625.000000	52.967870
1624.000000	52.821839
1623.000000	52.667046
1622.000000	52.558235
1621.000000	52.500355
1620.000000	52.451392
1619.000000	52.377101
1618.000000	52.259436
1617.000000	52.093662
1616.000000	51.923175
1615.000000	51.805410
1614.000000	51.734373
1613.000000	51.671849
1612.000000	51.615220
1611.000000	51.584035
1610.000000	51.577884
1609.000000	51.570439
1608.000000	51.546872
1607.000000	51.518038
1606.000000	51.488158
1605.000000	51.447206
1604.000000	51.386099
1603.000000	51.320095
1602.000000	51.270845
1601.000000	51.239714
1600.000000	51.223920
1599.000000	51.233653
1598.000000	51.273342
1597.000000	51.322366
1596.000000	51.355938
1595.000000	51.372303
1594.000000	51.379046
1593.000000	51.371065
1592.000000	51.342702
1591.000000	51.308256
1590.000000	51.286646
1589.000000	51.278806
1588.000000	51.277437
1587.000000	51.288888
1586.000000	51.317607
1585.000000	51.351756
1584.000000	51.377989
1583.000000	51.393019
1582.000000	51.413427
1581.000000	51.450131
1580.000000	51.493117
1579.000000	51.517916
1578.000000	51.506293
1577.000000	51.441238
1576.000000	51.342383
1575.000000	51.284619
1574.000000	51.290399
1573.000000	51.309784
1572.000000	51.307180
1571.000000	51.287339
1570.000000	51.261302
1569.000000	51.235752
1568.000000	51.221274
1567.000000	51.218959
1566.000000	51.224586
1565.000000	51.236694
1564.000000	51.266444
1563.000000	51.317838
1562.000000	51.382598
1561.000000	51.431471
1560.000000	51.426612
1559.000000	51.359733
1558.000000	51.381170
1557.000000	51.492117
1556.000000	51.572655
1555.000000	51.630203
1554.000000	51.717864
1553.000000	51.833700
1552.000000	51.922818
1551.000000	51.976327
1550.000000	52.044540
1549.000000	52.155452
1548.000000	52.295616
1547.000000	52.444539
1546.000000	52.618439
1545.000000	52.838629
1544.000000	53.090071
1543.000000	53.334628
1542.000000	53.546895
1541.000000	53.692749
1540.000000	53.766824
1539.000000	53.859527
1538.000000	54.029719
1537.000000	54.215810
1536.000000	54.374118
1535.000000	54.523037
1534.000000	54.706056
1533.000000	54.934647
1532.000000	55.169517
1531.000000	55.391935
1530.000000	55.618505
1529.000000	55.859590
1528.000000	56.109783
1527.000000	56.377254
1526.000000	56.685159
1525.000000	57.025767
1524.000000	57.342206
1523.000000	57.605135
1522.000000	57.853698
1521.000000	58.146261
1520.000000	58.472386
1519.000000	58.775288
1518.000000	59.049011
1517.000000	59.335552
1516.000000	59.659729
1515.000000	60.004235
1514.000000	60.341361
1513.000000	60.674311
1512.000000	61.017924
1511.000000	61.369403
1510.000000	61.696986
1509.000000	61.976740
1508.000000	62.228864
1507.000000	62.515238
1506.000000	62.901337
1505.000000	63.339774
1504.000000	63.728038
1503.000000	64.059634
1502.000000	64.384888
1501.000000	64.727085
1500.000000	65.066650
1499.000000	65.368933
1498.000000	65.626420
1497.000000	65.863240
1496.000000	66.128629
1495.000000	66.449339
1494.000000	66.784407
1493.000000	67.082154
1492.000000	67.335168
1491.000000	67.581845
1490.000000	67.842960
1489.000000	68.092405
1488.000000	68.303042
1487.000000	68.497706
1486.000000	68.702172
1485.000000	68.909447
1484.000000	69.104768
1483.000000	69.283669
1482.000000	69.458430
1481.000000	69.620004
1480.000000	69.751886
1479.000000	69.848682
1478.000000	69.919380
1477.000000	69.967606
1476.000000	69.996775
1475.000000	70.006844
1474.000000	69.977862
1473.000000	69.898619
1472.000000	69.800901
1471.000000	69.724401
1470.000000	69.638400
1469.000000	69.491432
1468.000000	69.274183
1467.000000	68.993055
1466.000000	68.616916
1465.000000	68.131763
1464.000000	67.617282
1463.000000	67.179154
1462.000000	66.822149
1461.000000	66.476179
1460.000000	66.083794
1459.000000	65.579066
1458.000000	64.839711
1457.000000	63.844041
1456.000000	62.896395
1455.000000	62.189483
1454.000000	61.557721
1453.000000	60.830005
1452.000000	59.997592
1451.000000	59.124302
1450.000000	58.179875
1449.000000	57.062306
1448.000000	55.778915
1447.000000	54.463321
1446.000000	53.173070
1445.000000	51.858985
1444.000000	50.474795
1443.000000	49.025376
1442.000000	47.509168
1441.000000	45.939059
1440.000000	44.366631
1439.000000	42.758208
1438.000000	40.885294
1437.000000	38.565485
1436.000000	36.128296
1435.000000	34.094007
1434.000000	32.469914
1433.000000	30.991205
1432.000000	29.582407
1431.000000	28.334509
1430.000000	27.297378
1429.000000	26.484349
1428.000000	25.996108
1427.000000	25.903008
1426.000000	26.133278
1425.000000	26.616820
1424.000000	27.372902
1423.000000	28.360182
1422.000000	29.423151
1421.000000	30.509193
1420.000000	31.755913
1419.000000	33.225126
1418.000000	34.678776
1417.000000	35.916316
1416.000000	37.023333
1415.000000	38.127674
1414.000000	39.227941
1413.000000	40.288156
1412.000000	41.340329
1411.000000	42.423195
1410.000000	43.502962
1409.000000	44.534821
1408.000000	45.541322
1407.000000	46.561939
1406.000000	47.588919
1405.000000	48.607979
1404.000000	49.621455
1403.000000	50.606421
1402.000000	51.525648
1401.000000	52.403990
1400.000000	53.323585
1399.000000	54.306155
1398.000000	55.271570
1397.000000	56.170667
1396.000000	57.062864
1395.000000	58.009995
1394.000000	58.976405
1393.000000	59.899350
1392.000000	60.773198
1391.000000	61.620896
1390.000000	62.455261
1389.000000	63.296927
1388.000000	64.172837
1387.000000	65.065480
1386.000000	65.899314
1385.000000	66.623701
1384.000000	67.246928
1383.000000	67.789252
1382.000000	68.252148
1381.000000	68.626424
1380.000000	68.907448
1379.000000	69.084249
1378.000000	69.134373
1377.000000	69.021351
1376.000000	68.683346
1375.000000	68.048342
1374.000000	67.109907
1373.000000	65.972018
1372.000000	64.766261
1371.000000	63.577402
1370.000000	62.483659
1369.000000	61.615055
1368.000000	61.114952
1367.000000	61.047849
1366.000000	61.378365
1365.000000	62.039500
1364.000000	62.977376
1363.000000	64.128496
1362.000000	65.384670
1361.000000	66.622901
1360.000000	67.761608
1359.000000	68.761774
1358.000000	69.599723
1357.000000	70.250900
1356.000000	70.681743
1355.000000	70.855780
1354.000000	70.753884
1353.000000	70.376656
1352.000000	69.732415
1351.000000	68.828167
1350.000000	67.674412
1349.000000	66.298961
1348.000000	64.728529
1347.000000	62.982408
1346.000000	61.077547
1345.000000	59.042828
1344.000000	56.926439
1343.000000	54.773583
1342.000000	52.598617
1341.000000	50.402105
1340.000000	48.236892
1339.000000	46.238038
1338.000000	44.543627
1337.000000	43.197985
1336.000000	42.159376
1335.000000	41.352672
1334.000000	40.681925
1333.000000	40.037148
1332.000000	39.321525
1331.000000	38.468363
1330.000000	37.430254
1329.000000	36.170994
1328.000000	34.684012
1327.000000	33.008915
1326.000000	31.215837
1325.000000	29.386292
1324.000000	27.620223
1323.000000	26.028332
1322.000000	24.683258
1321.000000	23.590282
1320.000000	22.716564
1319.000000	22.018543
1318.000000	21.439818
1317.000000	20.922775
1316.000000	20.443385
1315.000000	20.018362
1314.000000	19.662546
1313.000000	19.369351
1312.000000	19.134221
1311.000000	18.961747
1310.000000	18.848759
1309.000000	18.787834
1308.000000	18.798624
1307.000000	18.926039
1306.000000	19.197440
1305.000000	19.612047
1304.000000	20.165765
1303.000000	20.854185
1302.000000	21.649273
1301.000000	22.501174
1300.000000	23.374656
1299.000000	24.256804
1298.000000	25.133596
1297.000000	25.986973
1296.000000	26.812592
1295.000000	27.616897
1294.000000	28.394496
1293.000000	29.128893
1292.000000	29.812532
1291.000000	30.448559
1290.000000	31.030232
1289.000000	31.539685
1288.000000	31.965937
1287.000000	32.304475
1286.000000	32.546251
1285.000000	32.684267
1284.000000	32.737629
1283.000000	32.755341
1282.000000	32.792359
1281.000000	32.892679
1280.000000	33.088893
1279.000000	33.394703
1278.000000	33.792718
1277.000000	34.247320
1276.000000	34.731818
1275.000000	35.233704
1274.000000	35.740152
1273.000000	36.235679
1272.000000	36.714772
1271.000000	37.180116
1270.000000	37.628933
1269.000000	38.054029
1268.000000	38.456934
1267.000000	38.845707
1266.000000	39.221691
1265.000000	39.580176
1264.000000	39.922059
1263.000000	40.253653
1262.000000	40.575124
1261.000000	40.882679
1260.000000	41.180703
1259.000000	41.479542
1258.000000	41.783164
1257.000000	42.089019
1256.000000	42.397575
1255.000000	42.709808
1254.000000	43.017565
1253.000000	43.307493
1252.000000	43.573347
1251.000000	43.816923
1250.000000	44.040681
1249.000000	44.248957
1248.000000	44.454692
1247.000000	44.674455
1246.000000	44.916468
1245.000000	45.179672
1244.000000	45.460877
1243.000000	45.753566
1242.000000	46.042184
1241.000000	46.307940
1240.000000	46.541141
1239.000000	46.742846
1238.000000	46.918391
1237.000000	47.076620
1236.000000	47.232918
1235.000000	47.404043
1234.000000	47.597950
1233.000000	47.813452
1232.000000	48.046914
1231.000000	48.292465
1230.000000	48.538334
1229.000000	48.771372
1228.000000	48.985625
1227.000000	49.182110
1226.000000	49.362751
1225.000000	49.530276
1224.000000	49.691339
1223.000000	49.853739
1222.000000	50.020892
1221.000000	50.193164
1220.000000	50.373000
1219.000000	50.563915
1218.000000	50.766170
1217.000000	50.977848
1216.000000	51.197984
1215.000000	51.423595
1214.000000	51.645584
1213.000000	51.852486
1212.000000	52.037295
1211.000000	52.197679
1210.000000	52.333882
1209.000000	52.451331
1208.000000	52.563910
1207.000000	52.689678
1206.000000	52.842847
1205.000000	53.030666
1204.000000	53.254135
1203.000000	53.505819
1202.000000	53.768080
1201.000000	54.018451
1200.000000	54.238097
1199.000000	54.415589
1198.000000	54.547660
1197.000000	54.641576
1196.000000	54.714061
1195.000000	54.784600
1194.000000	54.867063
1193.000000	54.965773
1192.000000	55.075943
1191.000000	55.182696
1190.000000	55.264216
1189.000000	55.301093
1188.000000	55.285660
1187.000000	55.225731
1186.000000	55.141614
1185.000000	55.060900
1184.000000	55.010585
1183.000000	55.007457
1182.000000	55.053287
1181.000000	55.142234
1180.000000	55.271454
1179.000000	55.441504
1178.000000	55.649514
1177.000000	55.883777
1176.000000	56.127412
1175.000000	56.363576
1174.000000	56.579191
1173.000000	56.767361
1172.000000	56.927462
1171.000000	57.063006
1170.000000	57.179922
1169.000000	57.286489
1168.000000	57.392338
1167.000000	57.506933
1166.000000	57.638466
1165.000000	57.793742
1164.000000	57.976536
1163.000000	58.184730
1162.000000	58.409048
1161.000000	58.635201
1160.000000	58.846906
1159.000000	59.029284
1158.000000	59.173047
1157.000000	59.278192
1156.000000	59.354244
1155.000000	59.418032
1154.000000	59.490774
1153.000000	59.592762
1152.000000	59.736819
1151.000000	59.924219
1150.000000	60.145494
1149.000000	60.383160
1148.000000	60.613797
1147.000000	60.812036
1146.000000	60.959064
1145.000000	61.049526
1144.000000	61.092307
1143.000000	61.106680
1142.000000	61.118536
1141.000000	61.154959
1140.000000	61.236134
1139.000000	61.369180
1138.000000	61.547261
1137.000000	61.752419
1136.000000	61.959455
1135.000000	62.142488
1134.000000	62.283668
1133.000000	62.377897
1132.000000	62.430651
1131.000000	62.454912
1130.000000	62.469269
1129.000000	62.494305
1128.000000	62.545798
1127.000000	62.630800
1126.000000	62.748731
1125.000000	62.893437
1124.000000	63.053594
1123.000000	63.215529
1122.000000	63.368973
1121.000000	63.509012
1120.000000	63.632826
1119.000000	63.737826
1118.000000	63.824049
1117.000000	63.894389
1116.000000	63.951902
1115.000000	63.999741
1114.000000	64.045975
1113.000000	64.104551
1112.000000	64.189841
1111.000000	64.310955
1110.000000	64.470647
1109.000000	64.663744
1108.000000	64.874223
1107.000000	65.076564
1106.000000	65.244484
1105.000000	65.359127
1104.000000	65.412619
1103.000000	65.411596
1102.000000	65.379571
1101.000000	65.350759
1100.000000	65.359488
1099.000000	65.427540
1098.000000	65.563228
1097.000000	65.758512
1096.000000	65.986600
1095.000000	66.208192
1094.000000	66.386471
1093.000000	66.498887
1092.000000	66.539474
1091.000000	66.520129
1090.000000	66.471276
1089.000000	66.433163
1088.000000	66.440010
1087.000000	66.510385
1086.000000	66.647187
1085.000000	66.838442
1084.000000	67.056920
1083.000000	67.266476
1082.000000	67.436632
1081.000000	67.552217
1080.000000	67.612994
1079.000000	67.631014
1078.000000	67.629162
1077.000000	67.632182
1076.000000	67.654924
1075.000000	67.699833
1074.000000	67.763676
1073.000000	67.841638
1072.000000	67.925652
1071.000000	68.006681
1070.000000	68.081061
1069.000000	68.149399
1068.000000	68.208346
1067.000000	68.247710
1066.000000	68.256061
1065.000000	68.224844
1064.000000	68.147743
1063.000000	68.027659
1062.000000	67.885959
1061.000000	67.760392
1060.000000	67.689859
1059.000000	67.703790
1058.000000	67.817540
1057.000000	68.028741
1056.000000	68.312637
1055.000000	68.625011
1054.000000	68.916606
1053.000000	69.144782
1052.000000	69.280123
1051.000000	69.315764
1050.000000	69.277460
1049.000000	69.216399
1048.000000	69.187406
1047.000000	69.231462
1046.000000	69.369416
1045.000000	69.597361
1044.000000	69.883691
1043.000000	70.177969
1042.000000	70.431074
1041.000000	70.609819
1040.000000	70.699453
1039.000000	70.705767
1038.000000	70.658536
1037.000000	70.602945
1036.000000	70.579680
1035.000000	70.613630
1034.000000	70.713884
1033.000000	70.874314
1032.000000	71.072492
1031.000000	71.278543
1030.000000	71.469665
1029.000000	71.635894
1028.000000	71.773809
1027.000000	71.883600
1026.000000	71.971710
1025.000000	72.046917
1024.000000	72.110337
1023.000000	72.156477
1022.000000	72.185720
1021.000000	72.208627
1020.000000	72.239774
1019.000000	72.295093
1018.000000	72.393811
1017.000000	72.550497
1016.000000	72.761455
1015.000000	73.001846
1014.000000	73.236616
1013.000000	73.428992
1012.000000	73.544819
1011.000000	73.564065
1010.000000	73.497374
1009.000000	73.385644
1008.000000	73.282197
1007.000000	73.237323
1006.000000	73.291101
1005.000000	73.461490
1004.000000	73.731511
1003.000000	74.052791
1002.000000	74.365135
1001.000000	74.613315
1000.000000	74.755328
999.000000	74.774699
998.000000	74.692925
997.000000	74.562780
996.000000	74.443883
995.000000	74.384868
994.000000	74.417910
993.000000	74.552755
992.000000	74.769743
991.000000	75.026485
990.000000	75.277571
989.000000	75.488386
988.000000	75.637190
987.000000	75.717326
986.000000	75.742089
985.000000	75.737244
984.000000	75.725227
983.000000	75.719123
982.000000	75.729708
981.000000	75.766084
980.000000	75.830578
979.000000	75.921586
978.000000	76.043645
977.000000	76.204120
976.000000	76.399715
975.000000	76.612321
974.000000	76.818319
973.000000	76.992802
972.000000	77.107486
971.000000	77.138974
970.000000	77.086077
969.000000	76.975198
968.000000	76.848554
967.000000	76.754982
966.000000	76.743787
965.000000	76.849593
964.000000	77.072331
963.000000	77.375469
962.000000	77.701570
961.000000	77.987915
960.000000	78.176103
959.000000	78.229442
958.000000	78.152154
957.000000	77.988440
956.000000	77.801027
955.000000	77.652749
954.000000	77.598013
953.000000	77.668478
952.000000	77.857757
951.000000	78.124427
950.000000	78.413968
949.000000	78.673912
948.000000	78.859367
947.000000	78.943719
946.000000	78.933065
945.000000	78.860175
944.000000	78.763078
943.000000	78.673040
942.000000	78.616283
941.000000	78.611228
940.000000	78.659513
939.000000	78.749353
938.000000	78.868860
937.000000	79.010334
936.000000	79.162118
935.000000	79.309132
934.000000	79.440041
933.000000	79.545072
932.000000	79.606192
931.000000	79.604319
930.000000	79.536304
929.000000	79.419171
928.000000	79.279835
927.000000	79.151979
926.000000	79.077761
925.000000	79.094727
924.000000	79.213119
923.000000	79.409720
922.000000	79.641473
921.000000	79.855756
920.000000	79.994187
919.000000	80.008607
918.000000	79.886321
917.000000	79.654105
916.000000	79.362483
915.000000	79.072598
914.000000	78.848374
913.000000	78.737316
912.000000	78.748248
911.000000	78.850769
910.000000	78.992914
909.000000	79.114703
908.000000	79.155417
907.000000	79.070579
906.000000	78.853141
905.000000	78.532192
904.000000	78.150775
903.000000	77.753329
902.000000	77.381827
901.000000	77.066025
900.000000	76.809573
899.000000	76.592548
898.000000	76.389006
897.000000	76.173813
896.000000	75.920823
895.000000	75.608881
894.000000	75.230656
893.000000	74.788804
892.000000	74.282638
891.000000	73.709549
890.000000	73.075373
889.000000	72.392196
888.000000	71.672489
887.000000	70.930596
886.000000	70.187453
885.000000	69.462004
884.000000	68.757231
883.000000	68.060311
882.000000	67.348958
881.000000	66.592337
880.000000	65.754187
879.000000	64.805590
878.000000	63.740966
877.000000	62.578007
876.000000	61.351000
875.000000	60.107148
874.000000	58.897594
873.000000	57.761754
872.000000	56.716843
871.000000	55.759140
870.000000	54.867083
869.000000	54.006415
868.000000	53.140835
867.000000	52.246378
866.000000	51.317781
865.000000	50.364731
864.000000	49.410948
863.000000	48.490929
862.000000	47.638351
861.000000	46.874267
860.000000	46.204546
859.000000	45.624916
858.000000	45.118875
857.000000	44.658085
856.000000	44.215165
855.000000	43.773403
854.000000	43.327155
853.000000	42.877196
852.000000	42.433615
851.000000	42.019013
850.000000	41.657513
849.000000	41.365259
848.000000	41.152385
847.000000	41.027095
846.000000	40.993742
845.000000	41.046262
844.000000	41.175106
843.000000	41.374468
842.000000	41.638208
841.000000	41.957151
840.000000	42.322029
839.000000	42.731366
838.000000	43.188248
837.000000	43.692097
836.000000	44.244189
835.000000	44.853973
834.000000	45.532501
833.000000	46.267620
832.000000	47.005224
831.000000	47.613682
830.000000	47.842487
829.000000	47.322873
828.000000	45.729437
827.000000	43.085531
826.000000	39.927892
825.000000	37.099730
824.000000	35.289527
823.000000	34.718275
822.000000	35.195857
821.000000	36.385635
820.000000	37.969868
819.000000	39.673334
818.000000	41.289907
817.000000	42.720423
816.000000	43.969500
815.000000	45.065056
814.000000	46.012811
813.000000	46.813959
812.000000	47.492010
811.000000	48.079248
810.000000	48.604682
809.000000	49.102899
808.000000	49.612698
807.000000	50.157645
806.000000	50.736197
805.000000	51.336086
804.000000	51.941956
803.000000	52.526170
802.000000	53.053869
801.000000	53.506295
800.000000	53.890322
799.000000	54.224407
798.000000	54.527847
797.000000	54.825122
796.000000	55.141884
795.000000	55.490230
794.000000	55.866754
793.000000	56.266280
792.000000	56.687120
791.000000	57.122917
790.000000	57.561806
789.000000	57.995286
788.000000	58.418195
787.000000	58.819404
786.000000	59.183212
785.000000	59.500207
784.000000	59.770347
783.000000	59.998210
782.000000	60.196878
781.000000	60.394479
780.000000	60.627192
779.000000	60.922625
778.000000	61.292156
777.000000	61.731011
776.000000	62.213998
775.000000	62.692916
774.000000	63.111758
773.000000	63.430098
772.000000	63.633467
771.000000	63.732825
770.000000	63.765270
769.000000	63.790485
768.000000	63.871217
767.000000	64.050360
766.000000	64.341832
765.000000	64.732224
764.000000	65.180475
763.000000	65.622762
762.000000	65.994484
761.000000	66.255892
760.000000	66.399457
759.000000	66.444674
758.000000	66.434152
757.000000	66.425175
756.000000	66.469573
755.000000	66.595316
754.000000	66.805038
753.000000	67.082608
752.000000	67.396609
751.000000	67.707096
750.000000	67.982917
749.000000	68.213158
748.000000	68.400607
747.000000	68.551536
746.000000	68.676890
745.000000	68.792441
744.000000	68.907561
743.000000	69.018489
742.000000	69.119490
741.000000	69.215189
740.000000	69.317502
739.000000	69.438801
738.000000	69.593363
737.000000	69.795156
736.000000	70.043144
735.000000	70.311991
734.000000	70.562056
733.000000	70.753902
732.000000	70.853066
731.000000	70.838883
730.000000	70.722639
729.000000	70.552207
728.000000	70.391075
727.000000	70.295464
726.000000	70.306471
725.000000	70.443832
724.000000	70.691091
723.000000	70.992684
722.000000	71.277285
721.000000	71.485597
720.000000	71.581688
719.000000	71.560010
718.000000	71.455638
717.000000	71.337200
716.000000	71.276380
715.000000	71.321441
714.000000	71.493113
713.000000	71.785648
712.000000	72.160542
711.000000	72.552083
710.000000	72.896809
709.000000	73.158268
708.000000	73.326655
707.000000	73.412616
706.000000	73.449903
705.000000	73.488213
704.000000	73.566242
703.000000	73.693461
702.000000	73.860182
701.000000	74.052460
700.000000	74.250169
699.000000	74.430242
698.000000	74.586051
697.000000	74.734652
696.000000	74.895420
695.000000	75.071969
694.000000	75.259423
693.000000	75.451495
692.000000	75.628421
691.000000	75.756229
690.000000	75.813943
689.000000	75.814059
688.000000	75.789864
687.000000	75.776457
686.000000	75.813847
685.000000	75.944856
684.000000	76.185114
683.000000	76.502556
682.000000	76.838667
681.000000	77.135945
680.000000	77.341198
679.000000	77.414519
678.000000	77.359977
677.000000	77.233822
676.000000	77.112385
675.000000	77.060040
674.000000	77.122852
673.000000	77.321685
672.000000	77.631167
671.000000	77.991018
670.000000	78.351652
669.000000	78.679097
668.000000	78.894036
667.000000	78.906724
666.000000	78.771177
665.000000	78.624147
664.000000	78.552075
663.000000	78.588811
662.000000	78.734558
661.000000	78.961229
660.000000	79.222939
659.000000	79.469257
658.000000	79.664028
657.000000	79.798217
656.000000	79.884197
655.000000	79.946458
654.000000	80.016507
653.000000	80.119982
652.000000	80.259988
651.000000	80.415761
650.000000	80.559883
649.000000	80.672618
648.000000	80.742043
647.000000	80.770151
646.000000	80.786869
645.000000	80.843647
644.000000	80.978296
643.000000	81.191071
642.000000	81.452829
641.000000	81.721629
640.000000	81.947621
639.000000	82.082221
638.000000	82.104292
637.000000	82.035667
636.000000	81.928094
635.000000	81.845321
634.000000	81.852299
633.000000	81.994804
632.000000	82.272983
631.000000	82.635867
630.000000	83.006274
629.000000	83.309834
628.000000	83.488537
627.000000	83.516579
626.000000	83.423749
625.000000	83.289094
624.000000	83.194968
623.000000	83.194200
622.000000	83.310375
621.000000	83.540090
620.000000	83.844399
619.000000	84.157009
618.000000	84.418226
617.000000	84.598885
616.000000	84.692759
615.000000	84.711964
614.000000	84.697674
613.000000	84.707900
612.000000	84.775970
611.000000	84.890044
610.000000	85.014689
609.000000	85.109929
608.000000	85.128289
607.000000	85.019099
606.000000	84.752558
605.000000	84.313219
604.000000	83.646496
603.000000	82.628099
602.000000	81.064461
601.000000	78.745482
600.000000	75.556187
599.000000	71.641925
598.000000	67.478448
597.000000	63.724535
596.000000	60.976408
595.000000	59.578042
594.000000	59.540456
593.000000	60.593645
592.000000	62.360198
591.000000	64.470682
590.000000	66.613260
589.000000	68.593698
588.000000	70.331229
587.000000	71.809457
586.000000	73.037697
585.000000	74.054398
584.000000	74.920031
583.000000	75.701364
582.000000	76.458614
581.000000	77.236315
580.000000	78.042260
579.000000	78.834307
578.000000	79.551364
577.000000	80.149368
576.000000	80.606086
575.000000	80.920043
574.000000	81.123556
573.000000	81.281241
572.000000	81.454873
571.000000	81.675071
570.000000	81.946754
569.000000	82.258557
568.000000	82.580757
567.000000	82.869163
566.000000	83.093725
565.000000	83.260552
564.000000	83.394597
563.000000	83.520578
562.000000	83.664223
561.000000	83.848601
560.000000	84.071101
559.000000	84.295280
558.000000	84.479772
557.000000	84.604993
556.000000	84.665708
555.000000	84.666652
554.000000	84.645109
553.000000	84.668377
552.000000	84.788084
551.000000	85.008184
550.000000	85.299795
549.000000	85.620262
548.000000	85.908563
547.000000	86.093987
546.000000	86.142564
545.000000	86.083433
544.000000	85.974741
543.000000	85.871099
542.000000	85.829907
541.000000	85.908066
540.000000	86.121039
539.000000	86.423642
538.000000	86.743795
537.000000	87.022495
536.000000	87.213214
535.000000	87.282322
534.000000	87.238454
533.000000	87.145498
532.000000	87.072156
531.000000	87.051126
530.000000	87.095613
529.000000	87.213413
528.000000	87.383863
527.000000	87.555662
526.000000	87.686294
525.000000	87.764295
524.000000	87.787202
523.000000	87.742435
522.000000	87.635959
521.000000	87.501803
520.000000	87.353077
519.000000	87.150661
518.000000	86.846652
517.000000	86.446553
516.000000	86.004146
515.000000	85.583539
514.000000	85.250108
513.000000	85.067563
512.000000	85.059645
511.000000	85.191626
510.000000	85.401164
509.000000	85.623698
508.000000	85.753728
507.000000	85.642553
506.000000	85.177764
505.000000	84.336177
504.000000	83.151727
503.000000	81.722664
502.000000	80.295599
501.000000	79.205713
500.000000	78.655246
499.000000	78.631732
498.000000	79.018099
497.000000	79.664272
496.000000	80.384104
495.000000	80.991365
494.000000	81.384612
493.000000	81.585386
492.000000	81.679423
491.000000	81.768267
490.000000	81.952803
489.000000	82.308478
488.000000	82.832963
487.000000	83.449990
486.000000	84.074496
485.000000	84.650576
484.000000	85.132100
483.000000	85.491378
482.000000	85.768639
481.000000	86.051462
480.000000	86.389525
479.000000	86.767925
478.000000	87.151423
477.000000	87.518085
476.000000	87.836150
475.000000	88.055497
474.000000	88.154917
473.000000	88.170559
472.000000	88.161162
471.000000	88.183690
470.000000	88.287674
469.000000	88.514509
468.000000	88.857809
467.000000	89.229654
466.000000	89.507136
465.000000	89.619017
464.000000	89.545047
463.000000	89.295976
462.000000	88.959130
461.000000	88.683626
460.000000	88.578876
459.000000	88.668606
458.000000	88.927075
457.000000	89.298627
456.000000	89.665004
455.000000	89.872684
454.000000	89.837307
453.000000	89.590249
452.000000	89.229735
451.000000	88.846495
450.000000	88.497408
449.000000	88.238293
448.000000	88.093972
447.000000	87.996852
446.000000	87.817796
445.000000	87.450906
444.000000	86.803290
443.000000	85.771212
442.000000	84.332642
441.000000	82.619311
440.000000	80.808547
439.000000	79.001275
438.000000	77.255967
437.000000	75.692022
436.000000	74.496300
435.000000	73.808185
434.000000	73.625648
433.000000	73.863769
432.000000	74.466295
431.000000	75.374429
430.000000	76.502735
429.000000	77.797541
428.000000	79.221791
427.000000	80.666492
426.000000	81.970611
425.000000	83.051079
424.000000	83.896237
423.000000	84.492231
422.000000	84.866745
421.000000	85.168071
420.000000	85.604132
419.000000	86.326763
418.000000	87.315660
417.000000	88.354464
416.000000	89.228087
415.000000	89.765676
414.000000	89.887649
413.000000	89.726954
412.000000	89.493031
411.000000	89.264409
410.000000	89.106593
409.000000	89.198204
408.000000	89.639610
407.000000	90.267585
406.000000	90.768815
405.000000	91.151954
404.000000	91.338505
403.000000	91.175605
402.000000	90.567808
401.000000	89.686039
400.000000	88.786449
