PE IR       SUBTECH     SPECTRUM    ASCII       PEDS        4.00        
   -1
23ms226_nitrito.asc
24/09/02
16:34:10.00
24/09/02
16:34:10.00
Administrator
Sample 1080 By Administrator Date Monday, September 02 2024
400.000000
#HDR
-1
-1
#GR
cm-1
%T
1.0
0.0
4000.000000
-1.000000
3601
8
99.410484
24.068438
#DATA
4000.000000	92.611735
3999.000000	92.643468
3998.000000	92.669403
3997.000000	92.690046
3996.000000	92.707428
3995.000000	92.724528
3994.000000	92.744596
3993.000000	92.769771
3992.000000	92.799761
3991.000000	92.831912
3990.000000	92.863053
3989.000000	92.891359
3988.000000	92.916350
3987.000000	92.937810
3986.000000	92.955810
3985.000000	92.971931
3984.000000	92.989505
3983.000000	93.012064
3982.000000	93.041371
3981.000000	93.076690
3980.000000	93.115210
3979.000000	93.153225
3978.000000	93.187197
3977.000000	93.214551
3976.000000	93.234767
3975.000000	93.249963
3974.000000	93.263919
3973.000000	93.280021
3972.000000	93.299988
3971.000000	93.323470
3970.000000	93.348322
3969.000000	93.372095
3968.000000	93.394013
3967.000000	93.415107
3966.000000	93.436710
3965.000000	93.459038
3964.000000	93.481139
3963.000000	93.502161
3962.000000	93.522174
3961.000000	93.541788
3960.000000	93.561712
3959.000000	93.582213
3958.000000	93.602699
3957.000000	93.622834
3956.000000	93.644152
3955.000000	93.668752
3954.000000	93.696963
3953.000000	93.727092
3952.000000	93.756722
3951.000000	93.783926
3950.000000	93.807610
3949.000000	93.829012
3948.000000	93.851168
3947.000000	93.876250
3946.000000	93.904532
3945.000000	93.934242
3944.000000	93.961992
3943.000000	93.984908
3942.000000	94.004039
3941.000000	94.023021
3940.000000	94.042510
3939.000000	94.059187
3938.000000	94.071037
3937.000000	94.081859
3936.000000	94.100642
3935.000000	94.133901
3934.000000	94.178417
3933.000000	94.223463
3932.000000	94.260036
3931.000000	94.287613
3930.000000	94.310192
3929.000000	94.329665
3928.000000	94.345395
3927.000000	94.357147
3926.000000	94.366792
3925.000000	94.376771
3924.000000	94.392541
3923.000000	94.422553
3922.000000	94.468038
3921.000000	94.518171
3920.000000	94.559710
3919.000000	94.588683
3918.000000	94.608879
3917.000000	94.620824
3916.000000	94.622535
3915.000000	94.617666
3914.000000	94.614791
3913.000000	94.618145
3912.000000	94.626658
3911.000000	94.641024
3910.000000	94.665560
3909.000000	94.701247
3908.000000	94.744690
3907.000000	94.792527
3906.000000	94.844445
3905.000000	94.900920
3904.000000	94.959661
3903.000000	95.018580
3902.000000	95.072617
3901.000000	95.110349
3900.000000	95.121556
3899.000000	95.108325
3898.000000	95.089339
3897.000000	95.083344
3896.000000	95.092718
3895.000000	95.106881
3894.000000	95.116717
3893.000000	95.120246
3892.000000	95.121943
3891.000000	95.126425
3890.000000	95.139238
3889.000000	95.167625
3888.000000	95.215382
3887.000000	95.275102
3886.000000	95.326274
3885.000000	95.357680
3884.000000	95.384775
3883.000000	95.421992
3882.000000	95.453890
3881.000000	95.456784
3880.000000	95.434746
3879.000000	95.417174
3878.000000	95.426222
3877.000000	95.458162
3876.000000	95.493887
3875.000000	95.516205
3874.000000	95.524405
3873.000000	95.538599
3872.000000	95.579726
3871.000000	95.638959
3870.000000	95.681154
3869.000000	95.691081
3868.000000	95.695420
3867.000000	95.720228
3866.000000	95.754301
3865.000000	95.767346
3864.000000	95.756131
3863.000000	95.752781
3862.000000	95.777370
3861.000000	95.814085
3860.000000	95.840697
3859.000000	95.844895
3858.000000	95.824508
3857.000000	95.793118
3856.000000	95.787033
3855.000000	95.839800
3854.000000	95.921404
3853.000000	95.972998
3852.000000	96.002040
3851.000000	96.038799
3850.000000	96.073175
3849.000000	96.087823
3848.000000	96.083787
3847.000000	96.076855
3846.000000	96.078623
3845.000000	96.087669
3844.000000	96.101998
3843.000000	96.123401
3842.000000	96.151574
3841.000000	96.186320
3840.000000	96.229362
3839.000000	96.278366
3838.000000	96.328522
3837.000000	96.372653
3836.000000	96.403303
3835.000000	96.417250
3834.000000	96.415517
3833.000000	96.403626
3832.000000	96.387674
3831.000000	96.374596
3830.000000	96.374462
3829.000000	96.391027
3828.000000	96.417258
3827.000000	96.443270
3826.000000	96.465729
3825.000000	96.493164
3824.000000	96.539683
3823.000000	96.601136
3822.000000	96.644642
3821.000000	96.644342
3820.000000	96.626170
3819.000000	96.634141
3818.000000	96.671814
3817.000000	96.711007
3816.000000	96.722923
3815.000000	96.708123
3814.000000	96.698730
3813.000000	96.712726
3812.000000	96.731386
3811.000000	96.734825
3810.000000	96.730432
3809.000000	96.740522
3808.000000	96.772685
3807.000000	96.811284
3806.000000	96.845035
3805.000000	96.884860
3804.000000	96.937746
3803.000000	96.988768
3802.000000	97.015088
3801.000000	97.013717
3800.000000	97.015668
3799.000000	97.042033
3798.000000	97.069157
3797.000000	97.067296
3796.000000	97.038192
3795.000000	97.009505
3794.000000	97.003831
3793.000000	97.018740
3792.000000	97.037579
3791.000000	97.052335
3790.000000	97.069232
3789.000000	97.093520
3788.000000	97.120424
3787.000000	97.141202
3786.000000	97.152636
3785.000000	97.160078
3784.000000	97.173650
3783.000000	97.202486
3782.000000	97.247209
3781.000000	97.293812
3780.000000	97.323311
3779.000000	97.332761
3778.000000	97.337899
3777.000000	97.351167
3776.000000	97.369316
3775.000000	97.382546
3774.000000	97.388960
3773.000000	97.398950
3772.000000	97.424446
3771.000000	97.463593
3770.000000	97.504415
3769.000000	97.544687
3768.000000	97.591047
3767.000000	97.637983
3766.000000	97.669945
3765.000000	97.680805
3764.000000	97.682922
3763.000000	97.696778
3762.000000	97.728212
3761.000000	97.760901
3760.000000	97.777507
3759.000000	97.785997
3758.000000	97.808289
3757.000000	97.844135
3756.000000	97.878410
3755.000000	97.909951
3754.000000	97.948336
3753.000000	97.994320
3752.000000	98.035368
3751.000000	98.070531
3750.000000	98.115462
3749.000000	98.164922
3748.000000	98.197159
3747.000000	98.215160
3746.000000	98.243939
3745.000000	98.284729
3744.000000	98.304822
3743.000000	98.308703
3742.000000	98.333351
3741.000000	98.373041
3740.000000	98.398479
3739.000000	98.408730
3738.000000	98.428818
3737.000000	98.465013
3736.000000	98.491920
3735.000000	98.496696
3734.000000	98.497689
3733.000000	98.507693
3732.000000	98.513818
3731.000000	98.506955
3730.000000	98.495769
3729.000000	98.490744
3728.000000	98.492800
3727.000000	98.493499
3726.000000	98.488232
3725.000000	98.487354
3724.000000	98.501720
3723.000000	98.524914
3722.000000	98.544126
3721.000000	98.558081
3720.000000	98.571621
3719.000000	98.585744
3718.000000	98.599601
3717.000000	98.610810
3716.000000	98.623137
3715.000000	98.647278
3714.000000	98.686724
3713.000000	98.729137
3712.000000	98.756930
3711.000000	98.771667
3710.000000	98.788612
3709.000000	98.810168
3708.000000	98.828492
3707.000000	98.838080
3706.000000	98.839751
3705.000000	98.839103
3704.000000	98.839302
3703.000000	98.836938
3702.000000	98.828327
3701.000000	98.820630
3700.000000	98.825288
3699.000000	98.843860
3698.000000	98.868146
3697.000000	98.888350
3696.000000	98.903499
3695.000000	98.926102
3694.000000	98.966002
3693.000000	99.013476
3692.000000	99.049964
3691.000000	99.069464
3690.000000	99.081477
3689.000000	99.095700
3688.000000	99.112569
3687.000000	99.126638
3686.000000	99.135775
3685.000000	99.141384
3684.000000	99.143325
3683.000000	99.143470
3682.000000	99.145779
3681.000000	99.150392
3680.000000	99.150799
3679.000000	99.147589
3678.000000	99.159049
3677.000000	99.199223
3676.000000	99.242702
3675.000000	99.265264
3674.000000	99.291966
3673.000000	99.342676
3672.000000	99.395198
3671.000000	99.410484
3670.000000	99.366493
3669.000000	99.291618
3668.000000	99.235760
3667.000000	99.204869
3666.000000	99.174714
3665.000000	99.134702
3664.000000	99.092314
3663.000000	99.059853
3662.000000	99.041639
3661.000000	99.031090
3660.000000	99.021271
3659.000000	99.012106
3658.000000	99.004241
3657.000000	98.993738
3656.000000	98.979138
3655.000000	98.972843
3654.000000	98.988337
3653.000000	99.021501
3652.000000	99.054765
3651.000000	99.068826
3650.000000	99.053556
3649.000000	99.020022
3648.000000	98.983612
3647.000000	98.940334
3646.000000	98.881305
3645.000000	98.808329
3644.000000	98.725275
3643.000000	98.635078
3642.000000	98.542719
3641.000000	98.456060
3640.000000	98.383810
3639.000000	98.328380
3638.000000	98.284987
3637.000000	98.248956
3636.000000	98.218586
3635.000000	98.190150
3634.000000	98.154774
3633.000000	98.110734
3632.000000	98.070223
3631.000000	98.045183
3630.000000	98.024700
3629.000000	97.982495
3628.000000	97.925377
3627.000000	97.883460
3626.000000	97.853491
3625.000000	97.811564
3624.000000	97.750675
3623.000000	97.680747
3622.000000	97.613411
3621.000000	97.548936
3620.000000	97.478915
3619.000000	97.405613
3618.000000	97.345342
3617.000000	97.303100
3616.000000	97.266494
3615.000000	97.222026
3614.000000	97.164019
3613.000000	97.098769
3612.000000	97.040857
3611.000000	96.996579
3610.000000	96.953594
3609.000000	96.892105
3608.000000	96.807026
3607.000000	96.714955
3606.000000	96.633039
3605.000000	96.562056
3604.000000	96.494756
3603.000000	96.426276
3602.000000	96.356635
3601.000000	96.288763
3600.000000	96.225620
3599.000000	96.169429
3598.000000	96.117902
3597.000000	96.063300
3596.000000	96.000955
3595.000000	95.934104
3594.000000	95.869030
3593.000000	95.812767
3592.000000	95.770164
3591.000000	95.740768
3590.000000	95.718230
3589.000000	95.689789
3588.000000	95.643689
3587.000000	95.582706
3586.000000	95.517752
3585.000000	95.449074
3584.000000	95.369600
3583.000000	95.278572
3582.000000	95.182696
3581.000000	95.091100
3580.000000	95.010966
3579.000000	94.944877
3578.000000	94.888963
3577.000000	94.836378
3576.000000	94.782460
3575.000000	94.726894
3574.000000	94.670990
3573.000000	94.616482
3572.000000	94.566862
3571.000000	94.525105
3570.000000	94.491346
3569.000000	94.460081
3568.000000	94.421893
3567.000000	94.373724
3566.000000	94.323211
3565.000000	94.273113
3564.000000	94.214881
3563.000000	94.140121
3562.000000	94.048246
3561.000000	93.946599
3560.000000	93.846366
3559.000000	93.756029
3558.000000	93.677467
3557.000000	93.608692
3556.000000	93.547901
3555.000000	93.493133
3554.000000	93.440277
3553.000000	93.385219
3552.000000	93.328761
3551.000000	93.274821
3550.000000	93.223720
3549.000000	93.171193
3548.000000	93.112874
3547.000000	93.047724
3546.000000	92.977720
3545.000000	92.906356
3544.000000	92.836865
3543.000000	92.770307
3542.000000	92.704613
3541.000000	92.637347
3540.000000	92.568557
3539.000000	92.499187
3538.000000	92.427993
3537.000000	92.352830
3536.000000	92.276231
3535.000000	92.204921
3534.000000	92.143343
3533.000000	92.090787
3532.000000	92.044198
3531.000000	92.000966
3530.000000	91.958612
3529.000000	91.915167
3528.000000	91.870690
3527.000000	91.825708
3526.000000	91.777372
3525.000000	91.719987
3524.000000	91.651128
3523.000000	91.575817
3522.000000	91.502721
3521.000000	91.437128
3520.000000	91.378824
3519.000000	91.324579
3518.000000	91.271188
3517.000000	91.217095
3516.000000	91.162131
3515.000000	91.105158
3514.000000	91.043376
3513.000000	90.975924
3512.000000	90.905885
3511.000000	90.837108
3510.000000	90.771577
3509.000000	90.711020
3508.000000	90.657987
3507.000000	90.612539
3506.000000	90.569353
3505.000000	90.520493
3504.000000	90.461384
3503.000000	90.392997
3502.000000	90.318495
3501.000000	90.240218
3500.000000	90.159737
3499.000000	90.078366
3498.000000	89.997101
3497.000000	89.918240
3496.000000	89.846364
3495.000000	89.784142
3494.000000	89.727524
3493.000000	89.668337
3492.000000	89.601064
3491.000000	89.524627
3490.000000	89.439588
3489.000000	89.347855
3488.000000	89.254353
3487.000000	89.165446
3486.000000	89.084750
3485.000000	89.012108
3484.000000	88.946018
3483.000000	88.883891
3482.000000	88.820601
3481.000000	88.749932
3480.000000	88.668262
3479.000000	88.575887
3478.000000	88.475493
3477.000000	88.371563
3476.000000	88.270342
3475.000000	88.177534
3474.000000	88.095303
3473.000000	88.021985
3472.000000	87.953944
3471.000000	87.885952
3470.000000	87.811361
3469.000000	87.725408
3468.000000	87.628315
3467.000000	87.523826
3466.000000	87.415895
3465.000000	87.308072
3464.000000	87.204134
3463.000000	87.106299
3462.000000	87.013493
3461.000000	86.923242
3460.000000	86.834244
3459.000000	86.745639
3458.000000	86.655254
3457.000000	86.560908
3456.000000	86.462355
3455.000000	86.359676
3454.000000	86.251981
3453.000000	86.139869
3452.000000	86.027429
3451.000000	85.919484
3450.000000	85.817218
3449.000000	85.718671
3448.000000	85.622351
3447.000000	85.527882
3446.000000	85.433234
3445.000000	85.333196
3444.000000	85.221890
3443.000000	85.096700
3442.000000	84.960597
3441.000000	84.821870
3440.000000	84.689834
3439.000000	84.568796
3438.000000	84.456500
3437.000000	84.348400
3436.000000	84.241295
3435.000000	84.131829
3434.000000	84.015025
3433.000000	83.886844
3432.000000	83.746645
3431.000000	83.596249
3430.000000	83.438335
3429.000000	83.277713
3428.000000	83.121572
3427.000000	82.975064
3426.000000	82.837435
3425.000000	82.703714
3424.000000	82.568435
3423.000000	82.426015
3422.000000	82.270487
3421.000000	82.099196
3420.000000	81.916085
3419.000000	81.728501
3418.000000	81.541776
3417.000000	81.358382
3416.000000	81.179708
3415.000000	81.005271
3414.000000	80.831203
3413.000000	80.652696
3412.000000	80.467006
3411.000000	80.272524
3410.000000	80.066983
3409.000000	79.849355
3408.000000	79.622600
3407.000000	79.391705
3406.000000	79.159788
3405.000000	78.927690
3404.000000	78.695567
3403.000000	78.462264
3402.000000	78.224339
3401.000000	77.978374
3400.000000	77.723684
3399.000000	77.460958
3398.000000	77.189888
3397.000000	76.910031
3396.000000	76.622032
3395.000000	76.325936
3394.000000	76.019932
3393.000000	75.703531
3392.000000	75.380399
3391.000000	75.055316
3390.000000	74.729915
3389.000000	74.402339
3388.000000	74.069291
3387.000000	73.726359
3386.000000	73.368506
3385.000000	72.993599
3384.000000	72.603969
3383.000000	72.203541
3382.000000	71.795181
3381.000000	71.381882
3380.000000	70.967765
3379.000000	70.554634
3378.000000	70.139231
3377.000000	69.715911
3376.000000	69.280043
3375.000000	68.828151
3374.000000	68.357384
3373.000000	67.867596
3372.000000	67.362845
3371.000000	66.848425
3370.000000	66.328401
3369.000000	65.805740
3368.000000	65.281932
3367.000000	64.754990
3366.000000	64.219860
3365.000000	63.672724
3364.000000	63.112401
3363.000000	62.537630
3362.000000	61.947082
3361.000000	61.343016
3360.000000	60.731780
3359.000000	60.118406
3358.000000	59.502974
3357.000000	58.883805
3356.000000	58.259953
3355.000000	57.629711
3354.000000	56.989773
3353.000000	56.338066
3352.000000	55.675716
3351.000000	55.004995
3350.000000	54.328062
3349.000000	53.647984
3348.000000	52.967378
3347.000000	52.285514
3346.000000	51.599517
3345.000000	50.909073
3344.000000	50.216969
3343.000000	49.524887
3342.000000	48.832449
3341.000000	48.140278
3340.000000	47.450093
3339.000000	46.761580
3338.000000	46.073045
3337.000000	45.385410
3336.000000	44.701561
3335.000000	44.021877
3334.000000	43.344825
3333.000000	42.671946
3332.000000	42.007388
3331.000000	41.352452
3330.000000	40.704724
3329.000000	40.062553
3328.000000	39.426451
3327.000000	38.796052
3326.000000	38.170867
3325.000000	37.554012
3324.000000	36.950434
3323.000000	36.361893
3322.000000	35.787241
3321.000000	35.227106
3320.000000	34.683700
3319.000000	34.155780
3318.000000	33.639757
3317.000000	33.134513
3316.000000	32.641111
3315.000000	32.158849
3314.000000	31.685957
3313.000000	31.224106
3312.000000	30.776682
3311.000000	30.343403
3310.000000	29.922241
3309.000000	29.514846
3308.000000	29.125937
3307.000000	28.757744
3306.000000	28.409840
3305.000000	28.083612
3304.000000	27.779789
3303.000000	27.493886
3302.000000	27.219140
3301.000000	26.953371
3300.000000	26.698731
3299.000000	26.455367
3298.000000	26.221706
3297.000000	25.999594
3296.000000	25.792686
3295.000000	25.601189
3294.000000	25.422810
3293.000000	25.258687
3292.000000	25.112756
3291.000000	24.984762
3290.000000	24.870204
3289.000000	24.765501
3288.000000	24.669238
3287.000000	24.579472
3286.000000	24.494546
3285.000000	24.416819
3284.000000	24.349939
3283.000000	24.293712
3282.000000	24.245631
3281.000000	24.205551
3280.000000	24.174529
3279.000000	24.150055
3278.000000	24.127931
3277.000000	24.107896
3276.000000	24.092346
3275.000000	24.081160
3274.000000	24.072580
3273.000000	24.068438
3272.000000	24.073738
3271.000000	24.091083
3270.000000	24.119465
3269.000000	24.156805
3268.000000	24.199579
3267.000000	24.242140
3266.000000	24.280748
3265.000000	24.317552
3264.000000	24.356931
3263.000000	24.399606
3262.000000	24.444325
3261.000000	24.492183
3260.000000	24.544477
3259.000000	24.598411
3258.000000	24.650142
3257.000000	24.700684
3256.000000	24.753823
3255.000000	24.810086
3254.000000	24.867290
3253.000000	24.925278
3252.000000	24.985163
3251.000000	25.045303
3250.000000	25.102975
3249.000000	25.159102
3248.000000	25.217031
3247.000000	25.277827
3246.000000	25.340598
3245.000000	25.405739
3244.000000	25.473751
3243.000000	25.542312
3242.000000	25.608688
3241.000000	25.673503
3240.000000	25.738434
3239.000000	25.801885
3238.000000	25.860941
3237.000000	25.915727
3236.000000	25.968413
3235.000000	26.020145
3234.000000	26.072608
3233.000000	26.129780
3232.000000	26.193418
3231.000000	26.258758
3230.000000	26.319068
3229.000000	26.372638
3228.000000	26.421618
3227.000000	26.466757
3226.000000	26.507934
3225.000000	26.547691
3224.000000	26.589110
3223.000000	26.631569
3222.000000	26.672417
3221.000000	26.711195
3220.000000	26.748326
3219.000000	26.781630
3218.000000	26.808610
3217.000000	26.830405
3216.000000	26.849689
3215.000000	26.866638
3214.000000	26.880481
3213.000000	26.892844
3212.000000	26.905157
3211.000000	26.914885
3210.000000	26.918570
3209.000000	26.916429
3208.000000	26.910441
3207.000000	26.900171
3206.000000	26.884479
3205.000000	26.865313
3204.000000	26.845301
3203.000000	26.823767
3202.000000	26.798940
3201.000000	26.771791
3200.000000	26.743824
3199.000000	26.713174
3198.000000	26.677298
3197.000000	26.637354
3196.000000	26.595883
3195.000000	26.552493
3194.000000	26.505699
3193.000000	26.456743
3192.000000	26.407454
3191.000000	26.356453
3190.000000	26.301831
3189.000000	26.245273
3188.000000	26.189591
3187.000000	26.134337
3186.000000	26.077752
3185.000000	26.020890
3184.000000	25.965651
3183.000000	25.910922
3182.000000	25.854675
3181.000000	25.797694
3180.000000	25.741581
3179.000000	25.685501
3178.000000	25.628704
3177.000000	25.573748
3176.000000	25.523316
3175.000000	25.476286
3174.000000	25.430725
3173.000000	25.387986
3172.000000	25.349820
3171.000000	25.314266
3170.000000	25.278464
3169.000000	25.243215
3168.000000	25.210975
3167.000000	25.181732
3166.000000	25.154961
3165.000000	25.132792
3164.000000	25.117208
3163.000000	25.106548
3162.000000	25.098357
3161.000000	25.093250
3160.000000	25.092188
3159.000000	25.092983
3158.000000	25.093523
3157.000000	25.095411
3156.000000	25.100929
3155.000000	25.109481
3154.000000	25.121186
3153.000000	25.140807
3152.000000	25.172934
3151.000000	25.215860
3150.000000	25.264193
3149.000000	25.315169
3148.000000	25.368768
3147.000000	25.424301
3146.000000	25.481572
3145.000000	25.542994
3144.000000	25.610192
3143.000000	25.680845
3142.000000	25.752361
3141.000000	25.826784
3140.000000	25.908462
3139.000000	25.998832
3138.000000	26.096957
3137.000000	26.202205
3136.000000	26.312986
3135.000000	26.425509
3134.000000	26.537294
3133.000000	26.650236
3132.000000	26.767088
3131.000000	26.887831
3130.000000	27.012386
3129.000000	27.143213
3128.000000	27.281907
3127.000000	27.425951
3126.000000	27.572366
3125.000000	27.721482
3124.000000	27.873596
3123.000000	28.025751
3122.000000	28.175808
3121.000000	28.326712
3120.000000	28.482871
3119.000000	28.644748
3118.000000	28.811118
3117.000000	28.983651
3116.000000	29.164882
3115.000000	29.353767
3114.000000	29.546659
3113.000000	29.740881
3112.000000	29.934317
3111.000000	30.124423
3110.000000	30.311468
3109.000000	30.500243
3108.000000	30.695148
3107.000000	30.895516
3106.000000	31.098526
3105.000000	31.304057
3104.000000	31.513113
3103.000000	31.724440
3102.000000	31.936404
3101.000000	32.150041
3100.000000	32.367001
3099.000000	32.586113
3098.000000	32.805250
3097.000000	33.024584
3096.000000	33.245005
3095.000000	33.465454
3094.000000	33.684766
3093.000000	33.904356
3092.000000	34.126382
3091.000000	34.351005
3090.000000	34.577751
3089.000000	34.807131
3088.000000	35.038455
3087.000000	35.268597
3086.000000	35.495724
3085.000000	35.722178
3084.000000	35.950957
3083.000000	36.181618
3082.000000	36.412316
3081.000000	36.643468
3080.000000	36.876704
3079.000000	37.112272
3078.000000	37.350156
3077.000000	37.591522
3076.000000	37.836167
3075.000000	38.080543
3074.000000	38.321075
3073.000000	38.557599
3072.000000	38.791298
3071.000000	39.021677
3070.000000	39.248465
3069.000000	39.474549
3068.000000	39.703923
3067.000000	39.937971
3066.000000	40.175839
3065.000000	40.416606
3064.000000	40.658520
3063.000000	40.897989
3062.000000	41.132010
3061.000000	41.360624
3060.000000	41.585283
3059.000000	41.806679
3058.000000	42.026210
3057.000000	42.247318
3056.000000	42.472794
3055.000000	42.701849
3054.000000	42.931840
3053.000000	43.161306
3052.000000	43.389417
3051.000000	43.614520
3050.000000	43.835437
3049.000000	44.052756
3048.000000	44.267182
3047.000000	44.478339
3046.000000	44.687077
3045.000000	44.896835
3044.000000	45.110510
3043.000000	45.327711
3042.000000	45.546646
3041.000000	45.766472
3040.000000	45.985540
3039.000000	46.199684
3038.000000	46.405492
3037.000000	46.604029
3036.000000	46.799421
3035.000000	46.995138
3034.000000	47.193257
3033.000000	47.395348
3032.000000	47.601198
3031.000000	47.807997
3030.000000	48.013035
3029.000000	48.215922
3028.000000	48.416658
3027.000000	48.613557
3026.000000	48.805593
3025.000000	48.995027
3024.000000	49.184886
3023.000000	49.375121
3022.000000	49.563641
3021.000000	49.750015
3020.000000	49.935707
3019.000000	50.121522
3018.000000	50.307106
3017.000000	50.492198
3016.000000	50.676331
3015.000000	50.858096
3014.000000	51.036554
3013.000000	51.212735
3012.000000	51.388216
3011.000000	51.563262
3010.000000	51.738002
3009.000000	51.914114
3008.000000	52.093378
3007.000000	52.275462
3006.000000	52.458752
3005.000000	52.642216
3004.000000	52.824600
3003.000000	53.002940
3002.000000	53.174096
3001.000000	53.337413
3000.000000	53.494800
2999.000000	53.649315
2998.000000	53.804913
2997.000000	53.965830
2996.000000	54.133590
2995.000000	54.305255
2994.000000	54.476401
2993.000000	54.645018
2992.000000	54.810937
2991.000000	54.972908
2990.000000	55.129023
2989.000000	55.279689
2988.000000	55.428093
2987.000000	55.577785
2986.000000	55.731168
2985.000000	55.889503
2984.000000	56.052226
2983.000000	56.216311
2982.000000	56.378131
2981.000000	56.536043
2980.000000	56.690225
2979.000000	56.840735
2978.000000	56.987383
2977.000000	57.131187
2976.000000	57.274266
2975.000000	57.418383
2974.000000	57.564538
2973.000000	57.713309
2972.000000	57.864201
2971.000000	58.015089
2970.000000	58.163802
2969.000000	58.309990
2968.000000	58.454309
2967.000000	58.596572
2966.000000	58.736073
2965.000000	58.873165
2964.000000	59.008970
2963.000000	59.143988
2962.000000	59.278575
2961.000000	59.414103
2960.000000	59.552009
2959.000000	59.692044
2958.000000	59.832733
2957.000000	59.972900
2956.000000	60.111152
2955.000000	60.244801
2954.000000	60.371494
2953.000000	60.491765
2952.000000	60.608486
2951.000000	60.724119
2950.000000	60.840183
2949.000000	60.958759
2948.000000	61.082219
2947.000000	61.211062
2946.000000	61.343264
2945.000000	61.475662
2944.000000	61.604844
2943.000000	61.727374
2942.000000	61.841204
2941.000000	61.947514
2940.000000	62.050187
2939.000000	62.153631
2938.000000	62.261637
2937.000000	62.377157
2936.000000	62.500790
2935.000000	62.629293
2934.000000	62.757185
2933.000000	62.879992
2932.000000	62.995208
2931.000000	63.101324
2930.000000	63.198642
2929.000000	63.291241
2928.000000	63.385820
2927.000000	63.487393
2926.000000	63.596839
2925.000000	63.712166
2924.000000	63.830313
2923.000000	63.947818
2922.000000	64.061921
2921.000000	64.171833
2920.000000	64.277948
2919.000000	64.380105
2918.000000	64.478139
2917.000000	64.573656
2916.000000	64.668930
2915.000000	64.763630
2914.000000	64.854653
2913.000000	64.939959
2912.000000	65.021080
2911.000000	65.101267
2910.000000	65.182780
2909.000000	65.266493
2908.000000	65.352494
2907.000000	65.439597
2906.000000	65.525115
2905.000000	65.606355
2904.000000	65.682302
2903.000000	65.753874
2902.000000	65.823838
2901.000000	65.896320
2900.000000	65.975308
2899.000000	66.062389
2898.000000	66.154808
2897.000000	66.246723
2896.000000	66.331639
2895.000000	66.405009
2894.000000	66.466197
2893.000000	66.518877
2892.000000	66.568907
2891.000000	66.621470
2890.000000	66.680032
2889.000000	66.746766
2888.000000	66.821933
2887.000000	66.902372
2886.000000	66.981907
2885.000000	67.054001
2884.000000	67.113903
2883.000000	67.159320
2882.000000	67.191066
2881.000000	67.213676
2880.000000	67.234084
2879.000000	67.258743
2878.000000	67.291963
2877.000000	67.335802
2876.000000	67.389052
2875.000000	67.445930
2874.000000	67.498313
2873.000000	67.541281
2872.000000	67.576626
2871.000000	67.610986
2870.000000	67.651736
2869.000000	67.704790
2868.000000	67.773739
2867.000000	67.858939
2866.000000	67.957824
2865.000000	68.066959
2864.000000	68.183488
2863.000000	68.304370
2862.000000	68.425631
2861.000000	68.543735
2860.000000	68.657471
2859.000000	68.767663
2858.000000	68.875658
2857.000000	68.982751
2856.000000	69.090186
2855.000000	69.198687
2854.000000	69.308100
2853.000000	69.418054
2852.000000	69.528571
2851.000000	69.639450
2850.000000	69.749353
2849.000000	69.855878
2848.000000	69.956241
2847.000000	70.048011
2846.000000	70.130196
2845.000000	70.204400
2844.000000	70.274664
2843.000000	70.345714
2842.000000	70.421367
2841.000000	70.504034
2840.000000	70.594169
2839.000000	70.689432
2838.000000	70.785090
2837.000000	70.875921
2836.000000	70.957712
2835.000000	71.027757
2834.000000	71.085978
2833.000000	71.136601
2832.000000	71.187495
2831.000000	71.246372
2830.000000	71.317300
2829.000000	71.400161
2828.000000	71.491607
2827.000000	71.585574
2826.000000	71.674401
2825.000000	71.751675
2824.000000	71.814901
2823.000000	71.865861
2822.000000	71.909492
2821.000000	71.952808
2820.000000	72.003121
2819.000000	72.065085
2818.000000	72.138734
2817.000000	72.220267
2816.000000	72.304107
2815.000000	72.384317
2814.000000	72.456009
2813.000000	72.517384
2812.000000	72.570563
2811.000000	72.619946
2810.000000	72.669957
2809.000000	72.724197
2808.000000	72.785041
2807.000000	72.852585
2806.000000	72.924430
2805.000000	72.997322
2804.000000	73.068766
2803.000000	73.137037
2802.000000	73.200975
2801.000000	73.260675
2800.000000	73.317444
2799.000000	73.372130
2798.000000	73.424264
2797.000000	73.473649
2796.000000	73.521954
2795.000000	73.571857
2794.000000	73.625417
2793.000000	73.683998
2792.000000	73.748379
2791.000000	73.817468
2790.000000	73.887568
2789.000000	73.954150
2788.000000	74.014056
2787.000000	74.065585
2786.000000	74.108095
2785.000000	74.143294
2784.000000	74.176322
2783.000000	74.213892
2782.000000	74.260916
2781.000000	74.318884
2780.000000	74.385859
2779.000000	74.456489
2778.000000	74.522904
2777.000000	74.577800
2776.000000	74.617815
2775.000000	74.644420
2774.000000	74.662970
2773.000000	74.681710
2772.000000	74.709717
2771.000000	74.753040
2770.000000	74.811758
2769.000000	74.880783
2768.000000	74.952649
2767.000000	75.019423
2766.000000	75.074292
2765.000000	75.114168
2764.000000	75.141509
2763.000000	75.162809
2762.000000	75.185259
2761.000000	75.214715
2760.000000	75.254645
2759.000000	75.304715
2758.000000	75.360556
2757.000000	75.416247
2756.000000	75.467328
2755.000000	75.511505
2754.000000	75.548109
2753.000000	75.578468
2752.000000	75.606012
2751.000000	75.634422
2750.000000	75.665642
2749.000000	75.700081
2748.000000	75.737720
2747.000000	75.777887
2746.000000	75.819014
2745.000000	75.859983
2744.000000	75.901038
2743.000000	75.942303
2742.000000	75.982281
2741.000000	76.018984
2740.000000	76.051573
2739.000000	76.079732
2738.000000	76.102806
2737.000000	76.121353
2736.000000	76.138822
2735.000000	76.160052
2734.000000	76.188327
2733.000000	76.224528
2732.000000	76.267653
2731.000000	76.314242
2730.000000	76.358208
2729.000000	76.393474
2728.000000	76.417262
2727.000000	76.430466
2726.000000	76.436299
2725.000000	76.440137
2724.000000	76.449226
2723.000000	76.469737
2722.000000	76.503347
2721.000000	76.547013
2720.000000	76.594988
2719.000000	76.640007
2718.000000	76.674486
2717.000000	76.693887
2716.000000	76.699829
2715.000000	76.699063
2714.000000	76.699630
2713.000000	76.708325
2712.000000	76.729580
2711.000000	76.763698
2710.000000	76.805868
2709.000000	76.848417
2708.000000	76.884458
2707.000000	76.909481
2706.000000	76.921450
2705.000000	76.921871
2704.000000	76.916194
2703.000000	76.911072
2702.000000	76.910739
2701.000000	76.916274
2700.000000	76.926992
2699.000000	76.940707
2698.000000	76.953595
2697.000000	76.962239
2696.000000	76.965931
2695.000000	76.965962
2694.000000	76.963284
2693.000000	76.958161
2692.000000	76.951227
2691.000000	76.942994
2690.000000	76.932873
2689.000000	76.920237
2688.000000	76.906075
2687.000000	76.892517
2686.000000	76.881293
2685.000000	76.873664
2684.000000	76.870555
2683.000000	76.870812
2682.000000	76.870052
2681.000000	76.862988
2680.000000	76.846860
2679.000000	76.821967
2678.000000	76.790503
2677.000000	76.756963
2676.000000	76.728547
2675.000000	76.712256
2674.000000	76.710863
2673.000000	76.722303
2672.000000	76.741755
2671.000000	76.762972
2670.000000	76.779147
2669.000000	76.785642
2668.000000	76.783216
2667.000000	76.777632
2666.000000	76.776542
2665.000000	76.787243
2664.000000	76.815201
2663.000000	76.861911
2662.000000	76.923294
2661.000000	76.991536
2660.000000	77.058841
2659.000000	77.119224
2658.000000	77.169097
2657.000000	77.208701
2656.000000	77.242960
2655.000000	77.279037
2654.000000	77.322281
2653.000000	77.374817
2652.000000	77.436336
2651.000000	77.504029
2650.000000	77.572385
2649.000000	77.635486
2648.000000	77.690157
2647.000000	77.736310
2646.000000	77.775120
2645.000000	77.808376
2644.000000	77.838848
2643.000000	77.868951
2642.000000	77.899083
2641.000000	77.928448
2640.000000	77.956880
2639.000000	77.984800
2638.000000	78.012168
2637.000000	78.039129
2636.000000	78.066859
2635.000000	78.095758
2634.000000	78.123440
2633.000000	78.146118
2632.000000	78.161657
2631.000000	78.170106
2630.000000	78.172356
2629.000000	78.170682
2628.000000	78.169937
2627.000000	78.175694
2626.000000	78.190677
2625.000000	78.213615
2624.000000	78.240592
2623.000000	78.265783
2622.000000	78.282110
2621.000000	78.284230
2620.000000	78.271821
2619.000000	78.249492
2618.000000	78.224260
2617.000000	78.203957
2616.000000	78.195991
2615.000000	78.204073
2614.000000	78.225269
2613.000000	78.251308
2612.000000	78.272713
2611.000000	78.281611
2610.000000	78.272986
2609.000000	78.246728
2608.000000	78.208782
2607.000000	78.168209
2606.000000	78.132577
2605.000000	78.105919
2604.000000	78.088993
2603.000000	78.078995
2602.000000	78.069395
2601.000000	78.052853
2600.000000	78.025030
2599.000000	77.985463
2598.000000	77.936428
2597.000000	77.882753
2596.000000	77.831512
2595.000000	77.789222
2594.000000	77.758878
2593.000000	77.740402
2592.000000	77.733225
2591.000000	77.736684
2590.000000	77.749382
2589.000000	77.770234
2588.000000	77.799303
2587.000000	77.836686
2586.000000	77.880664
2585.000000	77.928694
2584.000000	77.979678
2583.000000	78.033331
2582.000000	78.089092
2581.000000	78.147297
2580.000000	78.210891
2579.000000	78.283862
2578.000000	78.367602
2577.000000	78.460231
2576.000000	78.558070
2575.000000	78.655901
2574.000000	78.746990
2573.000000	78.825711
2572.000000	78.891050
2571.000000	78.946776
2570.000000	78.999148
2569.000000	79.055571
2568.000000	79.123423
2567.000000	79.206503
2566.000000	79.301819
2565.000000	79.401108
2564.000000	79.495113
2563.000000	79.575997
2562.000000	79.638237
2561.000000	79.681174
2560.000000	79.711242
2559.000000	79.739240
2558.000000	79.774897
2557.000000	79.824145
2556.000000	79.888943
2555.000000	79.966372
2554.000000	80.047984
2553.000000	80.123205
2552.000000	80.184548
2551.000000	80.229355
2550.000000	80.258757
2549.000000	80.277475
2548.000000	80.293660
2547.000000	80.315362
2546.000000	80.346206
2545.000000	80.385485
2544.000000	80.430534
2543.000000	80.476994
2542.000000	80.518349
2541.000000	80.548787
2540.000000	80.567155
2539.000000	80.575880
2538.000000	80.577021
2537.000000	80.571468
2536.000000	80.560638
2535.000000	80.546262
2534.000000	80.528205
2533.000000	80.505327
2532.000000	80.478281
2531.000000	80.448915
2530.000000	80.417823
2529.000000	80.384292
2528.000000	80.348104
2527.000000	80.309069
2526.000000	80.265406
2525.000000	80.215678
2524.000000	80.162325
2523.000000	80.111517
2522.000000	80.070018
2521.000000	80.044288
2520.000000	80.040462
2519.000000	80.061892
2518.000000	80.105904
2517.000000	80.164253
2516.000000	80.227466
2515.000000	80.287010
2514.000000	80.336072
2513.000000	80.372402
2512.000000	80.400719
2511.000000	80.430688
2510.000000	80.471456
2509.000000	80.528678
2508.000000	80.604172
2507.000000	80.694366
2506.000000	80.789272
2505.000000	80.876095
2504.000000	80.945475
2503.000000	80.994174
2502.000000	81.024002
2501.000000	81.041174
2500.000000	81.055964
2499.000000	81.079088
2498.000000	81.116547
2497.000000	81.168497
2496.000000	81.231087
2495.000000	81.297111
2494.000000	81.356655
2493.000000	81.401189
2492.000000	81.428429
2491.000000	81.441926
2490.000000	81.447157
2489.000000	81.449965
2488.000000	81.456741
2487.000000	81.472219
2486.000000	81.496402
2485.000000	81.525760
2484.000000	81.557094
2483.000000	81.588075
2482.000000	81.615589
2481.000000	81.636915
2480.000000	81.652406
2479.000000	81.664392
2478.000000	81.673694
2477.000000	81.679776
2476.000000	81.683542
2475.000000	81.687383
2474.000000	81.693015
2473.000000	81.701746
2472.000000	81.716072
2471.000000	81.737946
2470.000000	81.765517
2469.000000	81.793826
2468.000000	81.818096
2467.000000	81.834480
2466.000000	81.839182
2465.000000	81.830723
2464.000000	81.813376
2463.000000	81.795813
2462.000000	81.786346
2461.000000	81.790620
2460.000000	81.811509
2459.000000	81.847094
2458.000000	81.888882
2457.000000	81.925211
2456.000000	81.947463
2455.000000	81.952341
2454.000000	81.940561
2453.000000	81.917287
2452.000000	81.892896
2451.000000	81.879122
2450.000000	81.882955
2449.000000	81.904879
2448.000000	81.940949
2447.000000	81.983481
2446.000000	82.021254
2445.000000	82.043771
2444.000000	82.046983
2443.000000	82.034045
2442.000000	82.011866
2441.000000	81.989114
2440.000000	81.975501
2439.000000	81.978235
2438.000000	81.997875
2437.000000	82.029141
2436.000000	82.064952
2435.000000	82.098071
2434.000000	82.121256
2433.000000	82.130182
2432.000000	82.126636
2431.000000	82.116534
2430.000000	82.105355
2429.000000	82.097390
2428.000000	82.097124
2427.000000	82.107349
2426.000000	82.126302
2425.000000	82.149530
2424.000000	82.173962
2423.000000	82.197918
2422.000000	82.218733
2421.000000	82.233908
2420.000000	82.243908
2419.000000	82.250640
2418.000000	82.254014
2417.000000	82.253216
2416.000000	82.250514
2415.000000	82.250508
2414.000000	82.256181
2413.000000	82.268497
2412.000000	82.288565
2411.000000	82.316344
2410.000000	82.347548
2409.000000	82.375148
2408.000000	82.393985
2407.000000	82.401901
2406.000000	82.398174
2405.000000	82.384846
2404.000000	82.369115
2403.000000	82.360717
2402.000000	82.366369
2401.000000	82.388059
2400.000000	82.424410
2399.000000	82.469954
2398.000000	82.514132
2397.000000	82.545441
2396.000000	82.557872
2395.000000	82.552532
2394.000000	82.535135
2393.000000	82.515002
2392.000000	82.504196
2391.000000	82.512463
2390.000000	82.541757
2389.000000	82.586794
2388.000000	82.639697
2387.000000	82.691117
2386.000000	82.730391
2385.000000	82.750408
2384.000000	82.752433
2383.000000	82.745128
2382.000000	82.738261
2381.000000	82.740472
2380.000000	82.760026
2379.000000	82.800973
2378.000000	82.859690
2377.000000	82.926863
2376.000000	82.993224
2375.000000	83.051463
2374.000000	83.095688
2373.000000	83.124201
2372.000000	83.141960
2371.000000	83.156663
2370.000000	83.172611
2369.000000	83.192650
2368.000000	83.220230
2367.000000	83.256478
2366.000000	83.297933
2365.000000	83.339944
2364.000000	83.382897
2363.000000	83.426491
2362.000000	83.466717
2361.000000	83.502224
2360.000000	83.534306
2359.000000	83.566887
2358.000000	83.599600
2357.000000	83.631602
2356.000000	83.666371
2355.000000	83.704195
2354.000000	83.744203
2353.000000	83.783048
2352.000000	83.819920
2351.000000	83.853933
2350.000000	83.882142
2349.000000	83.908813
2348.000000	83.942107
2347.000000	83.989006
2346.000000	84.038962
2345.000000	84.072566
2344.000000	84.087250
2343.000000	84.097709
2342.000000	84.124027
2341.000000	84.170162
2340.000000	84.229517
2339.000000	84.292104
2338.000000	84.348519
2337.000000	84.390542
2336.000000	84.416062
2335.000000	84.429385
2334.000000	84.439328
2333.000000	84.454442
2332.000000	84.483343
2331.000000	84.533454
2330.000000	84.601648
2329.000000	84.679633
2328.000000	84.753396
2327.000000	84.815444
2326.000000	84.858780
2325.000000	84.879614
2324.000000	84.882818
2323.000000	84.878939
2322.000000	84.881673
2321.000000	84.898475
2320.000000	84.935124
2319.000000	84.991249
2318.000000	85.058543
2317.000000	85.123089
2316.000000	85.173787
2315.000000	85.207577
2314.000000	85.224582
2313.000000	85.229021
2312.000000	85.229168
2311.000000	85.237076
2310.000000	85.259068
2309.000000	85.294913
2308.000000	85.340573
2307.000000	85.391782
2306.000000	85.441967
2305.000000	85.484556
2304.000000	85.518353
2303.000000	85.547458
2302.000000	85.575301
2301.000000	85.602591
2300.000000	85.629838
2299.000000	85.658568
2298.000000	85.687000
2297.000000	85.712336
2296.000000	85.734985
2295.000000	85.759939
2294.000000	85.790754
2293.000000	85.828251
2292.000000	85.872541
2291.000000	85.922349
2290.000000	85.971010
2289.000000	86.008707
2288.000000	86.030161
2287.000000	86.037126
2286.000000	86.034801
2285.000000	86.030188
2284.000000	86.034141
2283.000000	86.057519
2282.000000	86.103418
2281.000000	86.164996
2280.000000	86.231118
2279.000000	86.289985
2278.000000	86.329356
2277.000000	86.340757
2276.000000	86.326742
2275.000000	86.300827
2274.000000	86.279218
2273.000000	86.275056
2272.000000	86.297359
2271.000000	86.348003
2270.000000	86.417193
2269.000000	86.486456
2268.000000	86.538538
2267.000000	86.563554
2266.000000	86.558898
2265.000000	86.530344
2264.000000	86.493555
2263.000000	86.468251
2262.000000	86.467183
2261.000000	86.491980
2260.000000	86.537137
2259.000000	86.592234
2258.000000	86.641855
2257.000000	86.670776
2256.000000	86.673410
2255.000000	86.655478
2254.000000	86.627263
2253.000000	86.599166
2252.000000	86.581753
2251.000000	86.582495
2250.000000	86.599671
2249.000000	86.623130
2248.000000	86.642593
2247.000000	86.652021
2246.000000	86.648011
2245.000000	86.630861
2244.000000	86.607248
2243.000000	86.586871
2242.000000	86.574159
2241.000000	86.566384
2240.000000	86.558928
2239.000000	86.547860
2238.000000	86.528410
2237.000000	86.497472
2236.000000	86.459260
2235.000000	86.423873
2234.000000	86.399184
2233.000000	86.386969
2232.000000	86.385060
2231.000000	86.387509
2230.000000	86.382847
2229.000000	86.358836
2228.000000	86.311673
2227.000000	86.248023
2226.000000	86.179200
2225.000000	86.117552
2224.000000	86.076144
2223.000000	86.063595
2222.000000	86.076089
2221.000000	86.097908
2220.000000	86.110957
2219.000000	86.101699
2218.000000	86.062373
2217.000000	85.993998
2216.000000	85.910435
2215.000000	85.833866
2214.000000	85.782998
2213.000000	85.766139
2212.000000	85.781924
2211.000000	85.819783
2210.000000	85.859772
2209.000000	85.879610
2208.000000	85.866658
2207.000000	85.822702
2206.000000	85.759327
2205.000000	85.693462
2204.000000	85.644913
2203.000000	85.629025
2202.000000	85.647265
2201.000000	85.686958
2200.000000	85.730454
2199.000000	85.762249
2198.000000	85.770773
2197.000000	85.752029
2196.000000	85.714337
2195.000000	85.674859
2194.000000	85.648978
2193.000000	85.644192
2192.000000	85.661087
2191.000000	85.693517
2190.000000	85.727905
2189.000000	85.749232
2188.000000	85.751102
2187.000000	85.737879
2186.000000	85.718267
2185.000000	85.701251
2184.000000	85.695935
2183.000000	85.707440
2182.000000	85.730624
2181.000000	85.752251
2180.000000	85.760781
2179.000000	85.751689
2178.000000	85.725819
2177.000000	85.689388
2176.000000	85.655819
2175.000000	85.640387
2174.000000	85.649605
2173.000000	85.677768
2172.000000	85.712619
2171.000000	85.740034
2170.000000	85.745652
2169.000000	85.720891
2168.000000	85.671063
2167.000000	85.613863
2166.000000	85.568629
2165.000000	85.548895
2164.000000	85.561265
2163.000000	85.602820
2162.000000	85.657745
2161.000000	85.702649
2160.000000	85.719157
2159.000000	85.701087
2158.000000	85.653056
2157.000000	85.589046
2156.000000	85.531371
2155.000000	85.502189
2154.000000	85.510960
2153.000000	85.550965
2152.000000	85.606179
2151.000000	85.657432
2150.000000	85.685353
2149.000000	85.677396
2148.000000	85.636488
2147.000000	85.579670
2146.000000	85.527161
2145.000000	85.494515
2144.000000	85.490960
2143.000000	85.516059
2142.000000	85.556091
2141.000000	85.590147
2140.000000	85.603158
2139.000000	85.591439
2138.000000	85.558971
2137.000000	85.515404
2136.000000	85.476644
2135.000000	85.458459
2134.000000	85.465395
2133.000000	85.488824
2132.000000	85.515272
2131.000000	85.532875
2130.000000	85.532333
2129.000000	85.510381
2128.000000	85.475272
2127.000000	85.443547
2126.000000	85.428827
2125.000000	85.435674
2124.000000	85.461611
2123.000000	85.497871
2122.000000	85.528454
2121.000000	85.536771
2120.000000	85.517266
2119.000000	85.478162
2118.000000	85.433970
2117.000000	85.400100
2116.000000	85.391765
2115.000000	85.418254
2114.000000	85.474140
2113.000000	85.540029
2112.000000	85.594073
2111.000000	85.621171
2110.000000	85.615101
2109.000000	85.581017
2108.000000	85.537745
2107.000000	85.510611
2106.000000	85.517648
2105.000000	85.563075
2104.000000	85.640187
2103.000000	85.733714
2102.000000	85.820865
2101.000000	85.879788
2100.000000	85.902445
2099.000000	85.897486
2098.000000	85.881920
2097.000000	85.874199
2096.000000	85.891900
2095.000000	85.945624
2094.000000	86.030511
2093.000000	86.127783
2092.000000	86.216621
2091.000000	86.282576
2090.000000	86.318557
2089.000000	86.326987
2088.000000	86.322344
2087.000000	86.324089
2086.000000	86.344013
2085.000000	86.382363
2084.000000	86.433125
2083.000000	86.486760
2082.000000	86.529372
2081.000000	86.548605
2080.000000	86.543876
2079.000000	86.526463
2078.000000	86.509366
2077.000000	86.501263
2076.000000	86.507458
2075.000000	86.527770
2074.000000	86.551682
2073.000000	86.563032
2072.000000	86.551957
2071.000000	86.519220
2070.000000	86.472223
2069.000000	86.422923
2068.000000	86.387180
2067.000000	86.377435
2066.000000	86.393675
2065.000000	86.424989
2064.000000	86.458526
2063.000000	86.481822
2062.000000	86.480883
2061.000000	86.447783
2060.000000	86.392501
2059.000000	86.339845
2058.000000	86.312641
2057.000000	86.321950
2056.000000	86.369107
2055.000000	86.445893
2054.000000	86.531688
2053.000000	86.600541
2052.000000	86.636208
2051.000000	86.638381
2050.000000	86.617143
2049.000000	86.589042
2048.000000	86.576464
2047.000000	86.599948
2046.000000	86.666096
2045.000000	86.764688
2044.000000	86.876937
2043.000000	86.982707
2042.000000	87.063844
2041.000000	87.111679
2040.000000	87.134495
2039.000000	87.151661
2038.000000	87.179573
2037.000000	87.227108
2036.000000	87.299965
2035.000000	87.399036
2034.000000	87.513995
2033.000000	87.627197
2032.000000	87.726788
2031.000000	87.811332
2030.000000	87.883073
2029.000000	87.945699
2028.000000	88.008051
2027.000000	88.080270
2026.000000	88.163337
2025.000000	88.249223
2024.000000	88.331538
2023.000000	88.409361
2022.000000	88.482709
2021.000000	88.552061
2020.000000	88.622505
2019.000000	88.700633
2018.000000	88.786451
2017.000000	88.874430
2016.000000	88.961523
2015.000000	89.045471
2014.000000	89.116586
2013.000000	89.163242
2012.000000	89.187717
2011.000000	89.207290
2010.000000	89.238616
2009.000000	89.289473
2008.000000	89.363511
2007.000000	89.460182
2006.000000	89.566280
2005.000000	89.658568
2004.000000	89.719848
2003.000000	89.746867
2002.000000	89.745116
2001.000000	89.725657
2000.000000	89.709085
1999.000000	89.718537
1998.000000	89.764101
1997.000000	89.842316
1996.000000	89.945335
1995.000000	90.058002
1994.000000	90.150703
1993.000000	90.193326
1992.000000	90.182394
1991.000000	90.144628
1990.000000	90.109447
1989.000000	90.089704
1988.000000	90.091476
1987.000000	90.123542
1986.000000	90.186446
1985.000000	90.264305
1984.000000	90.336435
1983.000000	90.389832
1982.000000	90.418026
1981.000000	90.418633
1980.000000	90.399594
1979.000000	90.377444
1978.000000	90.364397
1977.000000	90.364590
1976.000000	90.381031
1975.000000	90.415619
1974.000000	90.461263
1973.000000	90.505451
1972.000000	90.543667
1971.000000	90.579919
1970.000000	90.613028
1969.000000	90.632820
1968.000000	90.632507
1967.000000	90.616895
1966.000000	90.596740
1965.000000	90.581168
1964.000000	90.575692
1963.000000	90.581926
1962.000000	90.597269
1961.000000	90.618611
1960.000000	90.647115
1959.000000	90.683897
1958.000000	90.721478
1957.000000	90.746419
1956.000000	90.750881
1955.000000	90.736340
1954.000000	90.707496
1953.000000	90.671494
1952.000000	90.641381
1951.000000	90.632600
1950.000000	90.652839
1949.000000	90.697810
1948.000000	90.759556
1947.000000	90.830362
1946.000000	90.895122
1945.000000	90.929668
1944.000000	90.914308
1943.000000	90.848939
1942.000000	90.756743
1941.000000	90.676383
1940.000000	90.639825
1939.000000	90.651294
1938.000000	90.693086
1937.000000	90.746558
1936.000000	90.801254
1935.000000	90.846740
1934.000000	90.866107
1933.000000	90.847830
1932.000000	90.798603
1931.000000	90.738264
1930.000000	90.683593
1929.000000	90.643038
1928.000000	90.628395
1927.000000	90.652510
1926.000000	90.712411
1925.000000	90.781512
1924.000000	90.827032
1923.000000	90.836483
1922.000000	90.820872
1921.000000	90.794850
1920.000000	90.756283
1919.000000	90.693044
1918.000000	90.609522
1917.000000	90.537398
1916.000000	90.512846
1915.000000	90.539213
1914.000000	90.586946
1913.000000	90.629890
1912.000000	90.661454
1911.000000	90.679087
1910.000000	90.669014
1909.000000	90.619997
1908.000000	90.546808
1907.000000	90.477185
1906.000000	90.424928
1905.000000	90.387646
1904.000000	90.363744
1903.000000	90.358966
1902.000000	90.371515
1901.000000	90.389233
1900.000000	90.406576
1899.000000	90.426111
1898.000000	90.443473
1897.000000	90.444094
1896.000000	90.418114
1895.000000	90.373422
1894.000000	90.330210
1893.000000	90.307395
1892.000000	90.311352
1891.000000	90.332243
1890.000000	90.350359
1889.000000	90.354857
1888.000000	90.360154
1887.000000	90.381722
1886.000000	90.401756
1885.000000	90.389161
1884.000000	90.340250
1883.000000	90.278399
1882.000000	90.222143
1881.000000	90.176149
1880.000000	90.150540
1879.000000	90.159547
1878.000000	90.200502
1877.000000	90.253214
1876.000000	90.298194
1875.000000	90.326337
1874.000000	90.334868
1873.000000	90.324774
1872.000000	90.304126
1871.000000	90.283861
1870.000000	90.266666
1869.000000	90.244450
1868.000000	90.215863
1867.000000	90.197908
1866.000000	90.198123
1865.000000	90.199083
1864.000000	90.185422
1863.000000	90.156735
1862.000000	90.111067
1861.000000	90.042371
1860.000000	89.960301
1859.000000	89.889802
1858.000000	89.845848
1857.000000	89.826880
1856.000000	89.831400
1855.000000	89.858687
1854.000000	89.894105
1853.000000	89.913982
1852.000000	89.912302
1851.000000	89.895377
1850.000000	89.860759
1849.000000	89.811066
1848.000000	89.769994
1847.000000	89.755867
1846.000000	89.746134
1845.000000	89.696232
1844.000000	89.600067
1843.000000	89.517670
1842.000000	89.503230
1841.000000	89.533420
1840.000000	89.556902
1839.000000	89.553998
1838.000000	89.526349
1837.000000	89.471827
1836.000000	89.392473
1835.000000	89.312248
1834.000000	89.261345
1833.000000	89.253608
1832.000000	89.284127
1831.000000	89.330724
1830.000000	89.355149
1829.000000	89.334918
1828.000000	89.291192
1827.000000	89.237995
1826.000000	89.148015
1825.000000	89.006821
1824.000000	88.853980
1823.000000	88.742955
1822.000000	88.679084
1821.000000	88.634162
1820.000000	88.598365
1819.000000	88.580525
1818.000000	88.580303
1817.000000	88.581806
1816.000000	88.574631
1815.000000	88.561833
1814.000000	88.537326
1813.000000	88.486733
1812.000000	88.408537
1811.000000	88.318146
1810.000000	88.232374
1809.000000	88.159081
1808.000000	88.109053
1807.000000	88.095964
1806.000000	88.111301
1805.000000	88.118405
1804.000000	88.085976
1803.000000	88.018793
1802.000000	87.940629
1801.000000	87.868160
1800.000000	87.807680
1799.000000	87.761834
1798.000000	87.730617
1797.000000	87.714868
1796.000000	87.726122
1795.000000	87.768440
1794.000000	87.806187
1793.000000	87.774690
1792.000000	87.640984
1791.000000	87.459684
1790.000000	87.322462
1789.000000	87.252290
1788.000000	87.207228
1787.000000	87.148308
1786.000000	87.065996
1785.000000	86.981122
1784.000000	86.938888
1783.000000	86.967896
1782.000000	87.028928
1781.000000	87.054079
1780.000000	87.022921
1779.000000	86.970670
1778.000000	86.931228
1777.000000	86.903960
1776.000000	86.894706
1775.000000	86.922409
1774.000000	86.977064
1773.000000	87.008151
1772.000000	86.958477
1771.000000	86.824936
1770.000000	86.656637
1769.000000	86.480808
1768.000000	86.310427
1767.000000	86.191777
1766.000000	86.154792
1765.000000	86.157834
1764.000000	86.131884
1763.000000	86.051598
1762.000000	85.940828
1761.000000	85.851904
1760.000000	85.827570
1759.000000	85.851040
1758.000000	85.853192
1757.000000	85.786536
1756.000000	85.688842
1755.000000	85.631422
1754.000000	85.613837
1753.000000	85.579221
1752.000000	85.513669
1751.000000	85.462914
1750.000000	85.460066
1749.000000	85.469468
1748.000000	85.437455
1747.000000	85.361424
1746.000000	85.264246
1745.000000	85.156401
1744.000000	85.045496
1743.000000	84.954033
1742.000000	84.893083
1741.000000	84.827794
1740.000000	84.711296
1739.000000	84.565245
1738.000000	84.464297
1737.000000	84.419981
1736.000000	84.370231
1735.000000	84.262051
1734.000000	84.075413
1733.000000	83.871739
1732.000000	83.746528
1731.000000	83.659918
1730.000000	83.512188
1729.000000	83.290738
1728.000000	83.058212
1727.000000	82.868931
1726.000000	82.713296
1725.000000	82.561825
1724.000000	82.413957
1723.000000	82.302850
1722.000000	82.255665
1721.000000	82.253870
1720.000000	82.255589
1719.000000	82.229795
1718.000000	82.130283
1717.000000	81.886941
1716.000000	81.523110
1715.000000	81.149748
1714.000000	80.830925
1713.000000	80.582401
1712.000000	80.403070
1711.000000	80.273791
1710.000000	80.165314
1709.000000	80.058217
1708.000000	79.946314
1707.000000	79.805997
1706.000000	79.594816
1705.000000	79.311568
1704.000000	79.042565
1703.000000	78.842088
1702.000000	78.651879
1701.000000	78.384045
1700.000000	78.081766
1699.000000	77.925784
1698.000000	77.912204
1697.000000	77.786617
1696.000000	77.376622
1695.000000	76.826512
1694.000000	76.420651
1693.000000	76.199053
1692.000000	76.019813
1691.000000	75.806256
1690.000000	75.553636
1689.000000	75.293205
1688.000000	75.089544
1687.000000	74.981585
1686.000000	74.923003
1685.000000	74.777148
1684.000000	74.395665
1683.000000	73.858084
1682.000000	73.403512
1681.000000	73.045481
1680.000000	72.691361
1679.000000	72.357296
1678.000000	72.065200
1677.000000	71.775402
1676.000000	71.445086
1675.000000	71.117886
1674.000000	70.883961
1673.000000	70.757428
1672.000000	70.647317
1671.000000	70.449967
1670.000000	70.089270
1669.000000	69.559301
1668.000000	69.001829
1667.000000	68.579790
1666.000000	68.308527
1665.000000	68.107433
1664.000000	67.906881
1663.000000	67.674783
1662.000000	67.393114
1661.000000	67.071980
1660.000000	66.748474
1659.000000	66.450349
1658.000000	66.188650
1657.000000	65.971000
1656.000000	65.805607
1655.000000	65.685787
1654.000000	65.538428
1653.000000	65.155233
1652.000000	64.631312
1651.000000	64.358777
1650.000000	64.289910
1649.000000	64.192093
1648.000000	63.985127
1647.000000	63.618736
1646.000000	63.109213
1645.000000	62.600616
1644.000000	62.221845
1643.000000	61.948687
1642.000000	61.711070
1641.000000	61.479204
1640.000000	61.281417
1639.000000	61.158123
1638.000000	61.097555
1637.000000	61.019200
1636.000000	60.809646
1635.000000	60.434772
1634.000000	60.039052
1633.000000	59.741562
1632.000000	59.511009
1631.000000	59.310384
1630.000000	59.131824
1629.000000	58.965254
1628.000000	58.810969
1627.000000	58.693958
1626.000000	58.630215
1625.000000	58.593243
1624.000000	58.532029
1623.000000	58.406885
1622.000000	58.223977
1621.000000	58.040334
1620.000000	57.907686
1619.000000	57.840543
1618.000000	57.826065
1617.000000	57.813863
1616.000000	57.761149
1615.000000	57.703884
1614.000000	57.683072
1613.000000	57.675534
1612.000000	57.654802
1611.000000	57.623573
1610.000000	57.584340
1609.000000	57.532608
1608.000000	57.485169
1607.000000	57.480772
1606.000000	57.536223
1605.000000	57.634675
1604.000000	57.752818
1603.000000	57.868753
1602.000000	57.955853
1601.000000	57.997123
1600.000000	58.007292
1599.000000	58.021150
1598.000000	58.061264
1597.000000	58.129849
1596.000000	58.223515
1595.000000	58.336185
1594.000000	58.449248
1593.000000	58.542416
1592.000000	58.615725
1591.000000	58.683771
1590.000000	58.752689
1589.000000	58.820392
1588.000000	58.894342
1587.000000	58.985832
1586.000000	59.087697
1585.000000	59.177392
1584.000000	59.247484
1583.000000	59.305765
1582.000000	59.358390
1581.000000	59.419165
1580.000000	59.519901
1579.000000	59.688085
1578.000000	59.919870
1577.000000	60.164644
1576.000000	60.321768
1575.000000	60.349496
1574.000000	60.328676
1573.000000	60.324660
1572.000000	60.343477
1571.000000	60.390102
1570.000000	60.456182
1569.000000	60.516618
1568.000000	60.599700
1567.000000	60.754460
1566.000000	60.958023
1565.000000	61.145740
1564.000000	61.284611
1563.000000	61.382283
1562.000000	61.465666
1561.000000	61.572587
1560.000000	61.786938
1559.000000	62.050307
1558.000000	62.093608
1557.000000	62.066142
1556.000000	62.168561
1555.000000	62.306918
1554.000000	62.428109
1553.000000	62.529922
1552.000000	62.620437
1551.000000	62.690825
1550.000000	62.759882
1549.000000	62.873072
1548.000000	63.066282
1547.000000	63.339855
1546.000000	63.673645
1545.000000	64.054888
1544.000000	64.471414
1543.000000	64.914548
1542.000000	65.387105
1541.000000	65.851076
1540.000000	66.145822
1539.000000	66.185255
1538.000000	66.196749
1537.000000	66.349875
1536.000000	66.599033
1535.000000	66.909890
1534.000000	67.249560
1533.000000	67.543704
1532.000000	67.783983
1531.000000	68.061026
1530.000000	68.418792
1529.000000	68.824074
1528.000000	69.239452
1527.000000	69.652852
1526.000000	70.060444
1525.000000	70.458642
1524.000000	70.848723
1523.000000	71.231032
1522.000000	71.584493
1521.000000	71.867753
1520.000000	72.146192
1519.000000	72.533999
1518.000000	73.000276
1517.000000	73.413089
1516.000000	73.681121
1515.000000	73.846936
1514.000000	73.990951
1513.000000	74.130380
1512.000000	74.291630
1511.000000	74.538510
1510.000000	74.917336
1509.000000	75.435713
1508.000000	76.087816
1507.000000	76.718136
1506.000000	77.007445
1505.000000	77.047165
1504.000000	77.118340
1503.000000	77.228779
1502.000000	77.354098
1501.000000	77.523664
1500.000000	77.780808
1499.000000	78.148860
1498.000000	78.593238
1497.000000	79.018040
1496.000000	79.339578
1495.000000	79.586329
1494.000000	79.812057
1493.000000	80.000116
1492.000000	80.136636
1491.000000	80.265700
1490.000000	80.422119
1489.000000	80.578742
1488.000000	80.720634
1487.000000	80.870332
1486.000000	81.015417
1485.000000	81.113774
1484.000000	81.163065
1483.000000	81.178250
1482.000000	81.143688
1481.000000	81.042121
1480.000000	80.908892
1479.000000	80.788677
1478.000000	80.653769
1477.000000	80.443184
1476.000000	80.153662
1475.000000	79.810749
1474.000000	79.328472
1473.000000	78.532669
1472.000000	77.427776
1471.000000	76.256113
1470.000000	75.144170
1469.000000	73.981604
1468.000000	72.638488
1467.000000	71.017271
1466.000000	68.956898
1465.000000	66.360307
1464.000000	63.469189
1463.000000	60.686651
1462.000000	58.142846
1461.000000	55.736081
1460.000000	53.375602
1459.000000	50.956171
1458.000000	48.252420
1457.000000	45.289440
1456.000000	42.740341
1455.000000	41.119754
1454.000000	40.199020
1453.000000	39.665849
1452.000000	39.495632
1451.000000	39.754342
1450.000000	40.437859
1449.000000	41.517616
1448.000000	42.961652
1447.000000	44.628766
1446.000000	46.324096
1445.000000	47.972408
1444.000000	49.607861
1443.000000	51.245174
1442.000000	52.855252
1441.000000	54.413235
1440.000000	55.912511
1439.000000	57.369277
1438.000000	58.864351
1437.000000	60.472933
1436.000000	62.086858
1435.000000	63.510482
1434.000000	64.710099
1433.000000	65.778644
1432.000000	66.795222
1431.000000	67.771504
1430.000000	68.680062
1429.000000	69.503108
1428.000000	70.227531
1427.000000	70.847836
1426.000000	71.375359
1425.000000	71.837897
1424.000000	72.245001
1423.000000	72.585345
1422.000000	72.880136
1421.000000	73.180254
1420.000000	73.520348
1419.000000	73.880590
1418.000000	74.236780
1417.000000	74.615977
1416.000000	75.023135
1415.000000	75.430168
1414.000000	75.846108
1413.000000	76.310927
1412.000000	76.834600
1411.000000	77.386037
1410.000000	77.944647
1409.000000	78.505759
1408.000000	79.032794
1407.000000	79.473206
1406.000000	79.814752
1405.000000	80.093244
1404.000000	80.350097
1403.000000	80.617747
1402.000000	80.929325
1401.000000	81.298901
1400.000000	81.696469
1399.000000	82.057368
1398.000000	82.343317
1397.000000	82.549589
1396.000000	82.645192
1395.000000	82.602620
1394.000000	82.491357
1393.000000	82.446575
1392.000000	82.515323
1391.000000	82.634731
1390.000000	82.738438
1389.000000	82.782792
1388.000000	82.705943
1387.000000	82.467697
1386.000000	82.142917
1385.000000	81.870795
1384.000000	81.723489
1383.000000	81.700753
1382.000000	81.785859
1381.000000	81.940310
1380.000000	82.093707
1379.000000	82.189606
1378.000000	82.226578
1377.000000	82.221890
1376.000000	82.154187
1375.000000	81.985671
1374.000000	81.733746
1373.000000	81.485749
1372.000000	81.317506
1371.000000	81.228501
1370.000000	81.171832
1369.000000	81.106307
1368.000000	81.002867
1367.000000	80.844558
1366.000000	80.632572
1365.000000	80.367696
1364.000000	80.040317
1363.000000	79.654138
1362.000000	79.253553
1361.000000	78.896953
1360.000000	78.594531
1359.000000	78.311055
1358.000000	78.024526
1357.000000	77.749125
1356.000000	77.515929
1355.000000	77.361886
1354.000000	77.326114
1353.000000	77.425229
1352.000000	77.625900
1351.000000	77.859550
1350.000000	78.046611
1349.000000	78.110838
1348.000000	77.988454
1347.000000	77.647044
1346.000000	77.099775
1345.000000	76.392161
1344.000000	75.575684
1343.000000	74.682432
1342.000000	73.711560
1341.000000	72.625507
1340.000000	71.370061
1339.000000	69.918429
1338.000000	68.281654
1337.000000	66.470934
1336.000000	64.478477
1335.000000	62.308949
1334.000000	59.999789
1333.000000	57.595212
1332.000000	55.135226
1331.000000	52.674603
1330.000000	50.278979
1329.000000	47.998432
1328.000000	45.862513
1327.000000	43.890765
1326.000000	42.082421
1325.000000	40.410647
1324.000000	38.848336
1323.000000	37.395802
1322.000000	36.064725
1321.000000	34.856532
1320.000000	33.789544
1319.000000	32.924334
1318.000000	32.346732
1317.000000	32.128350
1316.000000	32.312229
1315.000000	32.920139
1314.000000	33.931189
1313.000000	35.275977
1312.000000	36.864674
1311.000000	38.608361
1310.000000	40.425955
1309.000000	42.242572
1308.000000	43.999797
1307.000000	45.665553
1306.000000	47.229160
1305.000000	48.695294
1304.000000	50.079548
1303.000000	51.399185
1302.000000	52.660501
1301.000000	53.853829
1300.000000	54.954879
1299.000000	55.935558
1298.000000	56.778493
1297.000000	57.487979
1296.000000	58.099185
1295.000000	58.676104
1294.000000	59.295894
1293.000000	60.022660
1292.000000	60.882947
1291.000000	61.858466
1290.000000	62.898275
1289.000000	63.939530
1288.000000	64.927135
1287.000000	65.832399
1286.000000	66.663905
1285.000000	67.455855
1284.000000	68.241779
1283.000000	69.037449
1282.000000	69.835968
1281.000000	70.606214
1280.000000	71.293551
1279.000000	71.840449
1278.000000	72.220606
1277.000000	72.450916
1276.000000	72.580974
1275.000000	72.680237
1274.000000	72.826225
1273.000000	73.081137
1272.000000	73.465550
1271.000000	73.957587
1270.000000	74.515559
1269.000000	75.095199
1268.000000	75.654674
1267.000000	76.167794
1266.000000	76.640794
1265.000000	77.104350
1264.000000	77.583866
1263.000000	78.083781
1262.000000	78.593719
1261.000000	79.091384
1260.000000	79.539232
1259.000000	79.900190
1258.000000	80.168111
1257.000000	80.367491
1256.000000	80.526904
1255.000000	80.667334
1254.000000	80.805571
1253.000000	80.946049
1252.000000	81.062675
1251.000000	81.109017
1250.000000	81.052764
1249.000000	80.891194
1248.000000	80.643863
1247.000000	80.345984
1246.000000	80.046587
1245.000000	79.788774
1244.000000	79.579030
1243.000000	79.384696
1242.000000	79.155900
1241.000000	78.842459
1240.000000	78.404084
1239.000000	77.831066
1238.000000	77.165317
1237.000000	76.487330
1236.000000	75.878780
1235.000000	75.397774
1234.000000	75.071247
1233.000000	74.886279
1232.000000	74.787690
1231.000000	74.700549
1230.000000	74.566709
1229.000000	74.368737
1228.000000	74.127435
1227.000000	73.894483
1226.000000	73.744019
1225.000000	73.744393
1224.000000	73.926423
1223.000000	74.271080
1222.000000	74.722162
1221.000000	75.205920
1220.000000	75.646814
1219.000000	75.993703
1218.000000	76.244236
1217.000000	76.441500
1216.000000	76.646218
1215.000000	76.911795
1214.000000	77.273748
1213.000000	77.738235
1212.000000	78.271605
1211.000000	78.812799
1210.000000	79.306546
1209.000000	79.724647
1208.000000	80.064099
1207.000000	80.344327
1206.000000	80.606409
1205.000000	80.894321
1204.000000	81.225675
1203.000000	81.585858
1202.000000	81.948207
1201.000000	82.288385
1200.000000	82.586632
1199.000000	82.837250
1198.000000	83.062246
1197.000000	83.301017
1196.000000	83.579472
1195.000000	83.896352
1194.000000	84.232121
1193.000000	84.553920
1192.000000	84.816570
1191.000000	84.982730
1190.000000	85.055277
1189.000000	85.080768
1188.000000	85.121121
1187.000000	85.230836
1186.000000	85.447659
1185.000000	85.775854
1184.000000	86.168263
1183.000000	86.538412
1182.000000	86.802235
1181.000000	86.910436
1180.000000	86.859449
1179.000000	86.699141
1178.000000	86.528611
1177.000000	86.456180
1176.000000	86.546221
1175.000000	86.799215
1174.000000	87.165062
1173.000000	87.557664
1172.000000	87.870240
1171.000000	88.012868
1170.000000	87.959571
1169.000000	87.758059
1168.000000	87.497495
1167.000000	87.276623
1166.000000	87.183726
1165.000000	87.267147
1164.000000	87.505972
1163.000000	87.817016
1162.000000	88.099097
1161.000000	88.271196
1160.000000	88.287361
1159.000000	88.150354
1158.000000	87.920915
1157.000000	87.692308
1156.000000	87.542250
1155.000000	87.507689
1154.000000	87.589145
1153.000000	87.753522
1152.000000	87.935316
1151.000000	88.062694
1150.000000	88.098911
1149.000000	88.053451
1148.000000	87.958292
1147.000000	87.849833
1146.000000	87.766372
1145.000000	87.733847
1144.000000	87.745205
1143.000000	87.767173
1142.000000	87.772298
1141.000000	87.754818
1140.000000	87.721049
1139.000000	87.684529
1138.000000	87.670369
1137.000000	87.701373
1136.000000	87.771386
1135.000000	87.842647
1134.000000	87.871507
1133.000000	87.826888
1132.000000	87.693684
1131.000000	87.484489
1130.000000	87.252388
1129.000000	87.071508
1128.000000	86.994729
1127.000000	87.032016
1126.000000	87.156576
1125.000000	87.309231
1124.000000	87.402810
1123.000000	87.352722
1122.000000	87.124035
1121.000000	86.748437
1120.000000	86.300444
1119.000000	85.871160
1118.000000	85.549116
1117.000000	85.387825
1116.000000	85.372765
1115.000000	85.422426
1114.000000	85.427519
1113.000000	85.290192
1112.000000	84.945588
1111.000000	84.385284
1110.000000	83.670770
1109.000000	82.909643
1108.000000	82.204465
1107.000000	81.615226
1106.000000	81.150502
1105.000000	80.761603
1104.000000	80.348110
1103.000000	79.795302
1102.000000	79.023529
1101.000000	78.015629
1100.000000	76.804967
1099.000000	75.457931
1098.000000	74.056413
1097.000000	72.661041
1096.000000	71.284457
1095.000000	69.888126
1094.000000	68.403793
1093.000000	66.762719
1092.000000	64.913666
1091.000000	62.845247
1090.000000	60.591767
1089.000000	58.216798
1088.000000	55.792731
1087.000000	53.382061
1086.000000	51.025945
1085.000000	48.741478
1084.000000	46.535202
1083.000000	44.415581
1082.000000	42.397159
1081.000000	40.498901
1080.000000	38.747940
1079.000000	37.175500
1078.000000	35.789823
1077.000000	34.575079
1076.000000	33.506537
1075.000000	32.557473
1074.000000	31.698153
1073.000000	30.898879
1072.000000	30.154175
1071.000000	29.481954
1070.000000	28.898584
1069.000000	28.414435
1068.000000	28.040456
1067.000000	27.785842
1066.000000	27.639879
1065.000000	27.573743
1064.000000	27.569732
1063.000000	27.625582
1062.000000	27.742728
1061.000000	27.926809
1060.000000	28.197107
1059.000000	28.580995
1058.000000	29.086787
1057.000000	29.700806
1056.000000	30.404155
1055.000000	31.173268
1054.000000	31.974890
1053.000000	32.776278
1052.000000	33.568997
1051.000000	34.371520
1050.000000	35.208479
1049.000000	36.103591
1048.000000	37.078962
1047.000000	38.143094
1046.000000	39.278151
1045.000000	40.448012
1044.000000	41.619884
1043.000000	42.771257
1042.000000	43.889462
1041.000000	44.979145
1040.000000	46.064777
1039.000000	47.177343
1038.000000	48.335250
1037.000000	49.538097
1036.000000	50.769645
1035.000000	52.000260
1034.000000	53.194343
1033.000000	54.327374
1032.000000	55.398856
1031.000000	56.428761
1030.000000	57.445851
1029.000000	58.473707
1028.000000	59.517677
1027.000000	60.559651
1026.000000	61.564772
1025.000000	62.499613
1024.000000	63.345531
1023.000000	64.107418
1022.000000	64.818566
1021.000000	65.529198
1020.000000	66.282624
1019.000000	67.093900
1018.000000	67.944922
1017.000000	68.792044
1016.000000	69.574646
1015.000000	70.236475
1014.000000	70.755578
1013.000000	71.159235
1012.000000	71.511752
1011.000000	71.889860
1010.000000	72.361062
1009.000000	72.959193
1008.000000	73.662581
1007.000000	74.398612
1006.000000	75.074643
1005.000000	75.613841
1004.000000	75.977777
1003.000000	76.180793
1002.000000	76.294259
1001.000000	76.422171
1000.000000	76.656322
999.000000	77.042575
998.000000	77.571747
997.000000	78.184722
996.000000	78.784506
995.000000	79.269825
994.000000	79.582477
993.000000	79.730030
992.000000	79.771429
991.000000	79.792181
990.000000	79.882052
989.000000	80.104894
988.000000	80.467688
987.000000	80.919567
986.000000	81.381169
985.000000	81.777131
984.000000	82.055315
983.000000	82.203478
982.000000	82.260403
981.000000	82.298467
980.000000	82.382771
979.000000	82.545121
978.000000	82.784146
977.000000	83.071233
976.000000	83.355085
975.000000	83.583740
974.000000	83.738003
973.000000	83.839504
972.000000	83.927690
971.000000	84.038677
970.000000	84.198310
969.000000	84.411759
968.000000	84.648973
967.000000	84.854839
966.000000	84.984865
965.000000	85.030393
964.000000	85.015989
963.000000	84.990518
962.000000	85.017803
961.000000	85.149905
960.000000	85.392407
959.000000	85.698731
958.000000	85.995360
957.000000	86.208676
956.000000	86.282544
955.000000	86.202834
954.000000	86.019812
953.000000	85.833032
952.000000	85.742010
951.000000	85.806920
950.000000	86.037327
949.000000	86.388497
948.000000	86.761985
947.000000	87.037593
946.000000	87.132471
945.000000	87.036326
944.000000	86.803009
943.000000	86.528551
942.000000	86.327594
941.000000	86.292963
940.000000	86.451348
939.000000	86.753355
938.000000	87.102082
937.000000	87.389447
936.000000	87.524520
935.000000	87.466515
934.000000	87.251963
933.000000	86.979121
932.000000	86.753783
931.000000	86.648609
930.000000	86.692810
929.000000	86.866576
928.000000	87.096970
927.000000	87.284110
926.000000	87.353730
925.000000	87.287641
924.000000	87.115104
923.000000	86.894879
922.000000	86.700780
921.000000	86.593372
920.000000	86.584982
919.000000	86.635223
918.000000	86.682967
917.000000	86.676369
916.000000	86.583488
915.000000	86.403502
914.000000	86.177824
913.000000	85.971180
912.000000	85.828813
911.000000	85.755194
910.000000	85.722893
909.000000	85.683699
908.000000	85.576495
907.000000	85.352795
906.000000	85.013611
905.000000	84.613593
904.000000	84.226043
903.000000	83.910368
902.000000	83.699412
901.000000	83.586444
900.000000	83.511817
899.000000	83.380179
898.000000	83.110734
897.000000	82.671798
896.000000	82.083101
895.000000	81.408033
894.000000	80.740771
893.000000	80.171069
892.000000	79.737530
891.000000	79.410694
890.000000	79.113846
889.000000	78.752174
888.000000	78.237865
887.000000	77.520241
886.000000	76.615696
885.000000	75.602099
884.000000	74.575087
883.000000	73.610955
882.000000	72.749297
881.000000	71.981169
880.000000	71.244575
879.000000	70.445583
878.000000	69.504815
877.000000	68.389749
876.000000	67.117776
875.000000	65.745196
874.000000	64.348808
873.000000	62.997750
872.000000	61.722895
871.000000	60.507324
870.000000	59.304359
869.000000	58.060958
868.000000	56.736322
867.000000	55.315912
866.000000	53.820269
865.000000	52.297426
864.000000	50.799916
863.000000	49.362601
862.000000	47.992928
861.000000	46.675948
860.000000	45.386922
859.000000	44.107710
858.000000	42.842068
857.000000	41.626272
856.000000	40.528294
855.000000	39.621635
854.000000	38.960195
853.000000	38.560379
852.000000	38.394575
851.000000	38.396622
850.000000	38.475410
849.000000	38.550088
848.000000	38.577018
847.000000	38.553835
846.000000	38.511806
845.000000	38.501491
844.000000	38.576016
843.000000	38.767452
842.000000	39.073797
841.000000	39.469993
840.000000	39.923166
839.000000	40.402742
838.000000	40.891219
837.000000	41.395768
836.000000	41.948955
835.000000	42.588199
834.000000	43.337883
833.000000	44.202961
832.000000	45.165643
831.000000	46.185320
830.000000	47.209938
829.000000	48.198163
828.000000	49.132350
827.000000	50.017906
826.000000	50.882911
825.000000	51.772479
824.000000	52.726249
823.000000	53.752157
822.000000	54.824323
821.000000	55.898650
820.000000	56.925599
819.000000	57.861808
818.000000	58.690197
817.000000	59.431270
816.000000	60.126437
815.000000	60.813589
814.000000	61.516955
813.000000	62.242995
812.000000	62.974563
811.000000	63.675114
810.000000	64.314359
809.000000	64.889466
808.000000	65.420239
807.000000	65.937503
806.000000	66.480059
805.000000	67.083082
804.000000	67.751238
803.000000	68.446612
802.000000	69.112431
801.000000	69.702486
800.000000	70.191609
799.000000	70.582462
798.000000	70.918188
797.000000	71.272919
796.000000	71.710823
795.000000	72.252622
794.000000	72.877227
793.000000	73.534186
792.000000	74.149764
791.000000	74.646802
790.000000	74.986315
789.000000	75.190200
788.000000	75.323104
787.000000	75.465472
786.000000	75.697643
785.000000	76.074240
784.000000	76.589684
783.000000	77.172888
782.000000	77.726291
781.000000	78.167989
780.000000	78.448107
779.000000	78.560629
778.000000	78.559472
777.000000	78.544696
776.000000	78.611752
775.000000	78.811099
774.000000	79.146317
773.000000	79.582097
772.000000	80.044548
771.000000	80.440818
770.000000	80.706430
769.000000	80.835144
768.000000	80.865106
767.000000	80.854555
766.000000	80.870678
765.000000	80.970113
764.000000	81.167803
763.000000	81.430971
762.000000	81.710165
761.000000	81.965202
760.000000	82.164675
759.000000	82.290737
758.000000	82.360132
757.000000	82.419705
756.000000	82.506486
755.000000	82.622585
754.000000	82.751713
753.000000	82.878514
752.000000	82.984918
751.000000	83.053674
750.000000	83.093010
749.000000	83.141243
748.000000	83.233745
747.000000	83.377180
746.000000	83.558168
745.000000	83.752244
744.000000	83.914573
743.000000	83.988334
742.000000	83.944442
741.000000	83.805519
740.000000	83.627994
739.000000	83.478999
738.000000	83.428757
737.000000	83.528405
736.000000	83.769660
735.000000	84.077734
734.000000	84.356471
733.000000	84.531428
732.000000	84.557320
731.000000	84.426692
730.000000	84.196210
729.000000	83.979246
728.000000	83.887615
727.000000	83.981175
726.000000	84.262886
725.000000	84.687172
724.000000	85.157441
723.000000	85.548576
722.000000	85.767189
721.000000	85.793897
720.000000	85.673537
719.000000	85.490500
718.000000	85.353828
717.000000	85.364791
716.000000	85.564834
715.000000	85.916733
714.000000	86.339899
713.000000	86.747366
712.000000	87.054183
711.000000	87.197044
710.000000	87.178060
709.000000	87.070059
708.000000	86.962915
707.000000	86.917824
706.000000	86.969568
705.000000	87.132711
704.000000	87.381790
703.000000	87.649972
702.000000	87.875821
701.000000	88.038616
700.000000	88.140978
699.000000	88.191295
698.000000	88.214804
697.000000	88.250348
696.000000	88.312241
695.000000	88.375700
694.000000	88.418540
693.000000	88.450776
692.000000	88.488284
691.000000	88.535038
690.000000	88.608505
689.000000	88.746434
688.000000	88.956600
687.000000	89.184111
686.000000	89.358074
685.000000	89.440403
684.000000	89.414753
683.000000	89.276721
682.000000	89.069927
681.000000	88.896093
680.000000	88.852237
679.000000	88.971992
678.000000	89.241270
677.000000	89.612923
676.000000	89.980511
675.000000	90.216777
674.000000	90.246151
673.000000	90.081516
672.000000	89.811053
671.000000	89.558327
670.000000	89.445660
669.000000	89.566827
668.000000	89.909047
667.000000	90.315763
666.000000	90.644667
665.000000	90.862950
664.000000	90.950950
663.000000	90.858583
662.000000	90.578914
661.000000	90.205420
660.000000	89.878072
659.000000	89.711279
658.000000	89.768764
657.000000	90.043452
656.000000	90.444235
655.000000	90.842130
654.000000	91.119421
653.000000	91.204237
652.000000	91.093826
651.000000	90.854398
650.000000	90.595014
649.000000	90.417260
648.000000	90.376259
647.000000	90.472119
646.000000	90.661266
645.000000	90.878405
644.000000	91.058555
643.000000	91.157662
642.000000	91.172026
641.000000	91.135999
640.000000	91.092557
639.000000	91.067813
638.000000	91.065558
637.000000	91.071872
636.000000	91.063464
635.000000	91.022473
634.000000	90.957453
633.000000	90.906417
632.000000	90.914364
631.000000	91.010350
630.000000	91.195410
629.000000	91.431780
628.000000	91.642079
627.000000	91.736105
626.000000	91.660387
625.000000	91.429559
624.000000	91.115058
623.000000	90.821494
622.000000	90.665551
621.000000	90.735137
620.000000	91.036527
619.000000	91.479459
618.000000	91.916235
617.000000	92.199368
616.000000	92.224535
615.000000	91.968702
614.000000	91.518007
613.000000	91.041556
612.000000	90.713252
611.000000	90.647101
610.000000	90.874512
609.000000	91.335784
608.000000	91.882195
607.000000	92.316592
606.000000	92.482568
605.000000	92.334928
604.000000	91.939529
603.000000	91.436049
602.000000	90.999150
601.000000	90.778559
600.000000	90.833017
599.000000	91.105858
598.000000	91.468186
597.000000	91.780324
596.000000	91.925798
595.000000	91.844700
594.000000	91.575625
593.000000	91.244403
592.000000	90.986065
591.000000	90.881526
590.000000	90.949270
589.000000	91.154790
588.000000	91.415848
587.000000	91.633371
586.000000	91.754150
585.000000	91.794740
584.000000	91.799374
583.000000	91.798688
582.000000	91.821462
581.000000	91.894678
580.000000	92.002066
579.000000	92.071016
578.000000	92.037179
577.000000	91.903430
576.000000	91.726372
575.000000	91.582894
574.000000	91.557683
573.000000	91.711673
572.000000	92.027941
571.000000	92.397780
570.000000	92.677495
569.000000	92.758556
568.000000	92.588429
567.000000	92.186641
566.000000	91.680372
565.000000	91.270032
564.000000	91.120575
563.000000	91.286816
562.000000	91.718849
561.000000	92.285334
560.000000	92.786906
559.000000	93.012428
558.000000	92.856784
557.000000	92.381919
556.000000	91.758628
555.000000	91.188411
554.000000	90.866758
553.000000	90.923953
552.000000	91.347245
551.000000	91.969694
550.000000	92.559506
549.000000	92.926050
548.000000	92.957153
547.000000	92.636569
546.000000	92.088221
545.000000	91.546688
544.000000	91.222849
543.000000	91.206698
542.000000	91.475342
541.000000	91.927547
540.000000	92.398584
539.000000	92.707428
538.000000	92.758464
537.000000	92.587981
536.000000	92.303629
535.000000	92.015251
534.000000	91.829248
533.000000	91.818329
532.000000	91.963848
531.000000	92.158384
530.000000	92.296911
529.000000	92.344260
528.000000	92.314712
527.000000	92.238976
526.000000	92.181462
525.000000	92.225293
524.000000	92.380272
523.000000	92.547839
522.000000	92.608014
521.000000	92.502699
520.000000	92.232825
519.000000	91.842325
518.000000	91.443220
517.000000	91.196691
516.000000	91.208470
515.000000	91.452721
514.000000	91.802007
513.000000	92.080033
512.000000	92.100257
511.000000	91.737198
510.000000	91.025869
509.000000	90.150839
508.000000	89.335920
507.000000	88.761395
506.000000	88.536656
505.000000	88.664670
504.000000	89.009739
503.000000	89.329926
502.000000	89.390135
501.000000	89.087570
500.000000	88.479349
499.000000	87.719995
498.000000	87.035548
497.000000	86.676897
496.000000	86.795524
495.000000	87.360405
494.000000	88.197980
493.000000	89.075703
492.000000	89.755831
491.000000	90.064166
490.000000	89.992454
489.000000	89.704259
488.000000	89.424416
487.000000	89.338958
486.000000	89.560349
485.000000	90.089866
484.000000	90.773073
483.000000	91.353069
482.000000	91.644095
481.000000	91.636449
480.000000	91.425314
479.000000	91.112706
478.000000	90.819327
477.000000	90.686323
476.000000	90.780296
475.000000	91.021586
474.000000	91.264501
473.000000	91.404114
472.000000	91.401879
471.000000	91.288359
470.000000	91.179709
469.000000	91.223685
468.000000	91.495982
467.000000	91.929444
466.000000	92.367588
465.000000	92.657450
464.000000	92.684420
463.000000	92.408647
462.000000	91.947746
461.000000	91.550087
460.000000	91.416587
459.000000	91.622587
458.000000	92.158174
457.000000	92.890057
456.000000	93.533451
455.000000	93.786827
454.000000	93.526240
453.000000	92.876310
452.000000	92.118504
451.000000	91.527863
450.000000	91.299419
449.000000	91.542318
448.000000	92.217475
447.000000	93.072983
446.000000	93.776597
445.000000	94.112206
444.000000	93.996841
443.000000	93.452858
442.000000	92.690296
441.000000	92.068295
440.000000	91.840204
439.000000	92.026829
438.000000	92.530187
437.000000	93.222138
436.000000	93.877744
435.000000	94.200451
434.000000	94.066833
433.000000	93.622755
432.000000	93.097701
431.000000	92.676531
430.000000	92.518672
429.000000	92.731591
428.000000	93.236535
427.000000	93.741853
426.000000	93.974237
425.000000	93.901903
424.000000	93.656820
423.000000	93.350445
422.000000	93.074325
421.000000	92.946635
420.000000	93.042962
419.000000	93.244467
418.000000	93.348099
417.000000	93.411563
416.000000	93.447729
415.000000	93.286046
414.000000	92.949450
413.000000	92.746385
412.000000	92.901074
411.000000	93.316570
410.000000	93.771112
409.000000	94.154986
408.000000	94.357235
407.000000	94.164657
406.000000	93.552238
405.000000	92.873311
404.000000	92.500056
403.000000	92.521765
402.000000	92.908661
401.000000	93.715925
400.000000	94.857924
