PE IR       SUBTECH     SPECTRUM    ASCII       PEDS        4.00        
   -1
23ms008_nitrito.asc
24/09/03
16:14:24.00
24/09/03
16:14:24.00
Administrator
Sample 1094 By Administrator Date Tuesday, September 03 2024
400.000000
#HDR
-1
-1
#GR
cm-1
%T
1.0
0.0
4000.000000
-1.000000
3601
8
78.580958
3.910465
#DATA
4000.000000	60.009158
3999.000000	60.063306
3998.000000	60.118108
3997.000000	60.173726
3996.000000	60.229386
3995.000000	60.283727
3994.000000	60.336185
3993.000000	60.387906
3992.000000	60.440852
3991.000000	60.495909
3990.000000	60.551939
3989.000000	60.607016
3988.000000	60.660424
3987.000000	60.712950
3986.000000	60.765540
3985.000000	60.818228
3984.000000	60.870611
3983.000000	60.922734
3982.000000	60.975003
3981.000000	61.027646
3980.000000	61.080547
3979.000000	61.133543
3978.000000	61.186541
3977.000000	61.239203
3976.000000	61.290818
3975.000000	61.340797
3974.000000	61.389421
3973.000000	61.437855
3972.000000	61.487154
3971.000000	61.537571
3970.000000	61.588435
3969.000000	61.638365
3968.000000	61.686036
3967.000000	61.731099
3966.000000	61.774556
3965.000000	61.818469
3964.000000	61.864775
3963.000000	61.913554
3962.000000	61.962809
3961.000000	62.010179
3960.000000	62.054954
3959.000000	62.098710
3958.000000	62.143414
3957.000000	62.189151
3956.000000	62.234484
3955.000000	62.278407
3954.000000	62.321347
3953.000000	62.364524
3952.000000	62.409075
3951.000000	62.456047
3950.000000	62.505491
3949.000000	62.555029
3948.000000	62.601564
3947.000000	62.644827
3946.000000	62.688766
3945.000000	62.739346
3944.000000	62.799403
3943.000000	62.864143
3942.000000	62.924142
3941.000000	62.974805
3940.000000	63.020038
3939.000000	63.066622
3938.000000	63.116672
3937.000000	63.166485
3936.000000	63.212629
3935.000000	63.257041
3934.000000	63.305888
3933.000000	63.362547
3932.000000	63.422955
3931.000000	63.479321
3930.000000	63.526917
3929.000000	63.568254
3928.000000	63.610571
3927.000000	63.660655
3926.000000	63.720214
3925.000000	63.783002
3924.000000	63.838435
3923.000000	63.881009
3922.000000	63.914558
3921.000000	63.947710
3920.000000	63.987625
3919.000000	64.036818
3918.000000	64.093601
3917.000000	64.153663
3916.000000	64.211769
3915.000000	64.264825
3914.000000	64.314589
3913.000000	64.365830
3912.000000	64.420429
3911.000000	64.475106
3910.000000	64.524785
3909.000000	64.567479
3908.000000	64.606159
3907.000000	64.644913
3906.000000	64.684743
3905.000000	64.722178
3904.000000	64.751884
3903.000000	64.774586
3902.000000	64.800271
3901.000000	64.839849
3900.000000	64.895495
3899.000000	64.958970
3898.000000	65.019148
3897.000000	65.072139
3896.000000	65.120872
3895.000000	65.171439
3894.000000	65.229724
3893.000000	65.297303
3892.000000	65.365823
3891.000000	65.421317
3890.000000	65.457769
3889.000000	65.481546
3888.000000	65.506300
3887.000000	65.547200
3886.000000	65.607293
3885.000000	65.669632
3884.000000	65.716403
3883.000000	65.750948
3882.000000	65.790779
3881.000000	65.845364
3880.000000	65.904497
3879.000000	65.953752
3878.000000	65.992268
3877.000000	66.028751
3876.000000	66.072325
3875.000000	66.125931
3874.000000	66.180643
3873.000000	66.224224
3872.000000	66.256828
3871.000000	66.291586
3870.000000	66.336022
3869.000000	66.381401
3868.000000	66.418138
3867.000000	66.449331
3866.000000	66.488105
3865.000000	66.544070
3864.000000	66.610043
3863.000000	66.671772
3862.000000	66.725053
3861.000000	66.773511
3860.000000	66.821363
3859.000000	66.872845
3858.000000	66.930764
3857.000000	66.990889
3856.000000	67.042587
3855.000000	67.083183
3854.000000	67.122844
3853.000000	67.162089
3852.000000	67.200011
3851.000000	67.244831
3850.000000	67.296328
3849.000000	67.349586
3848.000000	67.402124
3847.000000	67.454951
3846.000000	67.510873
3845.000000	67.570005
3844.000000	67.627429
3843.000000	67.678917
3842.000000	67.724798
3841.000000	67.769146
3840.000000	67.815543
3839.000000	67.862516
3838.000000	67.906057
3837.000000	67.946532
3836.000000	67.988908
3835.000000	68.037294
3834.000000	68.092597
3833.000000	68.154636
3832.000000	68.221974
3831.000000	68.290048
3830.000000	68.354375
3829.000000	68.415029
3828.000000	68.475043
3827.000000	68.535557
3826.000000	68.591052
3825.000000	68.633380
3824.000000	68.661538
3823.000000	68.689062
3822.000000	68.734405
3821.000000	68.794002
3820.000000	68.847416
3819.000000	68.890915
3818.000000	68.936182
3817.000000	68.994597
3816.000000	69.068705
3815.000000	69.149032
3814.000000	69.225391
3813.000000	69.293560
3812.000000	69.352670
3811.000000	69.403792
3810.000000	69.450471
3809.000000	69.498060
3808.000000	69.550973
3807.000000	69.606543
3806.000000	69.655415
3805.000000	69.693100
3804.000000	69.724316
3803.000000	69.761751
3802.000000	69.814353
3801.000000	69.873624
3800.000000	69.929070
3799.000000	69.984763
3798.000000	70.047558
3797.000000	70.117390
3796.000000	70.188835
3795.000000	70.258157
3794.000000	70.326624
3793.000000	70.396868
3792.000000	70.469198
3791.000000	70.541918
3790.000000	70.612244
3789.000000	70.677655
3788.000000	70.737991
3787.000000	70.795053
3786.000000	70.849655
3785.000000	70.899596
3784.000000	70.942463
3783.000000	70.980183
3782.000000	71.020157
3781.000000	71.071270
3780.000000	71.135680
3779.000000	71.204349
3778.000000	71.266528
3777.000000	71.320038
3776.000000	71.368784
3775.000000	71.416631
3774.000000	71.464537
3773.000000	71.511519
3772.000000	71.558408
3771.000000	71.608529
3770.000000	71.660445
3769.000000	71.707819
3768.000000	71.750684
3767.000000	71.797275
3766.000000	71.854103
3765.000000	71.918178
3764.000000	71.980239
3763.000000	72.034376
3762.000000	72.082667
3761.000000	72.133280
3760.000000	72.190627
3759.000000	72.248213
3758.000000	72.298958
3757.000000	72.344042
3756.000000	72.386934
3755.000000	72.426950
3754.000000	72.462242
3753.000000	72.495750
3752.000000	72.531391
3751.000000	72.564486
3750.000000	72.591066
3749.000000	72.622579
3748.000000	72.669118
3747.000000	72.726444
3746.000000	72.790113
3745.000000	72.864667
3744.000000	72.948486
3743.000000	73.034683
3742.000000	73.118491
3741.000000	73.192373
3740.000000	73.250476
3739.000000	73.293576
3738.000000	73.333779
3737.000000	73.390728
3736.000000	73.472485
3735.000000	73.560472
3734.000000	73.630671
3733.000000	73.684230
3732.000000	73.739094
3731.000000	73.806995
3730.000000	73.886255
3729.000000	73.968558
3728.000000	74.050144
3727.000000	74.132251
3726.000000	74.211861
3725.000000	74.280923
3724.000000	74.337598
3723.000000	74.389827
3722.000000	74.445615
3721.000000	74.508634
3720.000000	74.579014
3719.000000	74.652765
3718.000000	74.723213
3717.000000	74.783852
3716.000000	74.830071
3715.000000	74.860437
3714.000000	74.879621
3713.000000	74.899905
3712.000000	74.934706
3711.000000	74.987446
3710.000000	75.055468
3709.000000	75.134651
3708.000000	75.217460
3707.000000	75.296139
3706.000000	75.365199
3705.000000	75.424553
3704.000000	75.480404
3703.000000	75.542237
3702.000000	75.612443
3701.000000	75.683745
3700.000000	75.749303
3699.000000	75.807997
3698.000000	75.860570
3697.000000	75.907281
3696.000000	75.946742
3695.000000	75.976816
3694.000000	75.999368
3693.000000	76.022597
3692.000000	76.056758
3691.000000	76.102779
3690.000000	76.146833
3689.000000	76.173364
3688.000000	76.188606
3687.000000	76.214143
3686.000000	76.257668
3685.000000	76.309757
3684.000000	76.357956
3683.000000	76.395825
3682.000000	76.423219
3681.000000	76.442466
3680.000000	76.454769
3679.000000	76.455896
3678.000000	76.437305
3677.000000	76.402763
3676.000000	76.373290
3675.000000	76.362098
3674.000000	76.367061
3673.000000	76.377116
3672.000000	76.376130
3671.000000	76.366275
3670.000000	76.365003
3669.000000	76.378823
3668.000000	76.407685
3667.000000	76.447966
3666.000000	76.485917
3665.000000	76.509976
3664.000000	76.518702
3663.000000	76.516391
3662.000000	76.506622
3661.000000	76.488196
3660.000000	76.456825
3659.000000	76.407892
3658.000000	76.339566
3657.000000	76.257217
3656.000000	76.171856
3655.000000	76.093946
3654.000000	76.022932
3653.000000	75.945683
3652.000000	75.850502
3651.000000	75.739014
3650.000000	75.619783
3649.000000	75.499906
3648.000000	75.397634
3647.000000	75.330875
3646.000000	75.292542
3645.000000	75.260678
3644.000000	75.221505
3643.000000	75.173523
3642.000000	75.119027
3641.000000	75.056841
3640.000000	74.984330
3639.000000	74.901890
3638.000000	74.810022
3637.000000	74.706575
3636.000000	74.590188
3635.000000	74.466965
3634.000000	74.347108
3633.000000	74.232927
3632.000000	74.112387
3631.000000	73.968149
3630.000000	73.799388
3629.000000	73.627643
3628.000000	73.478914
3627.000000	73.371935
3626.000000	73.300380
3625.000000	73.238881
3624.000000	73.170126
3623.000000	73.090316
3622.000000	72.996374
3621.000000	72.882323
3620.000000	72.746593
3619.000000	72.597350
3618.000000	72.450196
3617.000000	72.318596
3616.000000	72.202719
3615.000000	72.094423
3614.000000	71.985975
3613.000000	71.872109
3612.000000	71.751426
3611.000000	71.626250
3610.000000	71.500937
3609.000000	71.383814
3608.000000	71.283156
3607.000000	71.200201
3606.000000	71.128709
3605.000000	71.058539
3604.000000	70.981303
3603.000000	70.894034
3602.000000	70.796126
3601.000000	70.688247
3600.000000	70.573313
3599.000000	70.455026
3598.000000	70.336198
3597.000000	70.218459
3596.000000	70.103249
3595.000000	69.991436
3594.000000	69.880933
3593.000000	69.768290
3592.000000	69.652166
3591.000000	69.531723
3590.000000	69.407954
3589.000000	69.288114
3588.000000	69.180992
3587.000000	69.085196
3586.000000	68.992989
3585.000000	68.900133
3584.000000	68.805120
3583.000000	68.707480
3582.000000	68.607416
3581.000000	68.505763
3580.000000	68.403969
3579.000000	68.302691
3578.000000	68.199928
3577.000000	68.092317
3576.000000	67.979019
3575.000000	67.862078
3574.000000	67.744521
3573.000000	67.628206
3572.000000	67.513941
3571.000000	67.398712
3570.000000	67.275480
3569.000000	67.141227
3568.000000	67.002996
3567.000000	66.870220
3566.000000	66.746535
3565.000000	66.633766
3564.000000	66.532243
3563.000000	66.438788
3562.000000	66.346976
3561.000000	66.249846
3560.000000	66.143747
3559.000000	66.029113
3558.000000	65.908290
3557.000000	65.783859
3556.000000	65.659401
3555.000000	65.538062
3554.000000	65.419862
3553.000000	65.301408
3552.000000	65.179480
3551.000000	65.053669
3550.000000	64.924949
3549.000000	64.795341
3548.000000	64.669073
3547.000000	64.550116
3546.000000	64.437317
3545.000000	64.325859
3544.000000	64.213098
3543.000000	64.099007
3542.000000	63.982931
3541.000000	63.864203
3540.000000	63.745507
3539.000000	63.630914
3538.000000	63.521079
3537.000000	63.412868
3536.000000	63.303722
3535.000000	63.194244
3534.000000	63.085264
3533.000000	62.976403
3532.000000	62.866925
3531.000000	62.756620
3530.000000	62.645005
3529.000000	62.533095
3528.000000	62.425350
3527.000000	62.326440
3526.000000	62.235665
3525.000000	62.146922
3524.000000	62.054123
3523.000000	61.954696
3522.000000	61.849895
3521.000000	61.744072
3520.000000	61.642951
3519.000000	61.549443
3518.000000	61.461185
3517.000000	61.373550
3516.000000	61.283645
3515.000000	61.190138
3514.000000	61.090987
3513.000000	60.985310
3512.000000	60.876551
3511.000000	60.770214
3510.000000	60.668001
3509.000000	60.567528
3508.000000	60.466752
3507.000000	60.365539
3506.000000	60.263342
3505.000000	60.159116
3504.000000	60.052882
3503.000000	59.945183
3502.000000	59.836377
3501.000000	59.728019
3500.000000	59.623066
3499.000000	59.521813
3498.000000	59.419628
3497.000000	59.311149
3496.000000	59.195950
3495.000000	59.077916
3494.000000	58.960408
3493.000000	58.844818
3492.000000	58.732392
3491.000000	58.623494
3490.000000	58.515288
3489.000000	58.403591
3488.000000	58.286838
3487.000000	58.166041
3486.000000	58.042381
3485.000000	57.917763
3484.000000	57.796211
3483.000000	57.681114
3482.000000	57.570586
3481.000000	57.458677
3480.000000	57.340895
3479.000000	57.216719
3478.000000	57.088130
3477.000000	56.958608
3476.000000	56.832408
3475.000000	56.711556
3474.000000	56.594444
3473.000000	56.478855
3472.000000	56.364552
3471.000000	56.250830
3470.000000	56.133821
3469.000000	56.009540
3468.000000	55.878454
3467.000000	55.744103
3466.000000	55.608958
3465.000000	55.474178
3464.000000	55.341427
3463.000000	55.211381
3462.000000	55.081406
3461.000000	54.948131
3460.000000	54.811586
3459.000000	54.674508
3458.000000	54.538869
3457.000000	54.405124
3456.000000	54.273232
3455.000000	54.141678
3454.000000	54.006815
3453.000000	53.866378
3452.000000	53.722339
3451.000000	53.578386
3450.000000	53.435720
3449.000000	53.293427
3448.000000	53.151080
3447.000000	53.008217
3446.000000	52.863020
3445.000000	52.714196
3444.000000	52.562765
3443.000000	52.410463
3442.000000	52.258149
3441.000000	52.107234
3440.000000	51.960218
3439.000000	51.817055
3438.000000	51.672625
3437.000000	51.520433
3436.000000	51.357854
3435.000000	51.186261
3434.000000	51.008180
3433.000000	50.827257
3432.000000	50.647807
3431.000000	50.471301
3430.000000	50.294089
3429.000000	50.111009
3428.000000	49.920383
3427.000000	49.723486
3426.000000	49.521939
3425.000000	49.318020
3424.000000	49.115060
3423.000000	48.914250
3422.000000	48.712066
3421.000000	48.503630
3420.000000	48.287396
3419.000000	48.064467
3418.000000	47.835625
3417.000000	47.601761
3416.000000	47.365353
3415.000000	47.128318
3414.000000	46.889313
3413.000000	46.645725
3412.000000	46.396404
3411.000000	46.140431
3410.000000	45.875191
3409.000000	45.598594
3408.000000	45.312500
3407.000000	45.021335
3406.000000	44.728685
3405.000000	44.436602
3404.000000	44.145439
3403.000000	43.851953
3402.000000	43.549018
3401.000000	43.230411
3400.000000	42.895469
3399.000000	42.547937
3398.000000	42.192492
3397.000000	41.833599
3396.000000	41.474600
3395.000000	41.115092
3394.000000	40.750092
3393.000000	40.374100
3392.000000	39.985139
3391.000000	39.583992
3390.000000	39.172863
3389.000000	38.755548
3388.000000	38.336133
3387.000000	37.915030
3386.000000	37.488100
3385.000000	37.051762
3384.000000	36.605944
3383.000000	36.151650
3382.000000	35.688873
3381.000000	35.218677
3380.000000	34.744212
3379.000000	34.267042
3378.000000	33.785154
3377.000000	33.296309
3376.000000	32.800454
3375.000000	32.297892
3374.000000	31.788196
3373.000000	31.272551
3372.000000	30.754216
3371.000000	30.234307
3370.000000	29.710680
3369.000000	29.181889
3368.000000	28.649146
3367.000000	28.113156
3366.000000	27.572568
3365.000000	27.027543
3364.000000	26.481167
3363.000000	25.935767
3362.000000	25.391110
3361.000000	24.847326
3360.000000	24.306046
3359.000000	23.767192
3358.000000	23.228277
3357.000000	22.688561
3356.000000	22.150463
3355.000000	21.615717
3354.000000	21.083758
3353.000000	20.554934
3352.000000	20.031623
3351.000000	19.515019
3350.000000	19.004053
3349.000000	18.498337
3348.000000	17.998990
3347.000000	17.505707
3346.000000	17.017213
3345.000000	16.534924
3344.000000	16.062265
3343.000000	15.599966
3342.000000	15.145454
3341.000000	14.697673
3340.000000	14.258456
3339.000000	13.828869
3338.000000	13.408731
3337.000000	12.999495
3336.000000	12.603724
3335.000000	12.220942
3334.000000	11.847894
3333.000000	11.483621
3332.000000	11.129581
3331.000000	10.785436
3330.000000	10.448943
3329.000000	10.119958
3328.000000	9.801200
3327.000000	9.494206
3326.000000	9.199095
3325.000000	8.917521
3324.000000	8.650959
3323.000000	8.396872
3322.000000	8.150599
3321.000000	7.911178
3320.000000	7.681539
3319.000000	7.462609
3318.000000	7.252875
3317.000000	7.052194
3316.000000	6.861699
3315.000000	6.680123
3314.000000	6.504425
3313.000000	6.334329
3312.000000	6.171680
3311.000000	6.015861
3310.000000	5.864874
3309.000000	5.719879
3308.000000	5.584549
3307.000000	5.460028
3306.000000	5.344782
3305.000000	5.239078
3304.000000	5.143980
3303.000000	5.057191
3302.000000	4.974327
3301.000000	4.893965
3300.000000	4.817384
3299.000000	4.743862
3298.000000	4.671264
3297.000000	4.600621
3296.000000	4.535098
3295.000000	4.475255
3294.000000	4.419616
3293.000000	4.369283
3292.000000	4.327095
3291.000000	4.292131
3290.000000	4.260312
3289.000000	4.229661
3288.000000	4.200948
3287.000000	4.173888
3286.000000	4.147110
3285.000000	4.121750
3284.000000	4.100190
3283.000000	4.081914
3282.000000	4.064692
3281.000000	4.048932
3280.000000	4.036635
3279.000000	4.026728
3278.000000	4.016190
3277.000000	4.005117
3276.000000	3.996029
3275.000000	3.988889
3274.000000	3.981369
3273.000000	3.973830
3272.000000	3.969496
3271.000000	3.969772
3270.000000	3.973425
3269.000000	3.979789
3268.000000	3.988776
3267.000000	3.998400
3266.000000	4.006292
3265.000000	4.013180
3264.000000	4.021321
3263.000000	4.030246
3262.000000	4.037964
3261.000000	4.045006
3260.000000	4.053274
3259.000000	4.062040
3258.000000	4.069282
3257.000000	4.076158
3256.000000	4.085757
3255.000000	4.098297
3254.000000	4.111369
3253.000000	4.124076
3252.000000	4.136879
3251.000000	4.148471
3250.000000	4.157102
3249.000000	4.164382
3248.000000	4.173877
3247.000000	4.186485
3246.000000	4.200637
3245.000000	4.215789
3244.000000	4.232064
3243.000000	4.247541
3242.000000	4.260053
3241.000000	4.270719
3240.000000	4.282273
3239.000000	4.294774
3238.000000	4.306405
3237.000000	4.317033
3236.000000	4.327551
3235.000000	4.337296
3234.000000	4.345880
3233.000000	4.355991
3232.000000	4.370425
3231.000000	4.387614
3230.000000	4.403802
3229.000000	4.418123
3228.000000	4.431785
3227.000000	4.444147
3226.000000	4.453724
3225.000000	4.461686
3224.000000	4.470172
3223.000000	4.478494
3222.000000	4.484806
3221.000000	4.490152
3220.000000	4.496883
3219.000000	4.504446
3218.000000	4.510632
3217.000000	4.515601
3216.000000	4.520746
3215.000000	4.525108
3214.000000	4.526859
3213.000000	4.527066
3212.000000	4.528053
3211.000000	4.529337
3210.000000	4.528914
3209.000000	4.527052
3208.000000	4.525090
3207.000000	4.522036
3206.000000	4.516194
3205.000000	4.508815
3204.000000	4.502242
3203.000000	4.495945
3202.000000	4.488019
3201.000000	4.478986
3200.000000	4.470392
3199.000000	4.461164
3198.000000	4.449337
3197.000000	4.435864
3196.000000	4.422923
3195.000000	4.409973
3194.000000	4.395271
3193.000000	4.379689
3192.000000	4.365239
3191.000000	4.351178
3190.000000	4.335417
3189.000000	4.318303
3188.000000	4.301498
3187.000000	4.284652
3186.000000	4.266751
3185.000000	4.249106
3184.000000	4.233313
3183.000000	4.217908
3182.000000	4.200607
3181.000000	4.182187
3180.000000	4.164651
3179.000000	4.147550
3178.000000	4.129734
3177.000000	4.112782
3176.000000	4.098734
3175.000000	4.086140
3174.000000	4.072201
3173.000000	4.057124
3172.000000	4.042782
3171.000000	4.028965
3170.000000	4.014693
3169.000000	4.001356
3168.000000	3.990718
3167.000000	3.981477
3166.000000	3.971537
3165.000000	3.961877
3164.000000	3.954503
3163.000000	3.948499
3162.000000	3.941854
3161.000000	3.935406
3160.000000	3.931136
3159.000000	3.928329
3158.000000	3.925110
3157.000000	3.921891
3156.000000	3.919715
3155.000000	3.917221
3154.000000	3.913206
3153.000000	3.910465
3152.000000	3.912934
3151.000000	3.920582
3150.000000	3.930544
3149.000000	3.941573
3148.000000	3.953733
3147.000000	3.965583
3146.000000	3.975688
3145.000000	3.985480
3144.000000	3.996972
3143.000000	4.009226
3142.000000	4.020490
3141.000000	4.032244
3140.000000	4.047570
3139.000000	4.066875
3138.000000	4.088540
3137.000000	4.112070
3136.000000	4.137395
3135.000000	4.162908
3134.000000	4.187362
3133.000000	4.212232
3132.000000	4.239110
3131.000000	4.266848
3130.000000	4.294278
3129.000000	4.323340
3128.000000	4.356211
3127.000000	4.391384
3126.000000	4.426004
3125.000000	4.459942
3124.000000	4.494229
3123.000000	4.527902
3122.000000	4.560098
3121.000000	4.593174
3120.000000	4.630070
3119.000000	4.670260
3118.000000	4.711846
3117.000000	4.755624
3116.000000	4.803481
3115.000000	4.854643
3114.000000	4.906802
3113.000000	4.959309
3112.000000	5.012051
3111.000000	5.063419
3110.000000	5.112823
3109.000000	5.163247
3108.000000	5.217872
3107.000000	5.275881
3106.000000	5.334587
3105.000000	5.393605
3104.000000	5.453606
3103.000000	5.513279
3102.000000	5.571260
3101.000000	5.629324
3100.000000	5.690318
3099.000000	5.754293
3098.000000	5.819772
3097.000000	5.886912
3096.000000	5.956161
3095.000000	6.025715
3094.000000	6.093525
3093.000000	6.160356
3092.000000	6.228138
3091.000000	6.297048
3090.000000	6.366850
3089.000000	6.438872
3088.000000	6.513673
3087.000000	6.588871
3086.000000	6.662291
3085.000000	6.735387
3084.000000	6.810630
3083.000000	6.887594
3082.000000	6.964725
3081.000000	7.042816
3080.000000	7.123708
3079.000000	7.207339
3078.000000	7.292994
3077.000000	7.381468
3076.000000	7.472916
3075.000000	7.564596
3074.000000	7.653756
3073.000000	7.741023
3072.000000	7.828286
3071.000000	7.915239
3070.000000	8.001028
3069.000000	8.087323
3068.000000	8.176618
3067.000000	8.269056
3066.000000	8.363446
3065.000000	8.459676
3064.000000	8.557523
3063.000000	8.655101
3062.000000	8.751201
3061.000000	8.847244
3060.000000	8.944518
3059.000000	9.041617
3058.000000	9.137103
3057.000000	9.232528
3056.000000	9.329975
3055.000000	9.428689
3054.000000	9.526967
3053.000000	9.625404
3052.000000	9.725557
3051.000000	9.827145
3050.000000	9.929101
3049.000000	10.031444
3048.000000	10.133761
3047.000000	10.233981
3046.000000	10.331316
3045.000000	10.428374
3044.000000	10.527973
3043.000000	10.629880
3042.000000	10.732996
3041.000000	10.838130
3040.000000	10.945741
3039.000000	11.053234
3038.000000	11.157661
3037.000000	11.259402
3036.000000	11.360677
3035.000000	11.462331
3034.000000	11.564614
3033.000000	11.668906
3032.000000	11.775744
3031.000000	11.882934
3030.000000	11.988312
3029.000000	12.092531
3028.000000	12.196840
3027.000000	12.300386
3026.000000	12.402433
3025.000000	12.504899
3024.000000	12.609665
3023.000000	12.715228
3022.000000	12.818972
3021.000000	12.921018
3020.000000	13.023077
3019.000000	13.125170
3018.000000	13.226341
3017.000000	13.327061
3016.000000	13.428290
3015.000000	13.529632
3014.000000	13.630891
3013.000000	13.733982
3012.000000	13.840799
3011.000000	13.950575
3010.000000	14.061253
3009.000000	14.171838
3008.000000	14.281461
3007.000000	14.388342
3006.000000	14.492056
3005.000000	14.595006
3004.000000	14.699447
3003.000000	14.804623
3002.000000	14.908818
3001.000000	15.012104
3000.000000	15.115113
2999.000000	15.217281
2998.000000	15.318626
2997.000000	15.421005
2996.000000	15.525236
2995.000000	15.629155
2994.000000	15.731117
2993.000000	15.833255
2992.000000	15.938429
2991.000000	16.045924
2990.000000	16.152943
2989.000000	16.258641
2988.000000	16.363829
2987.000000	16.468344
2986.000000	16.571496
2985.000000	16.673822
2984.000000	16.775914
2983.000000	16.876866
2982.000000	16.976241
2981.000000	17.076034
2980.000000	17.178309
2979.000000	17.282252
2978.000000	17.385902
2977.000000	17.489252
2976.000000	17.593381
2975.000000	17.698056
2974.000000	17.802587
2973.000000	17.907536
2972.000000	18.013256
2971.000000	18.118252
2970.000000	18.221349
2969.000000	18.324022
2968.000000	18.428109
2967.000000	18.532755
2966.000000	18.635963
2965.000000	18.737773
2964.000000	18.839465
2963.000000	18.941077
2962.000000	19.042175
2961.000000	19.143592
2960.000000	19.245953
2959.000000	19.347916
2958.000000	19.448026
2957.000000	19.546774
2956.000000	19.644683
2955.000000	19.740469
2954.000000	19.833649
2953.000000	19.926976
2952.000000	20.023441
2951.000000	20.122209
2950.000000	20.220176
2949.000000	20.315953
2948.000000	20.409983
2947.000000	20.502388
2946.000000	20.593559
2945.000000	20.685602
2944.000000	20.780518
2943.000000	20.877748
2942.000000	20.975536
2941.000000	21.073399
2940.000000	21.171149
2939.000000	21.267117
2938.000000	21.359834
2937.000000	21.450259
2936.000000	21.540138
2935.000000	21.629488
2934.000000	21.717943
2933.000000	21.806904
2932.000000	21.897733
2931.000000	21.989213
2930.000000	22.079265
2929.000000	22.167927
2928.000000	22.256170
2927.000000	22.343447
2926.000000	22.429068
2925.000000	22.514554
2924.000000	22.601871
2923.000000	22.690537
2922.000000	22.779016
2921.000000	22.867421
2920.000000	22.956335
2919.000000	23.044579
2918.000000	23.130974
2917.000000	23.216962
2916.000000	23.304653
2915.000000	23.393228
2914.000000	23.479735
2913.000000	23.562569
2912.000000	23.641976
2911.000000	23.718292
2910.000000	23.792134
2909.000000	23.865588
2908.000000	23.940847
2907.000000	24.018086
2906.000000	24.096142
2905.000000	24.174374
2904.000000	24.252109
2903.000000	24.327590
2902.000000	24.399630
2901.000000	24.469858
2900.000000	24.540757
2899.000000	24.613088
2898.000000	24.686042
2897.000000	24.758912
2896.000000	24.830790
2895.000000	24.899780
2894.000000	24.964699
2893.000000	25.026843
2892.000000	25.088413
2891.000000	25.150099
2890.000000	25.211653
2889.000000	25.273461
2888.000000	25.335536
2887.000000	25.395995
2886.000000	25.452551
2885.000000	25.504812
2884.000000	25.553525
2883.000000	25.598721
2882.000000	25.640359
2881.000000	25.679681
2880.000000	25.717933
2879.000000	25.754609
2878.000000	25.788826
2877.000000	25.821349
2876.000000	25.853348
2875.000000	25.884087
2874.000000	25.912311
2873.000000	25.939367
2872.000000	25.969067
2871.000000	26.004822
2870.000000	26.048332
2869.000000	26.100165
2868.000000	26.159598
2867.000000	26.224655
2866.000000	26.294307
2865.000000	26.370157
2864.000000	26.454598
2863.000000	26.547792
2862.000000	26.647726
2861.000000	26.751952
2860.000000	26.857881
2859.000000	26.962652
2858.000000	27.064923
2857.000000	27.166206
2856.000000	27.268813
2855.000000	27.373258
2854.000000	27.478808
2853.000000	27.585162
2852.000000	27.691728
2851.000000	27.796262
2850.000000	27.896348
2849.000000	27.991722
2848.000000	28.083868
2847.000000	28.174182
2846.000000	28.263900
2845.000000	28.354570
2844.000000	28.446699
2843.000000	28.538518
2842.000000	28.627606
2841.000000	28.713117
2840.000000	28.795375
2839.000000	28.874669
2838.000000	28.952000
2837.000000	29.029858
2836.000000	29.110136
2835.000000	29.191811
2834.000000	29.272085
2833.000000	29.349180
2832.000000	29.422719
2831.000000	29.492679
2830.000000	29.559964
2829.000000	29.627351
2828.000000	29.697715
2827.000000	29.771334
2826.000000	29.846061
2825.000000	29.919564
2824.000000	29.990240
2823.000000	30.057045
2822.000000	30.120344
2821.000000	30.182581
2820.000000	30.246464
2819.000000	30.312716
2818.000000	30.380483
2817.000000	30.448990
2816.000000	30.517232
2815.000000	30.583147
2814.000000	30.645185
2813.000000	30.704552
2812.000000	30.764319
2811.000000	30.826669
2810.000000	30.892094
2809.000000	30.960317
2808.000000	31.030003
2807.000000	31.098213
2806.000000	31.162201
2805.000000	31.222053
2804.000000	31.280325
2803.000000	31.339498
2802.000000	31.400959
2801.000000	31.465532
2800.000000	31.532926
2799.000000	31.600778
2798.000000	31.665876
2797.000000	31.726655
2796.000000	31.783710
2795.000000	31.838578
2794.000000	31.893320
2793.000000	31.950506
2792.000000	32.011633
2791.000000	32.075412
2790.000000	32.138823
2789.000000	32.199643
2788.000000	32.257027
2787.000000	32.310650
2786.000000	32.361188
2785.000000	32.411246
2784.000000	32.463856
2783.000000	32.519720
2782.000000	32.576951
2781.000000	32.633215
2780.000000	32.686876
2779.000000	32.736767
2778.000000	32.782905
2777.000000	32.827570
2776.000000	32.874123
2775.000000	32.924332
2774.000000	32.977527
2773.000000	33.031798
2772.000000	33.084782
2771.000000	33.133975
2770.000000	33.178280
2769.000000	33.219530
2768.000000	33.261366
2767.000000	33.306467
2766.000000	33.355469
2765.000000	33.407649
2764.000000	33.461018
2763.000000	33.512243
2762.000000	33.558443
2761.000000	33.599528
2760.000000	33.637966
2759.000000	33.676572
2758.000000	33.717529
2757.000000	33.762574
2756.000000	33.812036
2755.000000	33.863455
2754.000000	33.912680
2753.000000	33.956852
2752.000000	33.995799
2751.000000	34.031212
2750.000000	34.065953
2749.000000	34.103482
2748.000000	34.145873
2747.000000	34.191839
2746.000000	34.237792
2745.000000	34.280896
2744.000000	34.320272
2743.000000	34.356169
2742.000000	34.389866
2741.000000	34.424172
2740.000000	34.461983
2739.000000	34.503595
2738.000000	34.546414
2737.000000	34.587308
2736.000000	34.624343
2735.000000	34.656831
2734.000000	34.685598
2733.000000	34.713459
2732.000000	34.743884
2731.000000	34.778483
2730.000000	34.816260
2729.000000	34.854852
2728.000000	34.891442
2727.000000	34.923135
2726.000000	34.948521
2725.000000	34.969535
2724.000000	34.990589
2723.000000	35.015525
2722.000000	35.045832
2721.000000	35.080916
2720.000000	35.118363
2719.000000	35.154168
2718.000000	35.184707
2717.000000	35.209352
2716.000000	35.230572
2715.000000	35.251708
2714.000000	35.275488
2713.000000	35.303750
2712.000000	35.336334
2711.000000	35.369958
2710.000000	35.399957
2709.000000	35.423840
2708.000000	35.442506
2707.000000	35.458459
2706.000000	35.474249
2705.000000	35.492261
2704.000000	35.513713
2703.000000	35.537028
2702.000000	35.558432
2701.000000	35.574745
2700.000000	35.585103
2699.000000	35.590451
2698.000000	35.592940
2697.000000	35.595906
2696.000000	35.602346
2695.000000	35.612495
2694.000000	35.623514
2693.000000	35.631730
2692.000000	35.634670
2691.000000	35.631541
2690.000000	35.623647
2689.000000	35.614647
2688.000000	35.608718
2687.000000	35.607634
2686.000000	35.610013
2685.000000	35.613122
2684.000000	35.614298
2683.000000	35.611019
2682.000000	35.601840
2681.000000	35.588042
2680.000000	35.573335
2679.000000	35.561358
2678.000000	35.553877
2677.000000	35.550891
2676.000000	35.550881
2675.000000	35.550885
2674.000000	35.547961
2673.000000	35.541583
2672.000000	35.534214
2671.000000	35.529849
2670.000000	35.532542
2669.000000	35.545325
2668.000000	35.568770
2667.000000	35.600042
2666.000000	35.634856
2665.000000	35.670898
2664.000000	35.708700
2663.000000	35.750283
2662.000000	35.797874
2661.000000	35.853613
2660.000000	35.918428
2659.000000	35.990150
2658.000000	36.064114
2657.000000	36.135939
2656.000000	36.203503
2655.000000	36.267022
2654.000000	36.328627
2653.000000	36.391911
2652.000000	36.459923
2651.000000	36.532567
2650.000000	36.606427
2649.000000	36.677185
2648.000000	36.741612
2647.000000	36.798103
2646.000000	36.847285
2645.000000	36.892518
2644.000000	36.938431
2643.000000	36.987853
2642.000000	37.040424
2641.000000	37.093739
2640.000000	37.144503
2639.000000	37.189237
2638.000000	37.225834
2637.000000	37.255476
2636.000000	37.282234
2635.000000	37.310086
2634.000000	37.340893
2633.000000	37.374490
2632.000000	37.409012
2631.000000	37.440982
2630.000000	37.466815
2629.000000	37.485620
2628.000000	37.499969
2627.000000	37.513655
2626.000000	37.529460
2625.000000	37.548572
2624.000000	37.570449
2623.000000	37.592426
2622.000000	37.610741
2621.000000	37.623085
2620.000000	37.629958
2619.000000	37.633901
2618.000000	37.638361
2617.000000	37.646872
2616.000000	37.661351
2615.000000	37.680099
2614.000000	37.698325
2613.000000	37.711289
2612.000000	37.716730
2611.000000	37.715047
2610.000000	37.708646
2609.000000	37.701272
2608.000000	37.696251
2607.000000	37.694025
2606.000000	37.691922
2605.000000	37.686113
2604.000000	37.673368
2603.000000	37.651728
2602.000000	37.621221
2601.000000	37.584762
2600.000000	37.546875
2599.000000	37.510846
2598.000000	37.477579
2597.000000	37.446552
2596.000000	37.416752
2595.000000	37.386995
2594.000000	37.357382
2593.000000	37.331050
2592.000000	37.313606
2591.000000	37.309963
2590.000000	37.322394
2589.000000	37.351070
2588.000000	37.394056
2587.000000	37.447489
2586.000000	37.506975
2585.000000	37.570354
2584.000000	37.638927
2583.000000	37.715272
2582.000000	37.801501
2581.000000	37.898382
2580.000000	38.004475
2579.000000	38.115582
2578.000000	38.225925
2577.000000	38.331412
2576.000000	38.431393
2575.000000	38.527832
2574.000000	38.623934
2573.000000	38.723171
2572.000000	38.827733
2571.000000	38.936682
2570.000000	39.046218
2569.000000	39.152277
2568.000000	39.252633
2567.000000	39.346970
2566.000000	39.436605
2565.000000	39.524535
2564.000000	39.614083
2563.000000	39.706487
2562.000000	39.800164
2561.000000	39.892435
2560.000000	39.981098
2559.000000	40.064383
2558.000000	40.141602
2557.000000	40.214653
2556.000000	40.287569
2555.000000	40.363399
2554.000000	40.441885
2553.000000	40.520492
2552.000000	40.596337
2551.000000	40.666748
2550.000000	40.729985
2549.000000	40.786787
2548.000000	40.840673
2547.000000	40.895535
2546.000000	40.953071
2545.000000	41.012641
2544.000000	41.071800
2543.000000	41.126577
2542.000000	41.172782
2541.000000	41.208509
2540.000000	41.235441
2539.000000	41.256849
2538.000000	41.275373
2537.000000	41.292513
2536.000000	41.307941
2535.000000	41.318692
2534.000000	41.319671
2533.000000	41.306863
2532.000000	41.279819
2531.000000	41.240536
2530.000000	41.192107
2529.000000	41.138354
2528.000000	41.083152
2527.000000	41.028680
2526.000000	40.974781
2525.000000	40.921302
2524.000000	40.869862
2523.000000	40.823327
2522.000000	40.784919
2521.000000	40.758904
2520.000000	40.749684
2519.000000	40.759100
2518.000000	40.785420
2517.000000	40.824952
2516.000000	40.874681
2515.000000	40.931934
2514.000000	40.994292
2513.000000	41.061295
2512.000000	41.134499
2511.000000	41.215313
2510.000000	41.302594
2509.000000	41.393306
2508.000000	41.484348
2507.000000	41.572657
2506.000000	41.655438
2505.000000	41.731864
2504.000000	41.804107
2503.000000	41.875324
2502.000000	41.947132
2501.000000	42.019288
2500.000000	42.090584
2499.000000	42.158891
2498.000000	42.221365
2497.000000	42.276640
2496.000000	42.326221
2495.000000	42.373130
2494.000000	42.419732
2493.000000	42.467136
2492.000000	42.515514
2491.000000	42.563482
2490.000000	42.608254
2489.000000	42.647821
2488.000000	42.682337
2487.000000	42.713141
2486.000000	42.741483
2485.000000	42.769077
2484.000000	42.798331
2483.000000	42.830254
2482.000000	42.863111
2481.000000	42.894116
2480.000000	42.921735
2479.000000	42.945707
2478.000000	42.966233
2477.000000	42.984656
2476.000000	43.003676
2475.000000	43.025241
2474.000000	43.048859
2473.000000	43.072812
2472.000000	43.096015
2471.000000	43.117770
2470.000000	43.137131
2469.000000	43.154111
2468.000000	43.170525
2467.000000	43.188258
2466.000000	43.207400
2465.000000	43.226996
2464.000000	43.246539
2463.000000	43.265555
2462.000000	43.283072
2461.000000	43.298870
2460.000000	43.314339
2459.000000	43.330875
2458.000000	43.348472
2457.000000	43.366816
2456.000000	43.386395
2455.000000	43.407137
2454.000000	43.427285
2453.000000	43.445185
2452.000000	43.461232
2451.000000	43.476808
2450.000000	43.492546
2449.000000	43.509026
2448.000000	43.527750
2447.000000	43.549500
2446.000000	43.572603
2445.000000	43.594479
2444.000000	43.614212
2443.000000	43.632372
2442.000000	43.649423
2441.000000	43.665873
2440.000000	43.683099
2439.000000	43.702321
2438.000000	43.723317
2437.000000	43.745296
2436.000000	43.768120
2435.000000	43.791454
2434.000000	43.813852
2433.000000	43.834222
2432.000000	43.853421
2431.000000	43.873026
2430.000000	43.893448
2429.000000	43.914471
2428.000000	43.936542
2427.000000	43.960030
2426.000000	43.984115
2425.000000	44.007855
2424.000000	44.031501
2423.000000	44.055529
2422.000000	44.079463
2421.000000	44.102948
2420.000000	44.126911
2419.000000	44.152138
2418.000000	44.177700
2417.000000	44.202223
2416.000000	44.225730
2415.000000	44.248901
2414.000000	44.271717
2413.000000	44.294343
2412.000000	44.318208
2411.000000	44.344419
2410.000000	44.371982
2409.000000	44.399067
2408.000000	44.425110
2407.000000	44.450288
2406.000000	44.474097
2405.000000	44.496219
2404.000000	44.517966
2403.000000	44.541252
2402.000000	44.566837
2401.000000	44.594693
2400.000000	44.624911
2399.000000	44.656765
2398.000000	44.688029
2397.000000	44.716963
2396.000000	44.744232
2395.000000	44.771670
2394.000000	44.800306
2393.000000	44.830851
2392.000000	44.864554
2391.000000	44.901736
2390.000000	44.940554
2389.000000	44.978748
2388.000000	45.016098
2387.000000	45.053656
2386.000000	45.092106
2385.000000	45.132632
2384.000000	45.177203
2383.000000	45.227298
2382.000000	45.282189
2381.000000	45.340575
2380.000000	45.402840
2379.000000	45.468995
2378.000000	45.537589
2377.000000	45.607463
2376.000000	45.679639
2375.000000	45.754736
2374.000000	45.830614
2373.000000	45.903858
2372.000000	45.972993
2371.000000	46.037578
2370.000000	46.096078
2369.000000	46.148785
2368.000000	46.200691
2367.000000	46.257342
2366.000000	46.319811
2365.000000	46.386461
2364.000000	46.459545
2363.000000	46.535834
2362.000000	46.607408
2361.000000	46.673120
2360.000000	46.733567
2359.000000	46.793791
2358.000000	46.856037
2357.000000	46.918357
2356.000000	46.986154
2355.000000	47.054276
2354.000000	47.118712
2353.000000	47.175985
2352.000000	47.236251
2351.000000	47.309084
2350.000000	47.380643
2349.000000	47.439784
2348.000000	47.488723
2347.000000	47.548813
2346.000000	47.635089
2345.000000	47.729959
2344.000000	47.815160
2343.000000	47.873213
2342.000000	47.917777
2341.000000	47.962714
2340.000000	48.014235
2339.000000	48.074742
2338.000000	48.139574
2337.000000	48.208017
2336.000000	48.273944
2335.000000	48.338765
2334.000000	48.397148
2333.000000	48.454245
2332.000000	48.507925
2331.000000	48.572366
2330.000000	48.638671
2329.000000	48.714655
2328.000000	48.788461
2327.000000	48.861950
2326.000000	48.929009
2325.000000	48.988285
2324.000000	49.045529
2323.000000	49.102474
2322.000000	49.162451
2321.000000	49.224341
2320.000000	49.287751
2319.000000	49.355245
2318.000000	49.419053
2317.000000	49.479157
2316.000000	49.529243
2315.000000	49.580128
2314.000000	49.629876
2313.000000	49.686911
2312.000000	49.745632
2311.000000	49.811434
2310.000000	49.875325
2309.000000	49.937047
2308.000000	49.990222
2307.000000	50.040803
2306.000000	50.089065
2305.000000	50.141370
2304.000000	50.198632
2303.000000	50.265321
2302.000000	50.335417
2301.000000	50.405178
2300.000000	50.467245
2299.000000	50.523608
2298.000000	50.572998
2297.000000	50.620583
2296.000000	50.670037
2295.000000	50.728569
2294.000000	50.795530
2293.000000	50.866610
2292.000000	50.935194
2291.000000	50.997224
2290.000000	51.050219
2289.000000	51.094548
2288.000000	51.135927
2287.000000	51.181670
2286.000000	51.236256
2285.000000	51.298125
2284.000000	51.363877
2283.000000	51.428408
2282.000000	51.486408
2281.000000	51.534408
2280.000000	51.575382
2279.000000	51.616335
2278.000000	51.662729
2277.000000	51.716177
2276.000000	51.775667
2275.000000	51.838196
2274.000000	51.897094
2273.000000	51.946146
2272.000000	51.984618
2271.000000	52.017799
2270.000000	52.051745
2269.000000	52.090676
2268.000000	52.137191
2267.000000	52.190757
2266.000000	52.245292
2265.000000	52.292643
2264.000000	52.328838
2263.000000	52.355826
2262.000000	52.378273
2261.000000	52.401308
2260.000000	52.431055
2259.000000	52.470644
2258.000000	52.516675
2257.000000	52.560723
2256.000000	52.596013
2255.000000	52.620244
2254.000000	52.633968
2253.000000	52.641185
2252.000000	52.649442
2251.000000	52.666135
2250.000000	52.691801
2249.000000	52.720837
2248.000000	52.746621
2247.000000	52.764156
2246.000000	52.769589
2245.000000	52.762642
2244.000000	52.749655
2243.000000	52.740139
2242.000000	52.739241
2241.000000	52.745498
2240.000000	52.754237
2239.000000	52.759495
2238.000000	52.754292
2237.000000	52.734374
2236.000000	52.703008
2235.000000	52.668879
2234.000000	52.639316
2233.000000	52.617538
2232.000000	52.603859
2231.000000	52.594878
2230.000000	52.582048
2229.000000	52.556565
2228.000000	52.516899
2227.000000	52.469367
2226.000000	52.422014
2225.000000	52.380980
2224.000000	52.350443
2223.000000	52.330647
2222.000000	52.315168
2221.000000	52.294411
2220.000000	52.262983
2219.000000	52.222140
2218.000000	52.176520
2217.000000	52.132374
2216.000000	52.097314
2215.000000	52.076339
2214.000000	52.066619
2213.000000	52.059221
2212.000000	52.046219
2211.000000	52.024506
2210.000000	51.994706
2209.000000	51.961327
2208.000000	51.933156
2207.000000	51.918728
2206.000000	51.919552
2205.000000	51.929803
2204.000000	51.941635
2203.000000	51.948456
2202.000000	51.945415
2201.000000	51.932341
2200.000000	51.916570
2199.000000	51.908945
2198.000000	51.915785
2197.000000	51.936343
2196.000000	51.965867
2195.000000	51.997277
2194.000000	52.021490
2193.000000	52.032122
2192.000000	52.031479
2191.000000	52.029038
2190.000000	52.033888
2189.000000	52.050608
2188.000000	52.079767
2187.000000	52.117215
2186.000000	52.153049
2185.000000	52.176674
2184.000000	52.184766
2183.000000	52.182469
2182.000000	52.177686
2181.000000	52.177311
2180.000000	52.186771
2179.000000	52.207185
2178.000000	52.232161
2177.000000	52.251395
2176.000000	52.258678
2175.000000	52.254524
2174.000000	52.242948
2173.000000	52.230007
2172.000000	52.224077
2171.000000	52.231285
2170.000000	52.249223
2169.000000	52.268106
2168.000000	52.278773
2167.000000	52.277430
2166.000000	52.265025
2165.000000	52.247017
2164.000000	52.233441
2163.000000	52.233693
2162.000000	52.249379
2161.000000	52.274041
2160.000000	52.298986
2159.000000	52.316668
2158.000000	52.321082
2157.000000	52.311102
2156.000000	52.294425
2155.000000	52.283683
2154.000000	52.287269
2153.000000	52.305398
2152.000000	52.332982
2151.000000	52.361656
2150.000000	52.380929
2149.000000	52.383489
2148.000000	52.371569
2147.000000	52.355198
2146.000000	52.344118
2145.000000	52.343367
2144.000000	52.354524
2143.000000	52.374637
2142.000000	52.394372
2141.000000	52.402854
2140.000000	52.396632
2139.000000	52.381161
2138.000000	52.364604
2137.000000	52.353770
2136.000000	52.354131
2135.000000	52.367154
2134.000000	52.386365
2133.000000	52.400563
2132.000000	52.402476
2131.000000	52.392569
2130.000000	52.375946
2129.000000	52.360027
2128.000000	52.353807
2127.000000	52.363173
2126.000000	52.384905
2125.000000	52.408237
2124.000000	52.423211
2123.000000	52.425393
2122.000000	52.414904
2121.000000	52.396498
2120.000000	52.380654
2119.000000	52.378820
2118.000000	52.395158
2117.000000	52.424647
2116.000000	52.458213
2115.000000	52.486882
2114.000000	52.503331
2113.000000	52.506095
2112.000000	52.503349
2111.000000	52.508340
2110.000000	52.529851
2109.000000	52.569098
2108.000000	52.622865
2107.000000	52.684764
2106.000000	52.744830
2105.000000	52.794942
2104.000000	52.836078
2103.000000	52.877616
2102.000000	52.928810
2101.000000	52.994567
2100.000000	53.076520
2099.000000	53.171520
2098.000000	53.270005
2097.000000	53.360503
2096.000000	53.438223
2095.000000	53.507193
2094.000000	53.575125
2093.000000	53.649766
2092.000000	53.737640
2091.000000	53.839698
2090.000000	53.947220
2089.000000	54.046859
2088.000000	54.130704
2087.000000	54.198854
2086.000000	54.254773
2085.000000	54.304254
2084.000000	54.356782
2083.000000	54.420389
2082.000000	54.493125
2081.000000	54.563903
2080.000000	54.621817
2079.000000	54.660492
2078.000000	54.677961
2077.000000	54.677666
2076.000000	54.670658
2075.000000	54.670263
2074.000000	54.680894
2073.000000	54.698214
2072.000000	54.715240
2071.000000	54.723889
2070.000000	54.714913
2069.000000	54.685605
2068.000000	54.647211
2067.000000	54.617246
2066.000000	54.604491
2065.000000	54.606714
2064.000000	54.619518
2063.000000	54.638885
2062.000000	54.656681
2061.000000	54.663465
2060.000000	54.659019
2059.000000	54.654037
2058.000000	54.659942
2057.000000	54.682008
2056.000000	54.721523
2055.000000	54.776362
2054.000000	54.836834
2053.000000	54.890460
2052.000000	54.932832
2051.000000	54.969395
2050.000000	55.007903
2049.000000	55.056190
2048.000000	55.122568
2047.000000	55.210189
2046.000000	55.311471
2045.000000	55.414079
2044.000000	55.512230
2043.000000	55.607172
2042.000000	55.700332
2041.000000	55.794268
2040.000000	55.897923
2039.000000	56.021371
2038.000000	56.164375
2037.000000	56.316187
2036.000000	56.466574
2035.000000	56.611151
2034.000000	56.748093
2033.000000	56.878123
2032.000000	57.009628
2031.000000	57.154602
2030.000000	57.316627
2029.000000	57.489385
2028.000000	57.663601
2027.000000	57.832840
2026.000000	57.989415
2025.000000	58.130448
2024.000000	58.263449
2023.000000	58.399282
2022.000000	58.541419
2021.000000	58.689060
2020.000000	58.846166
2019.000000	59.015669
2018.000000	59.187071
2017.000000	59.342756
2016.000000	59.477651
2015.000000	59.602493
2014.000000	59.728653
2013.000000	59.860208
2012.000000	59.999447
2011.000000	60.147609
2010.000000	60.297379
2009.000000	60.435261
2008.000000	60.553863
2007.000000	60.658668
2006.000000	60.756105
2005.000000	60.850834
2004.000000	60.949668
2003.000000	61.058521
2002.000000	61.175812
2001.000000	61.287600
2000.000000	61.387651
1999.000000	61.479669
1998.000000	61.560559
1997.000000	61.620202
1996.000000	61.665797
1995.000000	61.725006
1994.000000	61.814886
1993.000000	61.920274
1992.000000	62.015502
1991.000000	62.093671
1990.000000	62.162679
1989.000000	62.228681
1988.000000	62.294617
1987.000000	62.366442
1986.000000	62.448809
1985.000000	62.538402
1984.000000	62.626837
1983.000000	62.706346
1982.000000	62.772381
1981.000000	62.818805
1980.000000	62.851435
1979.000000	62.886443
1978.000000	62.934933
1977.000000	62.994731
1976.000000	63.062119
1975.000000	63.136441
1974.000000	63.208756
1973.000000	63.260112
1972.000000	63.280987
1971.000000	63.284156
1970.000000	63.292573
1969.000000	63.321909
1968.000000	63.374915
1967.000000	63.444081
1966.000000	63.514705
1965.000000	63.573824
1964.000000	63.619804
1963.000000	63.659018
1962.000000	63.693961
1961.000000	63.724786
1960.000000	63.758200
1959.000000	63.801911
1958.000000	63.852889
1957.000000	63.899577
1956.000000	63.935874
1955.000000	63.964614
1954.000000	63.986091
1953.000000	64.003739
1952.000000	64.022833
1951.000000	64.049148
1950.000000	64.085774
1949.000000	64.125452
1948.000000	64.151142
1947.000000	64.148431
1946.000000	64.123165
1945.000000	64.105632
1944.000000	64.122974
1943.000000	64.171164
1942.000000	64.225884
1941.000000	64.274321
1940.000000	64.323412
1939.000000	64.377376
1938.000000	64.419506
1937.000000	64.433432
1936.000000	64.430198
1935.000000	64.432902
1934.000000	64.445665
1933.000000	64.465511
1932.000000	64.488563
1931.000000	64.514742
1930.000000	64.541473
1929.000000	64.551106
1928.000000	64.533983
1927.000000	64.487360
1926.000000	64.438693
1925.000000	64.424434
1924.000000	64.447215
1923.000000	64.472669
1922.000000	64.474970
1921.000000	64.469312
1920.000000	64.492532
1919.000000	64.532247
1918.000000	64.539553
1917.000000	64.506404
1916.000000	64.473727
1915.000000	64.468835
1914.000000	64.473365
1913.000000	64.461490
1912.000000	64.435966
1911.000000	64.417576
1910.000000	64.408793
1909.000000	64.392906
1908.000000	64.377515
1907.000000	64.371164
1906.000000	64.374641
1905.000000	64.379188
1904.000000	64.376309
1903.000000	64.369812
1902.000000	64.364189
1901.000000	64.350589
1900.000000	64.328511
1899.000000	64.302919
1898.000000	64.286372
1897.000000	64.292076
1896.000000	64.316024
1895.000000	64.331200
1894.000000	64.310448
1893.000000	64.261888
1892.000000	64.232402
1891.000000	64.253174
1890.000000	64.299916
1889.000000	64.335726
1888.000000	64.359779
1887.000000	64.392786
1886.000000	64.436154
1885.000000	64.468768
1884.000000	64.476548
1883.000000	64.472814
1882.000000	64.473113
1881.000000	64.473589
1880.000000	64.476711
1879.000000	64.490975
1878.000000	64.509957
1877.000000	64.525825
1876.000000	64.539064
1875.000000	64.541183
1874.000000	64.507292
1873.000000	64.424085
1872.000000	64.326537
1871.000000	64.273326
1870.000000	64.270136
1869.000000	64.275049
1868.000000	64.277859
1867.000000	64.298693
1866.000000	64.337784
1865.000000	64.372406
1864.000000	64.387428
1863.000000	64.388027
1862.000000	64.382121
1861.000000	64.368031
1860.000000	64.347749
1859.000000	64.330794
1858.000000	64.317317
1857.000000	64.297915
1856.000000	64.274006
1855.000000	64.256423
1854.000000	64.250130
1853.000000	64.223881
1852.000000	64.175205
1851.000000	64.131565
1850.000000	64.099458
1849.000000	64.053196
1848.000000	63.988463
1847.000000	63.957050
1846.000000	63.998066
1845.000000	64.036599
1844.000000	63.978849
1843.000000	63.865590
1842.000000	63.778809
1841.000000	63.737029
1840.000000	63.719477
1839.000000	63.692462
1838.000000	63.651614
1837.000000	63.609780
1836.000000	63.563363
1835.000000	63.491255
1834.000000	63.377915
1833.000000	63.244030
1832.000000	63.167970
1831.000000	63.160484
1830.000000	63.128845
1829.000000	63.022600
1828.000000	62.900171
1827.000000	62.848438
1826.000000	62.858159
1825.000000	62.847651
1824.000000	62.796878
1823.000000	62.750799
1822.000000	62.722710
1821.000000	62.682900
1820.000000	62.623623
1819.000000	62.560033
1818.000000	62.501867
1817.000000	62.435074
1816.000000	62.343434
1815.000000	62.238174
1814.000000	62.127609
1813.000000	62.027265
1812.000000	61.951487
1811.000000	61.893113
1810.000000	61.839770
1809.000000	61.785915
1808.000000	61.732777
1807.000000	61.676007
1806.000000	61.598493
1805.000000	61.489239
1804.000000	61.358490
1803.000000	61.249680
1802.000000	61.171041
1801.000000	61.109030
1800.000000	61.054277
1799.000000	61.007329
1798.000000	60.964805
1797.000000	60.913618
1796.000000	60.844943
1795.000000	60.786836
1794.000000	60.752506
1793.000000	60.698825
1792.000000	60.596532
1791.000000	60.493669
1790.000000	60.425628
1789.000000	60.380219
1788.000000	60.344618
1787.000000	60.318814
1786.000000	60.285270
1785.000000	60.208536
1784.000000	60.078725
1783.000000	59.967688
1782.000000	59.907407
1781.000000	59.864654
1780.000000	59.802659
1779.000000	59.742599
1778.000000	59.724234
1777.000000	59.726497
1776.000000	59.705254
1775.000000	59.673049
1774.000000	59.650505
1773.000000	59.556639
1772.000000	59.365562
1771.000000	59.188376
1770.000000	59.105528
1769.000000	59.095503
1768.000000	59.075623
1767.000000	59.006436
1766.000000	58.898009
1765.000000	58.787656
1764.000000	58.720205
1763.000000	58.695005
1762.000000	58.628829
1761.000000	58.496083
1760.000000	58.344523
1759.000000	58.257909
1758.000000	58.253845
1757.000000	58.238078
1756.000000	58.167391
1755.000000	58.085125
1754.000000	58.010268
1753.000000	57.898985
1752.000000	57.705592
1751.000000	57.449600
1750.000000	57.237215
1749.000000	57.105824
1748.000000	57.007296
1747.000000	56.917525
1746.000000	56.828700
1745.000000	56.739745
1744.000000	56.648878
1743.000000	56.564095
1742.000000	56.504862
1741.000000	56.475075
1740.000000	56.417379
1739.000000	56.326593
1738.000000	56.245300
1737.000000	56.202657
1736.000000	56.240503
1735.000000	56.179125
1734.000000	55.779468
1733.000000	55.225509
1732.000000	54.798781
1731.000000	54.578496
1730.000000	54.470877
1729.000000	54.337896
1728.000000	54.144432
1727.000000	53.944384
1726.000000	53.753673
1725.000000	53.558431
1724.000000	53.345197
1723.000000	53.124897
1722.000000	52.920376
1721.000000	52.745032
1720.000000	52.619832
1719.000000	52.456156
1718.000000	52.085971
1717.000000	51.563028
1716.000000	51.100846
1715.000000	50.782242
1714.000000	50.539817
1713.000000	50.289437
1712.000000	50.011935
1711.000000	49.724178
1710.000000	49.410122
1709.000000	49.045647
1708.000000	48.689230
1707.000000	48.408146
1706.000000	48.168291
1705.000000	47.919429
1704.000000	47.665327
1703.000000	47.457139
1702.000000	47.380772
1701.000000	47.205465
1700.000000	46.728922
1699.000000	46.233152
1698.000000	45.917803
1697.000000	45.686747
1696.000000	45.278555
1695.000000	44.673998
1694.000000	44.096771
1693.000000	43.648244
1692.000000	43.286671
1691.000000	42.963041
1690.000000	42.684159
1689.000000	42.457189
1688.000000	42.243686
1687.000000	41.975637
1686.000000	41.650878
1685.000000	41.142099
1684.000000	40.392790
1683.000000	39.723806
1682.000000	39.294922
1681.000000	38.999091
1680.000000	38.712319
1679.000000	38.398342
1678.000000	38.078032
1677.000000	37.756470
1676.000000	37.357872
1675.000000	36.852838
1674.000000	36.336365
1673.000000	35.890502
1672.000000	35.527911
1671.000000	35.215203
1670.000000	34.872061
1669.000000	34.453584
1668.000000	34.013640
1667.000000	33.617701
1666.000000	33.266702
1665.000000	32.940625
1664.000000	32.606330
1663.000000	32.241799
1662.000000	31.864658
1661.000000	31.493781
1660.000000	31.140264
1659.000000	30.830795
1658.000000	30.588915
1657.000000	30.392403
1656.000000	30.227741
1655.000000	30.160955
1654.000000	29.993730
1653.000000	29.414856
1652.000000	28.687868
1651.000000	28.125620
1650.000000	27.765340
1649.000000	27.540740
1648.000000	27.349680
1647.000000	27.099597
1646.000000	26.792634
1645.000000	26.476309
1644.000000	26.179719
1643.000000	25.922225
1642.000000	25.688633
1641.000000	25.443729
1640.000000	25.193246
1639.000000	24.968814
1638.000000	24.798291
1637.000000	24.644458
1636.000000	24.423177
1635.000000	24.144028
1634.000000	23.885237
1633.000000	23.662508
1632.000000	23.456623
1631.000000	23.266049
1630.000000	23.098636
1629.000000	22.945694
1628.000000	22.790877
1627.000000	22.641782
1626.000000	22.507558
1625.000000	22.384063
1624.000000	22.255857
1623.000000	22.126828
1622.000000	22.028343
1621.000000	21.973165
1620.000000	21.955374
1619.000000	21.965976
1618.000000	21.970937
1617.000000	21.898208
1616.000000	21.747238
1615.000000	21.606232
1614.000000	21.525316
1613.000000	21.486881
1612.000000	21.461390
1611.000000	21.451268
1610.000000	21.467848
1609.000000	21.497350
1608.000000	21.518558
1607.000000	21.537750
1606.000000	21.564877
1605.000000	21.591707
1604.000000	21.619207
1603.000000	21.665185
1602.000000	21.735882
1601.000000	21.811791
1600.000000	21.876588
1599.000000	21.935308
1598.000000	21.992761
1597.000000	22.044171
1596.000000	22.092490
1595.000000	22.154712
1594.000000	22.237733
1593.000000	22.327259
1592.000000	22.410991
1591.000000	22.492815
1590.000000	22.573485
1589.000000	22.640882
1588.000000	22.692729
1587.000000	22.744823
1586.000000	22.812668
1585.000000	22.887009
1584.000000	22.959140
1583.000000	23.038026
1582.000000	23.129934
1581.000000	23.227618
1580.000000	23.330518
1579.000000	23.446755
1578.000000	23.571830
1577.000000	23.662155
1576.000000	23.675083
1575.000000	23.653279
1574.000000	23.646847
1573.000000	23.656653
1572.000000	23.685269
1571.000000	23.746148
1570.000000	23.827491
1569.000000	23.891477
1568.000000	23.933321
1567.000000	23.989288
1566.000000	24.096788
1565.000000	24.252231
1564.000000	24.428631
1563.000000	24.581049
1562.000000	24.653754
1561.000000	24.711980
1560.000000	24.824673
1559.000000	24.929091
1558.000000	25.035464
1557.000000	25.123616
1556.000000	25.206071
1555.000000	25.314133
1554.000000	25.413471
1553.000000	25.475303
1552.000000	25.544136
1551.000000	25.677032
1550.000000	25.878648
1549.000000	26.095323
1548.000000	26.281739
1547.000000	26.451502
1546.000000	26.643881
1545.000000	26.864774
1544.000000	27.106072
1543.000000	27.371407
1542.000000	27.693845
1541.000000	28.090916
1540.000000	28.498180
1539.000000	28.821430
1538.000000	29.018428
1537.000000	29.140881
1536.000000	29.280758
1535.000000	29.533732
1534.000000	29.909164
1533.000000	30.330846
1532.000000	30.727942
1531.000000	31.080559
1530.000000	31.419712
1529.000000	31.777373
1528.000000	32.164663
1527.000000	32.590123
1526.000000	33.039288
1525.000000	33.474620
1524.000000	33.898410
1523.000000	34.376991
1522.000000	34.918119
1521.000000	35.403979
1520.000000	35.751786
1519.000000	36.048463
1518.000000	36.435283
1517.000000	36.936017
1516.000000	37.467322
1515.000000	37.972075
1514.000000	38.443456
1513.000000	38.894688
1512.000000	39.327082
1511.000000	39.737567
1510.000000	40.130392
1509.000000	40.570934
1508.000000	41.172626
1507.000000	41.923781
1506.000000	42.640273
1505.000000	43.123447
1504.000000	43.434823
1503.000000	43.747802
1502.000000	44.134275
1501.000000	44.574395
1500.000000	45.056438
1499.000000	45.598573
1498.000000	46.192287
1497.000000	46.785679
1496.000000	47.312821
1495.000000	47.745932
1494.000000	48.087822
1493.000000	48.361290
1492.000000	48.636843
1491.000000	48.988774
1490.000000	49.424013
1489.000000	49.914490
1488.000000	50.437782
1487.000000	50.962786
1486.000000	51.448905
1485.000000	51.829853
1484.000000	52.108454
1483.000000	52.358608
1482.000000	52.600174
1481.000000	52.780376
1480.000000	52.871718
1479.000000	52.918456
1478.000000	52.939875
1477.000000	52.893737
1476.000000	52.723835
1475.000000	52.427505
1474.000000	51.961734
1473.000000	51.186586
1472.000000	50.108151
1471.000000	48.909979
1470.000000	47.633637
1469.000000	46.170372
1468.000000	44.427144
1467.000000	42.322418
1466.000000	39.691768
1465.000000	36.436138
1464.000000	32.884522
1463.000000	29.545045
1462.000000	26.576923
1461.000000	23.869539
1460.000000	21.342469
1459.000000	18.939595
1458.000000	16.492157
1457.000000	14.001312
1456.000000	11.989856
1455.000000	10.765790
1454.000000	10.054959
1453.000000	9.569781
1452.000000	9.257771
1451.000000	9.152000
1450.000000	9.223199
1449.000000	9.440715
1448.000000	9.838743
1447.000000	10.418119
1446.000000	11.087667
1445.000000	11.791392
1444.000000	12.573445
1443.000000	13.466158
1442.000000	14.416439
1441.000000	15.355737
1440.000000	16.282543
1439.000000	17.256039
1438.000000	18.373469
1437.000000	19.703063
1436.000000	21.159817
1435.000000	22.544795
1434.000000	23.790935
1433.000000	25.004111
1432.000000	26.295750
1431.000000	27.675936
1430.000000	29.071023
1429.000000	30.405311
1428.000000	31.616025
1427.000000	32.682668
1426.000000	33.666607
1425.000000	34.650984
1424.000000	35.643967
1423.000000	36.556961
1422.000000	37.326931
1421.000000	38.011456
1420.000000	38.717634
1419.000000	39.457771
1418.000000	40.179407
1417.000000	40.880572
1416.000000	41.587180
1415.000000	42.298629
1414.000000	43.002754
1413.000000	43.709318
1412.000000	44.435817
1411.000000	45.175555
1410.000000	45.903984
1409.000000	46.612191
1408.000000	47.289078
1407.000000	47.932527
1406.000000	48.576844
1405.000000	49.242078
1404.000000	49.882223
1403.000000	50.420402
1402.000000	50.859162
1401.000000	51.284585
1400.000000	51.747642
1399.000000	52.206741
1398.000000	52.618483
1397.000000	53.012663
1396.000000	53.425014
1395.000000	53.838973
1394.000000	54.212815
1393.000000	54.531111
1392.000000	54.799708
1391.000000	55.017140
1390.000000	55.186229
1389.000000	55.318398
1388.000000	55.398858
1387.000000	55.399843
1386.000000	55.354331
1385.000000	55.329532
1384.000000	55.351760
1383.000000	55.392869
1382.000000	55.420110
1381.000000	55.418493
1380.000000	55.358292
1379.000000	55.205316
1378.000000	54.967803
1377.000000	54.696894
1376.000000	54.435050
1375.000000	54.204774
1374.000000	54.019591
1373.000000	53.872501
1372.000000	53.712440
1371.000000	53.494213
1370.000000	53.225339
1369.000000	52.920337
1368.000000	52.566252
1367.000000	52.140841
1366.000000	51.647054
1365.000000	51.100903
1364.000000	50.498537
1363.000000	49.829184
1362.000000	49.121989
1361.000000	48.425361
1360.000000	47.756261
1359.000000	47.128184
1358.000000	46.594850
1357.000000	46.225905
1356.000000	46.060822
1355.000000	46.102381
1354.000000	46.322117
1353.000000	46.659907
1352.000000	47.018135
1351.000000	47.300400
1350.000000	47.447128
1349.000000	47.414779
1348.000000	47.160333
1347.000000	46.656967
1346.000000	45.909003
1345.000000	44.928957
1344.000000	43.726127
1343.000000	42.316087
1342.000000	40.725191
1341.000000	38.967119
1340.000000	37.046343
1339.000000	35.001881
1338.000000	32.894634
1337.000000	30.747213
1336.000000	28.543017
1335.000000	26.283948
1334.000000	24.013400
1333.000000	21.784181
1332.000000	19.644829
1331.000000	17.658258
1330.000000	15.890655
1329.000000	14.368573
1328.000000	13.075508
1327.000000	11.980439
1326.000000	11.042602
1325.000000	10.207876
1324.000000	9.430470
1323.000000	8.701991
1322.000000	8.035771
1321.000000	7.435418
1320.000000	6.906170
1319.000000	6.475752
1318.000000	6.180601
1317.000000	6.037101
1316.000000	6.046036
1315.000000	6.216538
1314.000000	6.554326
1313.000000	7.043321
1312.000000	7.657801
1311.000000	8.380753
1310.000000	9.202886
1309.000000	10.106661
1308.000000	11.069781
1307.000000	12.076007
1306.000000	13.108849
1305.000000	14.144106
1304.000000	15.157622
1303.000000	16.136645
1302.000000	17.076811
1301.000000	17.972024
1300.000000	18.813438
1299.000000	19.594949
1298.000000	20.310397
1297.000000	20.948534
1296.000000	21.505568
1295.000000	22.005071
1294.000000	22.499374
1293.000000	23.048913
1292.000000	23.702888
1291.000000	24.491478
1290.000000	25.423892
1289.000000	26.485645
1288.000000	27.641596
1287.000000	28.849160
1286.000000	30.067944
1285.000000	31.261774
1284.000000	32.397957
1283.000000	33.452953
1282.000000	34.417353
1281.000000	35.289306
1280.000000	36.062246
1279.000000	36.728316
1278.000000	37.290812
1277.000000	37.760467
1276.000000	38.150599
1275.000000	38.485757
1274.000000	38.810505
1273.000000	39.177310
1272.000000	39.623837
1271.000000	40.167659
1270.000000	40.813383
1269.000000	41.550905
1268.000000	42.350932
1267.000000	43.180313
1266.000000	44.021026
1265.000000	44.867452
1264.000000	45.710817
1263.000000	46.538981
1262.000000	47.347855
1261.000000	48.133257
1260.000000	48.872921
1259.000000	49.535824
1258.000000	50.112058
1257.000000	50.614346
1256.000000	51.056472
1255.000000	51.448640
1254.000000	51.804066
1253.000000	52.131221
1252.000000	52.414794
1251.000000	52.626142
1250.000000	52.751588
1249.000000	52.793639
1248.000000	52.757089
1247.000000	52.649094
1246.000000	52.487809
1245.000000	52.290076
1244.000000	52.046785
1243.000000	51.732305
1242.000000	51.330350
1241.000000	50.839199
1240.000000	50.263983
1239.000000	49.620092
1238.000000	48.942422
1237.000000	48.268438
1236.000000	47.614544
1235.000000	46.980126
1234.000000	46.365079
1233.000000	45.772381
1232.000000	45.203490
1231.000000	44.668643
1230.000000	44.194502
1229.000000	43.813012
1228.000000	43.540631
1227.000000	43.376859
1226.000000	43.314970
1225.000000	43.339032
1224.000000	43.425013
1223.000000	43.553796
1222.000000	43.725090
1221.000000	43.953570
1220.000000	44.249249
1219.000000	44.613705
1218.000000	45.042632
1217.000000	45.520213
1216.000000	46.016175
1215.000000	46.499941
1214.000000	46.962867
1213.000000	47.417715
1212.000000	47.881018
1211.000000	48.366042
1210.000000	48.883866
1209.000000	49.434234
1208.000000	49.994290
1207.000000	50.529918
1206.000000	51.021111
1205.000000	51.470162
1204.000000	51.890616
1203.000000	52.303028
1202.000000	52.735788
1201.000000	53.208497
1200.000000	53.711442
1199.000000	54.212172
1198.000000	54.681362
1197.000000	55.104538
1196.000000	55.477239
1195.000000	55.810061
1194.000000	56.136023
1193.000000	56.491396
1192.000000	56.885312
1191.000000	57.296371
1190.000000	57.696146
1189.000000	58.061447
1188.000000	58.372213
1187.000000	58.623692
1186.000000	58.841992
1185.000000	59.069240
1184.000000	59.329229
1183.000000	59.615902
1182.000000	59.908893
1181.000000	60.180676
1180.000000	60.397807
1179.000000	60.541773
1178.000000	60.632060
1177.000000	60.712648
1176.000000	60.815703
1175.000000	60.950068
1174.000000	61.112257
1173.000000	61.283068
1172.000000	61.421826
1171.000000	61.488251
1170.000000	61.477553
1169.000000	61.421324
1168.000000	61.358017
1167.000000	61.318007
1166.000000	61.324449
1165.000000	61.380140
1164.000000	61.452413
1163.000000	61.490652
1162.000000	61.466122
1161.000000	61.384379
1160.000000	61.268749
1159.000000	61.152273
1158.000000	61.076974
1157.000000	61.071657
1156.000000	61.124633
1155.000000	61.192304
1154.000000	61.234899
1153.000000	61.233761
1152.000000	61.185881
1151.000000	61.107357
1150.000000	61.040473
1149.000000	61.030335
1148.000000	61.088937
1147.000000	61.191847
1146.000000	61.304449
1145.000000	61.396971
1144.000000	61.444931
1143.000000	61.444060
1142.000000	61.426406
1141.000000	61.441177
1140.000000	61.515408
1139.000000	61.642163
1138.000000	61.796907
1137.000000	61.946573
1136.000000	62.051118
1135.000000	62.085462
1134.000000	62.066217
1133.000000	62.040949
1132.000000	62.049658
1131.000000	62.107058
1130.000000	62.207726
1129.000000	62.325160
1128.000000	62.408651
1127.000000	62.408650
1126.000000	62.315072
1125.000000	62.158454
1124.000000	61.979839
1123.000000	61.812955
1122.000000	61.680997
1121.000000	61.583062
1120.000000	61.477461
1119.000000	61.303532
1118.000000	61.024241
1117.000000	60.639683
1116.000000	60.171928
1115.000000	59.653568
1114.000000	59.123807
1113.000000	58.606026
1112.000000	58.079730
1111.000000	57.494259
1110.000000	56.802119
1109.000000	55.976767
1108.000000	55.012150
1107.000000	53.922911
1106.000000	52.747389
1105.000000	51.519363
1104.000000	50.238328
1103.000000	48.875240
1102.000000	47.392461
1101.000000	45.761501
1100.000000	43.966515
1099.000000	42.015330
1098.000000	39.944785
1097.000000	37.795503
1096.000000	35.593316
1095.000000	33.348109
1094.000000	31.061876
1093.000000	28.735505
1092.000000	26.379306
1091.000000	24.026761
1090.000000	21.729584
1089.000000	19.540932
1088.000000	17.502669
1087.000000	15.648726
1086.000000	13.994548
1085.000000	12.533390
1084.000000	11.253922
1083.000000	10.144023
1082.000000	9.191575
1081.000000	8.378193
1080.000000	7.688363
1079.000000	7.116007
1078.000000	6.644582
1077.000000	6.248498
1076.000000	5.907450
1075.000000	5.612414
1074.000000	5.356235
1073.000000	5.126456
1072.000000	4.919225
1071.000000	4.741322
1070.000000	4.594726
1069.000000	4.473299
1068.000000	4.374336
1067.000000	4.302724
1066.000000	4.258246
1065.000000	4.232214
1064.000000	4.222978
1063.000000	4.238272
1062.000000	4.281974
1061.000000	4.350118
1060.000000	4.441929
1059.000000	4.562489
1058.000000	4.708978
1057.000000	4.869801
1056.000000	5.040347
1055.000000	5.226710
1054.000000	5.433716
1053.000000	5.660367
1052.000000	5.910426
1051.000000	6.193452
1050.000000	6.509624
1049.000000	6.849227
1048.000000	7.207304
1047.000000	7.588342
1046.000000	7.995929
1045.000000	8.429117
1044.000000	8.893705
1043.000000	9.400825
1042.000000	9.952853
1041.000000	10.540887
1040.000000	11.154900
1039.000000	11.790761
1038.000000	12.445302
1037.000000	13.115941
1036.000000	13.808498
1035.000000	14.533236
1034.000000	15.294035
1033.000000	16.084629
1032.000000	16.894879
1031.000000	17.714552
1030.000000	18.531134
1029.000000	19.334769
1028.000000	20.127249
1027.000000	20.921586
1026.000000	21.730998
1025.000000	22.559891
1024.000000	23.402858
1023.000000	24.247025
1022.000000	25.076015
1021.000000	25.876385
1020.000000	26.644917
1019.000000	27.390758
1018.000000	28.130571
1017.000000	28.880018
1016.000000	29.645071
1015.000000	30.418886
1014.000000	31.184790
1013.000000	31.923959
1012.000000	32.624780
1011.000000	33.289465
1010.000000	33.934519
1009.000000	34.581796
1008.000000	35.245334
1007.000000	35.925624
1006.000000	36.610929
1005.000000	37.281596
1004.000000	37.916550
1003.000000	38.505131
1002.000000	39.056868
1001.000000	39.596043
1000.000000	40.146065
999.000000	40.719454
998.000000	41.315674
997.000000	41.920595
996.000000	42.507709
995.000000	43.052121
994.000000	43.548918
993.000000	44.014546
992.000000	44.472432
991.000000	44.942301
990.000000	45.436943
989.000000	45.956300
988.000000	46.480925
987.000000	46.982692
986.000000	47.444920
985.000000	47.870219
984.000000	48.272311
983.000000	48.669801
982.000000	49.084269
981.000000	49.528422
980.000000	49.991347
979.000000	50.445267
978.000000	50.867643
977.000000	51.252461
976.000000	51.604963
975.000000	51.939283
974.000000	52.280183
973.000000	52.650066
972.000000	53.049475
971.000000	53.456685
970.000000	53.846452
969.000000	54.202472
968.000000	54.516203
967.000000	54.791946
966.000000	55.054195
965.000000	55.334667
964.000000	55.647802
963.000000	55.984993
962.000000	56.328679
961.000000	56.660465
960.000000	56.959377
959.000000	57.212412
958.000000	57.429963
957.000000	57.639304
956.000000	57.860745
955.000000	58.098551
954.000000	58.350788
953.000000	58.609864
952.000000	58.856332
951.000000	59.070426
950.000000	59.253335
949.000000	59.424918
948.000000	59.601720
947.000000	59.788790
946.000000	59.989027
945.000000	60.200530
944.000000	60.406364
943.000000	60.583887
942.000000	60.728656
941.000000	60.856442
940.000000	60.983105
939.000000	61.117630
938.000000	61.269639
937.000000	61.443039
936.000000	61.621210
935.000000	61.775109
934.000000	61.889858
933.000000	61.971412
932.000000	62.030042
931.000000	62.075512
930.000000	62.124990
929.000000	62.194982
928.000000	62.281500
927.000000	62.362309
926.000000	62.421112
925.000000	62.454046
924.000000	62.457968
923.000000	62.430957
922.000000	62.384057
921.000000	62.334832
920.000000	62.286538
919.000000	62.228096
918.000000	62.153364
917.000000	62.063341
916.000000	61.953893
915.000000	61.818436
914.000000	61.662429
913.000000	61.498013
912.000000	61.322325
911.000000	61.119623
910.000000	60.881339
909.000000	60.609785
908.000000	60.305683
907.000000	59.969158
906.000000	59.612875
905.000000	59.253830
904.000000	58.890473
903.000000	58.504395
902.000000	58.080386
901.000000	57.612713
900.000000	57.095170
899.000000	56.523784
898.000000	55.910806
897.000000	55.275914
896.000000	54.625388
895.000000	53.950410
894.000000	53.241619
893.000000	52.493473
892.000000	51.695053
891.000000	50.836438
890.000000	49.923232
889.000000	48.970164
888.000000	47.983861
887.000000	46.959594
886.000000	45.892710
885.000000	44.781174
884.000000	43.618788
883.000000	42.401905
882.000000	41.138811
881.000000	39.844810
880.000000	38.529319
879.000000	37.193374
878.000000	35.836696
877.000000	34.457460
876.000000	33.051130
875.000000	31.617881
874.000000	30.169139
873.000000	28.722491
872.000000	27.293230
871.000000	25.892552
870.000000	24.526686
869.000000	23.195072
868.000000	21.891865
867.000000	20.613275
866.000000	19.363115
865.000000	18.150201
864.000000	16.986704
863.000000	15.883367
862.000000	14.844051
861.000000	13.866481
860.000000	12.947095
859.000000	12.088179
858.000000	11.296230
857.000000	10.581225
856.000000	9.961502
855.000000	9.456168
854.000000	9.075911
853.000000	8.816251
852.000000	8.659927
851.000000	8.581823
850.000000	8.548306
849.000000	8.527851
848.000000	8.502025
847.000000	8.466526
846.000000	8.425109
845.000000	8.385395
844.000000	8.359357
843.000000	8.357645
842.000000	8.382358
841.000000	8.431014
840.000000	8.505229
839.000000	8.611962
838.000000	8.757928
837.000000	8.947253
836.000000	9.184205
835.000000	9.468845
834.000000	9.792725
833.000000	10.143272
832.000000	10.511928
831.000000	10.897918
830.000000	11.305772
829.000000	11.744744
828.000000	12.226087
827.000000	12.754544
826.000000	13.324789
825.000000	13.925905
824.000000	14.546626
823.000000	15.175643
822.000000	15.803451
821.000000	16.429686
820.000000	17.063062
819.000000	17.712240
818.000000	18.378109
817.000000	19.053228
816.000000	19.722734
815.000000	20.367112
814.000000	20.972204
813.000000	21.539861
812.000000	22.086982
811.000000	22.635298
810.000000	23.202997
809.000000	23.799100
808.000000	24.416699
807.000000	25.033398
806.000000	25.624884
805.000000	26.181510
804.000000	26.711570
803.000000	27.234782
802.000000	27.775769
801.000000	28.355033
800.000000	28.974827
799.000000	29.614067
798.000000	30.240850
797.000000	30.830243
796.000000	31.372557
795.000000	31.877901
794.000000	32.378208
793.000000	32.914269
792.000000	33.508347
791.000000	34.148554
790.000000	34.798398
789.000000	35.416352
788.000000	35.969638
787.000000	36.448711
786.000000	36.879539
785.000000	37.312554
784.000000	37.789877
783.000000	38.322703
782.000000	38.893511
781.000000	39.464931
780.000000	39.987330
779.000000	40.421321
778.000000	40.769356
777.000000	41.079360
776.000000	41.411227
775.000000	41.803754
774.000000	42.266414
773.000000	42.778125
772.000000	43.286058
771.000000	43.726871
770.000000	44.070325
769.000000	44.340811
768.000000	44.594972
767.000000	44.888466
766.000000	45.259113
765.000000	45.712405
764.000000	46.206985
763.000000	46.667485
762.000000	47.032188
761.000000	47.290077
760.000000	47.476874
759.000000	47.652536
758.000000	47.882840
757.000000	48.211081
756.000000	48.625195
755.000000	49.056253
754.000000	49.422236
753.000000	49.673441
752.000000	49.807532
751.000000	49.866758
750.000000	49.928451
749.000000	50.070397
748.000000	50.320928
747.000000	50.639873
746.000000	50.949336
745.000000	51.175169
744.000000	51.271986
743.000000	51.243265
742.000000	51.154612
741.000000	51.105336
740.000000	51.165678
739.000000	51.338302
738.000000	51.572254
737.000000	51.793442
736.000000	51.927259
735.000000	51.931244
734.000000	51.833987
733.000000	51.728202
732.000000	51.711580
731.000000	51.835130
730.000000	52.095064
729.000000	52.439433
728.000000	52.775672
727.000000	53.009849
726.000000	53.112065
725.000000	53.140245
724.000000	53.192843
723.000000	53.350630
722.000000	53.653170
721.000000	54.088042
720.000000	54.577991
719.000000	55.006991
718.000000	55.293787
717.000000	55.442669
716.000000	55.524163
715.000000	55.630481
714.000000	55.846373
713.000000	56.215953
712.000000	56.702413
711.000000	57.194073
710.000000	57.575635
709.000000	57.796120
708.000000	57.878775
707.000000	57.901971
706.000000	57.976995
705.000000	58.202146
704.000000	58.596810
703.000000	59.079930
702.000000	59.525419
701.000000	59.835153
700.000000	59.969302
699.000000	59.959155
698.000000	59.911492
697.000000	59.965421
696.000000	60.204186
695.000000	60.604841
694.000000	61.069464
693.000000	61.481486
692.000000	61.738309
691.000000	61.794484
690.000000	61.710575
689.000000	61.635652
688.000000	61.706305
687.000000	61.961861
686.000000	62.355321
685.000000	62.795078
684.000000	63.157562
683.000000	63.328539
682.000000	63.293459
681.000000	63.165396
680.000000	63.096328
679.000000	63.178763
678.000000	63.434894
677.000000	63.825292
676.000000	64.229738
675.000000	64.498914
674.000000	64.559411
673.000000	64.466301
672.000000	64.356381
671.000000	64.368368
670.000000	64.604994
669.000000	65.097147
668.000000	65.677714
667.000000	66.031429
666.000000	66.056891
665.000000	65.875608
664.000000	65.619915
663.000000	65.407227
662.000000	65.351110
661.000000	65.518838
660.000000	65.880557
659.000000	66.314721
658.000000	66.668855
657.000000	66.830429
656.000000	66.772854
655.000000	66.583640
654.000000	66.421926
653.000000	66.422169
652.000000	66.631864
651.000000	67.001919
650.000000	67.406560
649.000000	67.692823
648.000000	67.757686
647.000000	67.611719
646.000000	67.377963
645.000000	67.220662
644.000000	67.256516
643.000000	67.506447
642.000000	67.892159
641.000000	68.266798
640.000000	68.478436
639.000000	68.450998
638.000000	68.231979
637.000000	67.965629
636.000000	67.811751
635.000000	67.871404
634.000000	68.147346
633.000000	68.540011
632.000000	68.886423
631.000000	69.041409
630.000000	68.961071
629.000000	68.722731
628.000000	68.473095
627.000000	68.359005
626.000000	68.467885
625.000000	68.781137
624.000000	69.168737
623.000000	69.454846
622.000000	69.525227
621.000000	69.387987
620.000000	69.148107
619.000000	68.948030
618.000000	68.913442
617.000000	69.096749
616.000000	69.436438
615.000000	69.781685
614.000000	69.980057
613.000000	69.961656
612.000000	69.764378
611.000000	69.511911
610.000000	69.365034
609.000000	69.442442
608.000000	69.746545
607.000000	70.157389
606.000000	70.504533
605.000000	70.653648
604.000000	70.556805
603.000000	70.272785
602.000000	69.958059
601.000000	69.792183
600.000000	69.870659
599.000000	70.150921
598.000000	70.490576
597.000000	70.725134
596.000000	70.732123
595.000000	70.486281
594.000000	70.097987
593.000000	69.766661
592.000000	69.662228
591.000000	69.835594
590.000000	70.212510
589.000000	70.642533
588.000000	70.961234
587.000000	71.061174
586.000000	70.956301
585.000000	70.774651
584.000000	70.666845
583.000000	70.724683
582.000000	70.963619
581.000000	71.321978
580.000000	71.661824
579.000000	71.827152
578.000000	71.756956
577.000000	71.531852
576.000000	71.310695
575.000000	71.234704
574.000000	71.367647
573.000000	71.676462
572.000000	72.039513
571.000000	72.295094
570.000000	72.334608
569.000000	72.166427
568.000000	71.890187
567.000000	71.642085
566.000000	71.550980
565.000000	71.681509
564.000000	71.980910
563.000000	72.299768
562.000000	72.485124
561.000000	72.465308
560.000000	72.262314
559.000000	71.971398
558.000000	71.736401
557.000000	71.685734
556.000000	71.848492
555.000000	72.134521
554.000000	72.400326
553.000000	72.531189
552.000000	72.478630
551.000000	72.278256
550.000000	72.052363
549.000000	71.949310
548.000000	72.046226
547.000000	72.313457
546.000000	72.651476
545.000000	72.940038
544.000000	73.069496
543.000000	72.993190
542.000000	72.781845
541.000000	72.593275
540.000000	72.556733
539.000000	72.702156
538.000000	72.977318
537.000000	73.286257
536.000000	73.508460
535.000000	73.548472
534.000000	73.410817
533.000000	73.208005
532.000000	73.073222
531.000000	73.080489
530.000000	73.233577
529.000000	73.476746
528.000000	73.704305
527.000000	73.807475
526.000000	73.755058
525.000000	73.608961
524.000000	73.451195
523.000000	73.334901
522.000000	73.300823
521.000000	73.368489
520.000000	73.485509
519.000000	73.534351
518.000000	73.427879
517.000000	73.178044
516.000000	72.851934
515.000000	72.512223
514.000000	72.213907
513.000000	71.992498
512.000000	71.816944
511.000000	71.583239
510.000000	71.188302
509.000000	70.597216
508.000000	69.838447
507.000000	68.990927
506.000000	68.177712
505.000000	67.500127
504.000000	66.969541
503.000000	66.531651
502.000000	66.139786
501.000000	65.768694
500.000000	65.386938
499.000000	64.983690
498.000000	64.636735
497.000000	64.481608
496.000000	64.598949
495.000000	64.963318
494.000000	65.498614
493.000000	66.137582
492.000000	66.803778
491.000000	67.413654
490.000000	67.938599
489.000000	68.424741
488.000000	68.927487
487.000000	69.460326
486.000000	70.015276
485.000000	70.569374
484.000000	71.051052
483.000000	71.355503
482.000000	71.447570
481.000000	71.402704
480.000000	71.321712
479.000000	71.262502
478.000000	71.254655
477.000000	71.308673
476.000000	71.380983
475.000000	71.390576
474.000000	71.320141
473.000000	71.264283
472.000000	71.334226
471.000000	71.549352
470.000000	71.875584
469.000000	72.299568
468.000000	72.791279
467.000000	73.249545
466.000000	73.561171
465.000000	73.702679
464.000000	73.725277
463.000000	73.696041
462.000000	73.696976
461.000000	73.800974
460.000000	73.998338
459.000000	74.207779
458.000000	74.378471
457.000000	74.516065
456.000000	74.593981
455.000000	74.561282
454.000000	74.454451
453.000000	74.409486
452.000000	74.530374
451.000000	74.771599
450.000000	75.017590
449.000000	75.216084
448.000000	75.354194
447.000000	75.399077
446.000000	75.357697
445.000000	75.334716
444.000000	75.438262
443.000000	75.673501
442.000000	75.974612
441.000000	76.283838
440.000000	76.532001
439.000000	76.627858
438.000000	76.561116
437.000000	76.466711
436.000000	76.494082
435.000000	76.656924
434.000000	76.888792
433.000000	77.159612
432.000000	77.425370
431.000000	77.570415
430.000000	77.533948
429.000000	77.407281
428.000000	77.299292
427.000000	77.222585
426.000000	77.181303
425.000000	77.248233
424.000000	77.453619
423.000000	77.684872
422.000000	77.797146
421.000000	77.717523
420.000000	77.431457
419.000000	77.078262
418.000000	76.947043
417.000000	77.154852
416.000000	77.554518
415.000000	77.916242
414.000000	78.097493
413.000000	78.143792
412.000000	78.131795
411.000000	78.029704
410.000000	77.870612
409.000000	77.852189
408.000000	78.060694
407.000000	78.320990
406.000000	78.467795
405.000000	78.543480
404.000000	78.580958
403.000000	78.459865
402.000000	78.182094
401.000000	78.008521
400.000000	78.069252
