PE IR       SUBTECH     SPECTRUM    ASCII       PEDS        4.00        
   -1
23MS145_nitrito.asc
24/08/30
17:17:24.00
24/08/30
17:17:24.00
Administrator
Sample 1072 By Administrator Date Friday, August 30 2024
400.000000
#HDR
-1
-1
#GR
cm-1
%T
1.0
0.0
4000.000000
-1.000000
3601
8
94.677722
27.589694
#DATA
4000.000000	84.945755
3999.000000	84.979792
3998.000000	85.009721
3997.000000	85.035039
3996.000000	85.057111
3995.000000	85.078931
3994.000000	85.104135
3993.000000	85.135762
3992.000000	85.174802
3991.000000	85.218850
3990.000000	85.262329
3989.000000	85.299461
3988.000000	85.328288
3987.000000	85.351442
3986.000000	85.373247
3985.000000	85.396820
3984.000000	85.423856
3983.000000	85.455329
3982.000000	85.490859
3981.000000	85.527877
3980.000000	85.562158
3979.000000	85.590310
3978.000000	85.612077
3977.000000	85.630065
3976.000000	85.647981
3975.000000	85.669059
3974.000000	85.695931
3973.000000	85.730121
3972.000000	85.770507
3971.000000	85.813244
3970.000000	85.852777
3969.000000	85.883866
3968.000000	85.904303
3967.000000	85.916583
3966.000000	85.926996
3965.000000	85.942773
3964.000000	85.968686
3963.000000	86.004241
3962.000000	86.044101
3961.000000	86.080779
3960.000000	86.108324
3959.000000	86.126206
3958.000000	86.138451
3957.000000	86.149862
3956.000000	86.164365
3955.000000	86.185795
3954.000000	86.217554
3953.000000	86.259807
3952.000000	86.307752
3951.000000	86.353583
3950.000000	86.389516
3949.000000	86.411107
3948.000000	86.420905
3947.000000	86.427436
3946.000000	86.440626
3945.000000	86.468278
3944.000000	86.512438
3943.000000	86.564218
3942.000000	86.607102
3941.000000	86.630470
3940.000000	86.638004
3939.000000	86.643334
3938.000000	86.656479
3937.000000	86.676570
3936.000000	86.698851
3935.000000	86.725159
3934.000000	86.764314
3933.000000	86.818733
3932.000000	86.876405
3931.000000	86.920600
3930.000000	86.944557
3929.000000	86.956710
3928.000000	86.970379
3927.000000	86.993951
3926.000000	87.029678
3925.000000	87.072369
3924.000000	87.109410
3923.000000	87.130623
3922.000000	87.138442
3921.000000	87.144363
3920.000000	87.155554
3919.000000	87.169716
3918.000000	87.185021
3917.000000	87.207128
3916.000000	87.240616
3915.000000	87.280809
3914.000000	87.321313
3913.000000	87.361432
3912.000000	87.400075
3911.000000	87.432258
3910.000000	87.454048
3909.000000	87.470163
3908.000000	87.491277
3907.000000	87.523287
3906.000000	87.562266
3905.000000	87.598893
3904.000000	87.623870
3903.000000	87.634662
3902.000000	87.638376
3901.000000	87.647589
3900.000000	87.671099
3899.000000	87.703632
3898.000000	87.732026
3897.000000	87.754887
3896.000000	87.783750
3895.000000	87.828603
3894.000000	87.884548
3893.000000	87.935268
3892.000000	87.966123
3891.000000	87.976493
3890.000000	87.971998
3889.000000	87.957449
3888.000000	87.946564
3887.000000	87.965692
3886.000000	88.025431
3885.000000	88.096608
3884.000000	88.139074
3883.000000	88.150431
3882.000000	88.160316
3881.000000	88.186312
3880.000000	88.213968
3879.000000	88.223517
3878.000000	88.219238
3877.000000	88.225723
3876.000000	88.265473
3875.000000	88.338855
3874.000000	88.414901
3873.000000	88.452293
3872.000000	88.441538
3871.000000	88.420790
3870.000000	88.432454
3869.000000	88.470523
3868.000000	88.497744
3867.000000	88.506352
3866.000000	88.529369
3865.000000	88.584832
3864.000000	88.638381
3863.000000	88.651004
3862.000000	88.632199
3861.000000	88.619532
3860.000000	88.635829
3859.000000	88.684221
3858.000000	88.758388
3857.000000	88.843394
3856.000000	88.915015
3855.000000	88.960245
3854.000000	88.987926
3853.000000	89.002889
3852.000000	89.001948
3851.000000	88.991977
3850.000000	88.987237
3849.000000	88.997331
3848.000000	89.015818
3847.000000	89.030941
3846.000000	89.042103
3845.000000	89.056378
3844.000000	89.077109
3843.000000	89.103983
3842.000000	89.132872
3841.000000	89.162090
3840.000000	89.195230
3839.000000	89.234095
3838.000000	89.274116
3837.000000	89.310712
3836.000000	89.342047
3835.000000	89.367049
3834.000000	89.383905
3833.000000	89.395402
3832.000000	89.408220
3831.000000	89.424246
3830.000000	89.441486
3829.000000	89.460894
3828.000000	89.486474
3827.000000	89.522524
3826.000000	89.562357
3825.000000	89.587382
3824.000000	89.587549
3823.000000	89.584601
3822.000000	89.615391
3821.000000	89.681496
3820.000000	89.740525
3819.000000	89.763126
3818.000000	89.764450
3817.000000	89.780913
3816.000000	89.826814
3815.000000	89.873380
3814.000000	89.890724
3813.000000	89.889865
3812.000000	89.901922
3811.000000	89.934660
3810.000000	89.967803
3809.000000	89.982923
3808.000000	89.991002
3807.000000	90.016389
3806.000000	90.056924
3805.000000	90.088598
3804.000000	90.103060
3803.000000	90.123837
3802.000000	90.173461
3801.000000	90.233943
3800.000000	90.267588
3799.000000	90.272153
3798.000000	90.277772
3797.000000	90.303260
3796.000000	90.336271
3795.000000	90.354232
3794.000000	90.356090
3793.000000	90.361526
3792.000000	90.384227
3791.000000	90.417724
3790.000000	90.448425
3789.000000	90.472314
3788.000000	90.494955
3787.000000	90.520377
3786.000000	90.547371
3785.000000	90.573620
3784.000000	90.597824
3783.000000	90.618551
3782.000000	90.638469
3781.000000	90.665806
3780.000000	90.703490
3779.000000	90.740997
3778.000000	90.765242
3777.000000	90.776545
3776.000000	90.787987
3775.000000	90.811778
3774.000000	90.844910
3773.000000	90.872013
3772.000000	90.886316
3771.000000	90.901274
3770.000000	90.927662
3769.000000	90.955565
3768.000000	90.973277
3767.000000	90.987941
3766.000000	91.016071
3765.000000	91.058666
3764.000000	91.096456
3763.000000	91.114771
3762.000000	91.124587
3761.000000	91.150354
3760.000000	91.193935
3759.000000	91.231370
3758.000000	91.252924
3757.000000	91.274137
3756.000000	91.303791
3755.000000	91.333028
3754.000000	91.355908
3753.000000	91.380811
3752.000000	91.409890
3751.000000	91.429174
3750.000000	91.442591
3749.000000	91.475281
3748.000000	91.523899
3747.000000	91.556790
3746.000000	91.567290
3745.000000	91.590238
3744.000000	91.640937
3743.000000	91.685123
3742.000000	91.699688
3741.000000	91.703101
3740.000000	91.714240
3739.000000	91.723220
3738.000000	91.721279
3737.000000	91.734766
3736.000000	91.792747
3735.000000	91.869867
3734.000000	91.914629
3733.000000	91.923014
3732.000000	91.928832
3731.000000	91.946803
3730.000000	91.963505
3729.000000	91.969247
3728.000000	91.978727
3727.000000	92.011546
3726.000000	92.061090
3725.000000	92.101502
3724.000000	92.125161
3723.000000	92.145942
3722.000000	92.169838
3721.000000	92.191271
3720.000000	92.207229
3719.000000	92.222560
3718.000000	92.245812
3717.000000	92.279146
3716.000000	92.312751
3715.000000	92.336210
3714.000000	92.351704
3713.000000	92.370492
3712.000000	92.394957
3711.000000	92.415976
3710.000000	92.433740
3709.000000	92.458916
3708.000000	92.495857
3707.000000	92.539098
3706.000000	92.578569
3705.000000	92.607858
3704.000000	92.628390
3703.000000	92.646252
3702.000000	92.663704
3701.000000	92.678775
3700.000000	92.691505
3699.000000	92.704898
3698.000000	92.725419
3697.000000	92.758073
3696.000000	92.794056
3695.000000	92.816730
3694.000000	92.825200
3693.000000	92.838988
3692.000000	92.872137
3691.000000	92.913532
3690.000000	92.941077
3689.000000	92.952467
3688.000000	92.966839
3687.000000	92.992480
3686.000000	93.017648
3685.000000	93.033629
3684.000000	93.041620
3683.000000	93.042444
3682.000000	93.037457
3681.000000	93.037127
3680.000000	93.055337
3679.000000	93.083391
3678.000000	93.093930
3677.000000	93.087385
3676.000000	93.098606
3675.000000	93.134395
3674.000000	93.158782
3673.000000	93.149764
3672.000000	93.126624
3671.000000	93.130020
3670.000000	93.165753
3669.000000	93.193269
3668.000000	93.192562
3667.000000	93.182546
3666.000000	93.176892
3665.000000	93.172729
3664.000000	93.162911
3663.000000	93.147760
3662.000000	93.135414
3661.000000	93.130585
3660.000000	93.128129
3659.000000	93.117573
3658.000000	93.095874
3657.000000	93.073259
3656.000000	93.060003
3655.000000	93.052119
3654.000000	93.036903
3653.000000	93.011282
3652.000000	92.989781
3651.000000	92.985632
3650.000000	92.984754
3649.000000	92.961947
3648.000000	92.929570
3647.000000	92.914433
3646.000000	92.910369
3645.000000	92.895669
3644.000000	92.866759
3643.000000	92.836396
3642.000000	92.812153
3641.000000	92.788076
3640.000000	92.757820
3639.000000	92.725827
3638.000000	92.695929
3637.000000	92.661096
3636.000000	92.614681
3635.000000	92.566716
3634.000000	92.532207
3633.000000	92.506365
3632.000000	92.468485
3631.000000	92.413494
3630.000000	92.366828
3629.000000	92.346481
3628.000000	92.331141
3627.000000	92.303199
3626.000000	92.270635
3625.000000	92.245023
3624.000000	92.227106
3623.000000	92.208104
3622.000000	92.180288
3621.000000	92.148018
3620.000000	92.117519
3619.000000	92.081952
3618.000000	92.032814
3617.000000	91.974232
3616.000000	91.915067
3615.000000	91.862985
3614.000000	91.819948
3613.000000	91.777965
3612.000000	91.727660
3611.000000	91.671360
3610.000000	91.624042
3609.000000	91.599516
3608.000000	91.590958
3607.000000	91.577519
3606.000000	91.549769
3605.000000	91.514695
3604.000000	91.482746
3603.000000	91.456387
3602.000000	91.429957
3601.000000	91.398758
3600.000000	91.360858
3599.000000	91.314354
3598.000000	91.262499
3597.000000	91.212766
3596.000000	91.169802
3595.000000	91.132414
3594.000000	91.095107
3593.000000	91.053054
3592.000000	91.005498
3591.000000	90.954227
3590.000000	90.906720
3589.000000	90.875110
3588.000000	90.859489
3587.000000	90.840917
3586.000000	90.805778
3585.000000	90.761300
3584.000000	90.720554
3583.000000	90.686687
3582.000000	90.653449
3581.000000	90.614443
3580.000000	90.569244
3579.000000	90.521384
3578.000000	90.474278
3577.000000	90.429623
3576.000000	90.387370
3575.000000	90.346409
3574.000000	90.305540
3573.000000	90.263032
3572.000000	90.217102
3571.000000	90.165427
3570.000000	90.108229
3569.000000	90.055053
3568.000000	90.016453
3567.000000	89.987019
3566.000000	89.951271
3565.000000	89.906182
3564.000000	89.859881
3563.000000	89.818263
3562.000000	89.778345
3561.000000	89.732917
3560.000000	89.678920
3559.000000	89.619756
3558.000000	89.561431
3557.000000	89.508253
3556.000000	89.461479
3555.000000	89.418958
3554.000000	89.376293
3553.000000	89.328372
3552.000000	89.271845
3551.000000	89.207637
3550.000000	89.141090
3549.000000	89.081294
3548.000000	89.035416
3547.000000	89.000395
3546.000000	88.962971
3545.000000	88.912445
3544.000000	88.850226
3543.000000	88.785041
3542.000000	88.723501
3541.000000	88.668128
3540.000000	88.620283
3539.000000	88.579326
3538.000000	88.540833
3537.000000	88.498003
3536.000000	88.446487
3535.000000	88.387894
3534.000000	88.328027
3533.000000	88.273630
3532.000000	88.228284
3531.000000	88.190315
3530.000000	88.153766
3529.000000	88.113727
3528.000000	88.069983
3527.000000	88.024730
3526.000000	87.979151
3525.000000	87.933535
3524.000000	87.888046
3523.000000	87.841904
3522.000000	87.794694
3521.000000	87.748720
3520.000000	87.707755
3519.000000	87.671487
3518.000000	87.634225
3517.000000	87.590563
3516.000000	87.540580
3515.000000	87.488618
3514.000000	87.438076
3513.000000	87.390331
3512.000000	87.346950
3511.000000	87.308248
3510.000000	87.269417
3509.000000	87.223136
3508.000000	87.166770
3507.000000	87.105012
3506.000000	87.045458
3505.000000	86.992988
3504.000000	86.946508
3503.000000	86.900341
3502.000000	86.850042
3501.000000	86.796475
3500.000000	86.743143
3499.000000	86.689666
3498.000000	86.631032
3497.000000	86.563386
3496.000000	86.488994
3495.000000	86.414698
3494.000000	86.346785
3493.000000	86.287935
3492.000000	86.237214
3491.000000	86.190143
3490.000000	86.139376
3489.000000	86.078369
3488.000000	86.005022
3487.000000	85.921773
3486.000000	85.834645
3485.000000	85.752711
3484.000000	85.684926
3483.000000	85.633441
3482.000000	85.589573
3481.000000	85.539345
3480.000000	85.473204
3479.000000	85.390438
3478.000000	85.296699
3477.000000	85.200211
3476.000000	85.108967
3475.000000	85.027993
3474.000000	84.958778
3473.000000	84.900230
3472.000000	84.848308
3471.000000	84.794630
3470.000000	84.728240
3469.000000	84.642149
3468.000000	84.538668
3467.000000	84.427381
3466.000000	84.319574
3465.000000	84.224443
3464.000000	84.146593
3463.000000	84.082748
3462.000000	84.021503
3461.000000	83.949792
3460.000000	83.860785
3459.000000	83.756084
3458.000000	83.642699
3457.000000	83.529381
3456.000000	83.424281
3455.000000	83.331784
3454.000000	83.250365
3453.000000	83.174334
3452.000000	83.096570
3451.000000	83.010301
3450.000000	82.910825
3449.000000	82.798055
3448.000000	82.677237
3447.000000	82.555813
3446.000000	82.440253
3445.000000	82.335287
3444.000000	82.242123
3443.000000	82.155281
3442.000000	82.063795
3441.000000	81.958590
3440.000000	81.838712
3439.000000	81.709554
3438.000000	81.577009
3437.000000	81.445050
3436.000000	81.317093
3435.000000	81.195426
3434.000000	81.078547
3433.000000	80.961285
3432.000000	80.836608
3431.000000	80.698076
3430.000000	80.542926
3429.000000	80.375225
3428.000000	80.205157
3427.000000	80.042695
3426.000000	79.892089
3425.000000	79.751522
3424.000000	79.615272
3423.000000	79.474836
3422.000000	79.320774
3421.000000	79.147627
3420.000000	78.957936
3419.000000	78.760468
3418.000000	78.564966
3417.000000	78.378396
3416.000000	78.202704
3415.000000	78.033045
3414.000000	77.859222
3413.000000	77.671948
3412.000000	77.467900
3411.000000	77.248988
3410.000000	77.019129
3409.000000	76.783384
3408.000000	76.548214
3407.000000	76.319014
3406.000000	76.097294
3405.000000	75.880347
3404.000000	75.662003
3403.000000	75.433306
3402.000000	75.185233
3401.000000	74.914406
3400.000000	74.626309
3399.000000	74.331630
3398.000000	74.039633
3397.000000	73.754545
3396.000000	73.475426
3395.000000	73.196770
3394.000000	72.909535
3393.000000	72.604735
3392.000000	72.278208
3391.000000	71.932786
3390.000000	71.577288
3389.000000	71.221980
3388.000000	70.872597
3387.000000	70.526995
3386.000000	70.177924
3385.000000	69.819348
3384.000000	69.448408
3383.000000	69.063470
3382.000000	68.663800
3381.000000	68.251913
3380.000000	67.833377
3379.000000	67.412576
3378.000000	66.990231
3377.000000	66.565061
3376.000000	66.135011
3375.000000	65.696868
3374.000000	65.247426
3373.000000	64.786115
3372.000000	64.314897
3371.000000	63.834722
3370.000000	63.345425
3369.000000	62.848445
3368.000000	62.346711
3367.000000	61.841182
3366.000000	61.329865
3365.000000	60.811192
3364.000000	60.285047
3363.000000	59.750433
3362.000000	59.205905
3361.000000	58.653036
3360.000000	58.096647
3359.000000	57.540378
3358.000000	56.984074
3357.000000	56.426136
3356.000000	55.864860
3355.000000	55.297790
3354.000000	54.722765
3353.000000	54.140320
3352.000000	53.552935
3351.000000	52.962191
3350.000000	52.369502
3349.000000	51.778593
3348.000000	51.193034
3347.000000	50.611335
3346.000000	50.028140
3345.000000	49.440601
3344.000000	48.850201
3343.000000	48.259028
3342.000000	47.668293
3341.000000	47.080280
3340.000000	46.497628
3339.000000	45.920366
3338.000000	45.347165
3337.000000	44.779019
3336.000000	44.218048
3335.000000	43.663242
3334.000000	43.111591
3333.000000	42.563258
3332.000000	42.021232
3331.000000	41.486818
3330.000000	40.959467
3329.000000	40.440158
3328.000000	39.930982
3327.000000	39.431330
3326.000000	38.939363
3325.000000	38.456415
3324.000000	37.985218
3323.000000	37.525192
3322.000000	37.073626
3321.000000	36.630950
3320.000000	36.200506
3319.000000	35.782891
3318.000000	35.376375
3317.000000	34.981137
3316.000000	34.598809
3315.000000	34.228448
3314.000000	33.867162
3313.000000	33.514665
3312.000000	33.172499
3311.000000	32.839723
3310.000000	32.514791
3309.000000	32.199969
3308.000000	31.899991
3307.000000	31.616615
3306.000000	31.348690
3305.000000	31.096886
3304.000000	30.862018
3303.000000	30.640966
3302.000000	30.428694
3301.000000	30.223746
3300.000000	30.027829
3299.000000	29.840738
3298.000000	29.661100
3297.000000	29.490834
3296.000000	29.333172
3295.000000	29.187675
3294.000000	29.051220
3293.000000	28.923452
3292.000000	28.806822
3291.000000	28.701415
3290.000000	28.605359
3289.000000	28.518290
3288.000000	28.440650
3287.000000	28.370536
3286.000000	28.305201
3285.000000	28.245307
3284.000000	28.192687
3283.000000	28.145963
3282.000000	28.102553
3281.000000	28.063172
3280.000000	28.030404
3279.000000	28.003839
3278.000000	27.981288
3277.000000	27.963236
3276.000000	27.951256
3275.000000	27.943654
3274.000000	27.937021
3273.000000	27.931194
3272.000000	27.928835
3271.000000	27.931323
3270.000000	27.939121
3269.000000	27.954046
3268.000000	27.976636
3267.000000	28.003079
3266.000000	28.028745
3265.000000	28.053441
3264.000000	28.079402
3263.000000	28.106134
3262.000000	28.131904
3261.000000	28.157868
3260.000000	28.186412
3259.000000	28.216997
3258.000000	28.247910
3257.000000	28.280526
3256.000000	28.317147
3255.000000	28.356409
3254.000000	28.395015
3253.000000	28.432517
3252.000000	28.470177
3251.000000	28.507077
3250.000000	28.541732
3249.000000	28.576070
3248.000000	28.613559
3247.000000	28.654633
3246.000000	28.697534
3245.000000	28.741738
3244.000000	28.786863
3243.000000	28.830316
3242.000000	28.870281
3241.000000	28.909056
3240.000000	28.949813
3239.000000	28.991814
3238.000000	29.032562
3237.000000	29.072165
3236.000000	29.111699
3235.000000	29.149706
3234.000000	29.184760
3233.000000	29.219368
3232.000000	29.256768
3231.000000	29.295859
3230.000000	29.333410
3229.000000	29.369266
3228.000000	29.405104
3227.000000	29.440041
3226.000000	29.471868
3225.000000	29.501068
3224.000000	29.529285
3223.000000	29.555686
3222.000000	29.578688
3221.000000	29.599539
3220.000000	29.620348
3219.000000	29.640274
3218.000000	29.657521
3217.000000	29.672889
3216.000000	29.687526
3215.000000	29.699395
3214.000000	29.705881
3213.000000	29.708192
3212.000000	29.709063
3211.000000	29.708153
3210.000000	29.703704
3209.000000	29.696488
3208.000000	29.688257
3207.000000	29.678065
3206.000000	29.663949
3205.000000	29.646588
3204.000000	29.627392
3203.000000	29.605322
3202.000000	29.579276
3201.000000	29.551318
3200.000000	29.523820
3199.000000	29.495166
3198.000000	29.462291
3197.000000	29.425242
3196.000000	29.385517
3195.000000	29.342359
3194.000000	29.294638
3193.000000	29.244405
3192.000000	29.194665
3191.000000	29.145312
3190.000000	29.095030
3189.000000	29.044698
3188.000000	28.995209
3187.000000	28.944200
3186.000000	28.888868
3185.000000	28.830226
3184.000000	28.771122
3183.000000	28.712342
3182.000000	28.654116
3181.000000	28.598745
3180.000000	28.547688
3179.000000	28.498204
3178.000000	28.446638
3177.000000	28.392970
3176.000000	28.338801
3175.000000	28.283679
3174.000000	28.227271
3173.000000	28.172531
3172.000000	28.122604
3171.000000	28.076839
3170.000000	28.033272
3169.000000	27.992368
3168.000000	27.954714
3167.000000	27.917727
3166.000000	27.878907
3165.000000	27.839945
3164.000000	27.803979
3163.000000	27.771443
3162.000000	27.741971
3161.000000	27.717634
3160.000000	27.699923
3159.000000	27.685967
3158.000000	27.671693
3157.000000	27.656252
3156.000000	27.640308
3155.000000	27.623085
3154.000000	27.605286
3153.000000	27.592298
3152.000000	27.589694
3151.000000	27.597591
3150.000000	27.612378
3149.000000	27.631416
3148.000000	27.652715
3147.000000	27.673057
3146.000000	27.690996
3145.000000	27.709563
3144.000000	27.732297
3143.000000	27.759027
3142.000000	27.788507
3141.000000	27.822481
3140.000000	27.863323
3139.000000	27.910070
3138.000000	27.960478
3137.000000	28.014201
3136.000000	28.070822
3135.000000	28.127778
3134.000000	28.183667
3133.000000	28.241386
3132.000000	28.304345
3131.000000	28.372461
3130.000000	28.444740
3129.000000	28.522231
3128.000000	28.604964
3127.000000	28.689167
3126.000000	28.771509
3125.000000	28.853454
3124.000000	28.937772
3123.000000	29.024113
3122.000000	29.111743
3121.000000	29.203350
3120.000000	29.301800
3119.000000	29.405421
3118.000000	29.510658
3117.000000	29.617016
3116.000000	29.725905
3115.000000	29.837247
3114.000000	29.950608
3113.000000	30.067372
3112.000000	30.188169
3111.000000	30.310640
3110.000000	30.433046
3109.000000	30.557419
3108.000000	30.685984
3107.000000	30.817126
3106.000000	30.948149
3105.000000	31.079536
3104.000000	31.213062
3103.000000	31.348318
3102.000000	31.484563
3101.000000	31.623366
3100.000000	31.766294
3099.000000	31.911887
3098.000000	32.057974
3097.000000	32.204532
3096.000000	32.351632
3095.000000	32.497486
3094.000000	32.641488
3093.000000	32.786597
3092.000000	32.935797
3091.000000	33.088606
3090.000000	33.243595
3089.000000	33.401222
3088.000000	33.561264
3087.000000	33.720647
3086.000000	33.877265
3085.000000	34.033557
3084.000000	34.193089
3083.000000	34.355856
3082.000000	34.519977
3081.000000	34.685259
3080.000000	34.852158
3079.000000	35.019613
3078.000000	35.186956
3077.000000	35.355772
3076.000000	35.527038
3075.000000	35.698823
3074.000000	35.869324
3073.000000	36.039811
3072.000000	36.211896
3071.000000	36.384386
3070.000000	36.555641
3069.000000	36.726610
3068.000000	36.898894
3067.000000	37.072080
3066.000000	37.245482
3065.000000	37.420226
3064.000000	37.597065
3063.000000	37.774463
3062.000000	37.951146
3061.000000	38.128036
3060.000000	38.305463
3059.000000	38.481158
3058.000000	38.653433
3057.000000	38.823868
3056.000000	38.994462
3055.000000	39.164794
3054.000000	39.334302
3053.000000	39.504785
3052.000000	39.677897
3051.000000	39.852554
3050.000000	40.027186
3049.000000	40.201955
3048.000000	40.376500
3047.000000	40.548249
3046.000000	40.715812
3045.000000	40.881635
3044.000000	41.048809
3043.000000	41.217588
3042.000000	41.387422
3041.000000	41.559464
3040.000000	41.734151
3039.000000	41.908461
3038.000000	42.078692
3037.000000	42.244232
3036.000000	42.406574
3035.000000	42.566927
3034.000000	42.727051
3033.000000	42.889851
3032.000000	43.056248
3031.000000	43.223579
3030.000000	43.389428
3029.000000	43.554654
3028.000000	43.720274
3027.000000	43.884128
3026.000000	44.043838
3025.000000	44.200850
3024.000000	44.358450
3023.000000	44.517399
3022.000000	44.676265
3021.000000	44.834289
3020.000000	44.991289
3019.000000	45.146088
3018.000000	45.297811
3017.000000	45.447399
3016.000000	45.596002
3015.000000	45.743438
3014.000000	45.890209
3013.000000	46.039184
3012.000000	46.192881
3011.000000	46.350644
3010.000000	46.510200
3009.000000	46.670186
3008.000000	46.829221
3007.000000	46.984733
3006.000000	47.135199
3005.000000	47.282146
3004.000000	47.428073
3003.000000	47.573794
3002.000000	47.719433
3001.000000	47.865820
3000.000000	48.012965
2999.000000	48.158923
2998.000000	48.302331
2997.000000	48.444289
2996.000000	48.586015
2995.000000	48.726725
2994.000000	48.866022
2993.000000	49.006541
2992.000000	49.151571
2991.000000	49.301308
2990.000000	49.453203
2989.000000	49.604510
2988.000000	49.752726
2987.000000	49.895612
2986.000000	50.033179
2985.000000	50.168542
2984.000000	50.304979
2983.000000	50.443365
2982.000000	50.583731
2981.000000	50.727089
2980.000000	50.873510
2979.000000	51.020066
2978.000000	51.163169
2977.000000	51.301987
2976.000000	51.438220
2975.000000	51.574147
2974.000000	51.712621
2973.000000	51.856859
2972.000000	52.007843
2971.000000	52.162867
2970.000000	52.318363
2969.000000	52.472779
2968.000000	52.625372
2967.000000	52.774469
2966.000000	52.919404
2965.000000	53.062649
2964.000000	53.207722
2963.000000	53.355838
2962.000000	53.506124
2961.000000	53.657149
2960.000000	53.806088
2959.000000	53.948432
2958.000000	54.080988
2957.000000	54.204327
2956.000000	54.320507
2955.000000	54.430268
2954.000000	54.534640
2953.000000	54.637124
2952.000000	54.741557
2951.000000	54.848434
2950.000000	54.955669
2949.000000	55.061936
2948.000000	55.167644
2947.000000	55.274077
2946.000000	55.383556
2945.000000	55.499468
2944.000000	55.623960
2943.000000	55.756138
2942.000000	55.893577
2941.000000	56.034323
2940.000000	56.176399
2939.000000	56.317400
2938.000000	56.456975
2937.000000	56.598373
2936.000000	56.745799
2935.000000	56.901314
2934.000000	57.065507
2933.000000	57.238980
2932.000000	57.420787
2931.000000	57.607205
2930.000000	57.795084
2929.000000	57.985792
2928.000000	58.184070
2927.000000	58.394294
2926.000000	58.619568
2925.000000	58.862934
2924.000000	59.126047
2923.000000	59.407140
2922.000000	59.701385
2921.000000	60.001846
2920.000000	60.296790
2919.000000	60.565573
2918.000000	60.780462
2917.000000	60.913790
2916.000000	60.948182
2915.000000	60.884737
2914.000000	60.746154
2913.000000	60.570332
2912.000000	60.395741
2911.000000	60.248058
2910.000000	60.137276
2909.000000	60.063768
2908.000000	60.023774
2907.000000	60.012354
2906.000000	60.024538
2905.000000	60.055936
2904.000000	60.101536
2903.000000	60.154965
2902.000000	60.210174
2901.000000	60.264532
2900.000000	60.317342
2899.000000	60.368922
2898.000000	60.420112
2897.000000	60.472286
2896.000000	60.526163
2895.000000	60.581262
2894.000000	60.637213
2893.000000	60.694288
2892.000000	60.751340
2891.000000	60.804805
2890.000000	60.851697
2889.000000	60.892806
2888.000000	60.931490
2887.000000	60.970426
2886.000000	61.010786
2885.000000	61.053156
2884.000000	61.096865
2883.000000	61.139036
2882.000000	61.176261
2881.000000	61.207191
2880.000000	61.232688
2879.000000	61.254846
2878.000000	61.277364
2877.000000	61.305438
2876.000000	61.342380
2875.000000	61.386180
2874.000000	61.431228
2873.000000	61.473437
2872.000000	61.512855
2871.000000	61.552414
2870.000000	61.596108
2869.000000	61.648341
2868.000000	61.712861
2867.000000	61.791594
2866.000000	61.885088
2865.000000	61.993334
2864.000000	62.115151
2863.000000	62.247395
2862.000000	62.386290
2861.000000	62.529888
2860.000000	62.678881
2859.000000	62.836303
2858.000000	63.007660
2857.000000	63.200519
2856.000000	63.422687
2855.000000	63.680633
2854.000000	63.978559
2853.000000	64.313793
2852.000000	64.667354
2851.000000	64.996431
2850.000000	65.243291
2849.000000	65.360377
2848.000000	65.336250
2847.000000	65.202663
2846.000000	65.016898
2845.000000	64.833715
2844.000000	64.686709
2843.000000	64.586046
2842.000000	64.527580
2841.000000	64.502892
2840.000000	64.503144
2839.000000	64.520526
2838.000000	64.550241
2837.000000	64.590571
2836.000000	64.639990
2835.000000	64.695031
2834.000000	64.751744
2833.000000	64.808330
2832.000000	64.865122
2831.000000	64.922565
2830.000000	64.980836
2829.000000	65.040579
2828.000000	65.102399
2827.000000	65.165774
2826.000000	65.229400
2825.000000	65.292413
2824.000000	65.354515
2823.000000	65.415534
2822.000000	65.475855
2821.000000	65.536735
2820.000000	65.599188
2819.000000	65.662963
2818.000000	65.727328
2817.000000	65.792098
2816.000000	65.856961
2815.000000	65.920659
2814.000000	65.982128
2813.000000	66.041950
2812.000000	66.101610
2811.000000	66.161838
2810.000000	66.222680
2809.000000	66.284457
2808.000000	66.347310
2807.000000	66.410209
2806.000000	66.471695
2805.000000	66.531492
2804.000000	66.590509
2803.000000	66.649715
2802.000000	66.709877
2801.000000	66.771731
2800.000000	66.835178
2799.000000	66.898681
2798.000000	66.960496
2797.000000	67.020178
2796.000000	67.078079
2795.000000	67.134150
2794.000000	67.188495
2793.000000	67.242514
2792.000000	67.298001
2791.000000	67.355188
2790.000000	67.412719
2789.000000	67.469282
2788.000000	67.524154
2787.000000	67.576648
2786.000000	67.626525
2785.000000	67.675023
2784.000000	67.724307
2783.000000	67.775752
2782.000000	67.829400
2781.000000	67.884691
2780.000000	67.940526
2779.000000	67.994826
2778.000000	68.045394
2777.000000	68.091603
2776.000000	68.134765
2775.000000	68.177018
2774.000000	68.220460
2773.000000	68.266757
2772.000000	68.316240
2771.000000	68.367276
2770.000000	68.417308
2769.000000	68.464588
2768.000000	68.508619
2767.000000	68.549760
2766.000000	68.589498
2765.000000	68.630678
2764.000000	68.675999
2763.000000	68.725957
2762.000000	68.778776
2761.000000	68.831964
2760.000000	68.883102
2759.000000	68.929844
2758.000000	68.970863
2757.000000	69.007234
2756.000000	69.042123
2755.000000	69.078879
2754.000000	69.119636
2753.000000	69.164925
2752.000000	69.213305
2751.000000	69.261492
2750.000000	69.306005
2749.000000	69.345177
2748.000000	69.379514
2747.000000	69.410896
2746.000000	69.442251
2745.000000	69.477149
2744.000000	69.517974
2743.000000	69.564080
2742.000000	69.612284
2741.000000	69.658974
2740.000000	69.701244
2739.000000	69.737112
2738.000000	69.766485
2737.000000	69.792075
2736.000000	69.818167
2735.000000	69.848046
2734.000000	69.882783
2733.000000	69.921686
2732.000000	69.962529
2731.000000	70.001731
2730.000000	70.036004
2729.000000	70.064474
2728.000000	70.088774
2727.000000	70.111573
2726.000000	70.135803
2725.000000	70.164381
2724.000000	70.198687
2723.000000	70.236965
2722.000000	70.275319
2721.000000	70.310518
2720.000000	70.341266
2719.000000	70.367441
2718.000000	70.389869
2717.000000	70.411031
2716.000000	70.434378
2715.000000	70.462128
2714.000000	70.494165
2713.000000	70.528820
2712.000000	70.563644
2711.000000	70.595617
2710.000000	70.622269
2709.000000	70.643417
2708.000000	70.661247
2707.000000	70.678632
2706.000000	70.697783
2705.000000	70.720002
2704.000000	70.745082
2703.000000	70.770662
2702.000000	70.793334
2701.000000	70.810820
2700.000000	70.822809
2699.000000	70.830078
2698.000000	70.834001
2697.000000	70.836847
2696.000000	70.840973
2695.000000	70.847270
2694.000000	70.854943
2693.000000	70.862648
2692.000000	70.869018
2691.000000	70.872393
2690.000000	70.871650
2689.000000	70.867659
2688.000000	70.862849
2687.000000	70.859171
2686.000000	70.857176
2685.000000	70.856812
2684.000000	70.857695
2683.000000	70.858420
2682.000000	70.857015
2681.000000	70.852528
2680.000000	70.845459
2679.000000	70.836722
2678.000000	70.827294
2677.000000	70.818818
2676.000000	70.813088
2675.000000	70.810499
2674.000000	70.809964
2673.000000	70.810641
2672.000000	70.812791
2671.000000	70.817061
2670.000000	70.824111
2669.000000	70.835090
2668.000000	70.851455
2667.000000	70.873698
2666.000000	70.901255
2665.000000	70.933839
2664.000000	70.971634
2663.000000	71.014319
2662.000000	71.060646
2661.000000	71.109506
2660.000000	71.160600
2659.000000	71.213628
2658.000000	71.267970
2657.000000	71.323297
2656.000000	71.379732
2655.000000	71.437205
2654.000000	71.495206
2653.000000	71.553388
2652.000000	71.611547
2651.000000	71.668888
2650.000000	71.724169
2649.000000	71.776788
2648.000000	71.826986
2647.000000	71.874965
2646.000000	71.920712
2645.000000	71.964705
2644.000000	72.007893
2643.000000	72.050573
2642.000000	72.092126
2641.000000	72.131980
2640.000000	72.169742
2639.000000	72.204493
2638.000000	72.235026
2637.000000	72.261395
2636.000000	72.285463
2635.000000	72.309382
2634.000000	72.334298
2633.000000	72.360462
2632.000000	72.387468
2631.000000	72.413955
2630.000000	72.437807
2629.000000	72.457456
2628.000000	72.472687
2627.000000	72.484309
2626.000000	72.493985
2625.000000	72.504244
2624.000000	72.517443
2623.000000	72.533975
2622.000000	72.551858
2621.000000	72.568255
2620.000000	72.580817
2619.000000	72.588130
2618.000000	72.590343
2617.000000	72.589838
2616.000000	72.590354
2615.000000	72.594754
2614.000000	72.603774
2613.000000	72.616368
2612.000000	72.629923
2611.000000	72.640385
2610.000000	72.643742
2609.000000	72.638493
2608.000000	72.626393
2607.000000	72.610785
2606.000000	72.595058
2605.000000	72.581954
2604.000000	72.572414
2603.000000	72.564296
2602.000000	72.552987
2601.000000	72.534299
2600.000000	72.506462
2599.000000	72.470152
2598.000000	72.428381
2597.000000	72.386545
2596.000000	72.350911
2595.000000	72.325712
2594.000000	72.311716
2593.000000	72.307133
2592.000000	72.309020
2591.000000	72.313983
2590.000000	72.319746
2589.000000	72.327377
2588.000000	72.341045
2587.000000	72.365870
2586.000000	72.405529
2585.000000	72.461239
2584.000000	72.531175
2583.000000	72.609732
2582.000000	72.689445
2581.000000	72.764568
2580.000000	72.833318
2579.000000	72.897578
2578.000000	72.961372
2577.000000	73.029793
2576.000000	73.106950
2575.000000	73.193346
2574.000000	73.285318
2573.000000	73.377214
2572.000000	73.463849
2571.000000	73.541729
2570.000000	73.610145
2569.000000	73.672301
2568.000000	73.734346
2567.000000	73.801989
2566.000000	73.877628
2565.000000	73.960102
2564.000000	74.045482
2563.000000	74.127963
2562.000000	74.201769
2561.000000	74.264184
2560.000000	74.317132
2559.000000	74.365644
2558.000000	74.415344
2557.000000	74.470798
2556.000000	74.534019
2555.000000	74.603089
2554.000000	74.672523
2553.000000	74.736177
2552.000000	74.790075
2551.000000	74.833289
2550.000000	74.868134
2549.000000	74.900034
2548.000000	74.935580
2547.000000	74.978811
2546.000000	75.028936
2545.000000	75.081642
2544.000000	75.131289
2543.000000	75.172382
2542.000000	75.201268
2541.000000	75.218275
2540.000000	75.228084
2539.000000	75.236659
2538.000000	75.248011
2537.000000	75.263215
2536.000000	75.280212
2535.000000	75.293873
2534.000000	75.297241
2533.000000	75.285133
2532.000000	75.257011
2531.000000	75.216316
2530.000000	75.168639
2529.000000	75.120303
2528.000000	75.076677
2527.000000	75.039861
2526.000000	75.007833
2525.000000	74.976912
2524.000000	74.944642
2523.000000	74.910948
2522.000000	74.878246
2521.000000	74.851857
2520.000000	74.838485
2519.000000	74.842900
2518.000000	74.865752
2517.000000	74.903831
2516.000000	74.952114
2515.000000	75.004662
2514.000000	75.056194
2513.000000	75.104722
2512.000000	75.152228
2511.000000	75.202873
2510.000000	75.260181
2509.000000	75.325717
2508.000000	75.398515
2507.000000	75.474406
2506.000000	75.547206
2505.000000	75.611903
2504.000000	75.667069
2503.000000	75.714405
2502.000000	75.757373
2501.000000	75.800432
2500.000000	75.847684
2499.000000	75.900331
2498.000000	75.955473
2497.000000	76.008343
2496.000000	76.054991
2495.000000	76.093225
2494.000000	76.122943
2493.000000	76.146894
2492.000000	76.170272
2491.000000	76.197705
2490.000000	76.230580
2489.000000	76.267269
2488.000000	76.304536
2487.000000	76.338436
2486.000000	76.365396
2485.000000	76.384438
2484.000000	76.398183
2483.000000	76.411002
2482.000000	76.426607
2481.000000	76.447303
2480.000000	76.473497
2479.000000	76.502652
2478.000000	76.529668
2477.000000	76.550050
2476.000000	76.562732
2475.000000	76.569898
2474.000000	76.575398
2473.000000	76.583757
2472.000000	76.598797
2471.000000	76.621168
2470.000000	76.647393
2469.000000	76.672274
2468.000000	76.691753
2467.000000	76.703950
2466.000000	76.709391
2465.000000	76.711647
2464.000000	76.716364
2463.000000	76.727905
2462.000000	76.746824
2461.000000	76.770506
2460.000000	76.794869
2459.000000	76.815209
2458.000000	76.827582
2457.000000	76.831603
2456.000000	76.831362
2455.000000	76.832693
2454.000000	76.839935
2453.000000	76.855166
2452.000000	76.878128
2451.000000	76.905239
2450.000000	76.930057
2449.000000	76.946977
2448.000000	76.954607
2447.000000	76.955696
2446.000000	76.955080
2445.000000	76.958408
2444.000000	76.970533
2443.000000	76.992632
2442.000000	77.020810
2441.000000	77.048497
2440.000000	77.069859
2439.000000	77.081505
2438.000000	77.083366
2437.000000	77.079765
2436.000000	77.078241
2435.000000	77.085360
2434.000000	77.103124
2433.000000	77.129116
2432.000000	77.158183
2431.000000	77.183575
2430.000000	77.199038
2429.000000	77.202710
2428.000000	77.198945
2427.000000	77.195608
2426.000000	77.199804
2425.000000	77.215798
2424.000000	77.243938
2423.000000	77.279519
2422.000000	77.314024
2421.000000	77.339783
2420.000000	77.353849
2419.000000	77.357883
2418.000000	77.356410
2417.000000	77.356109
2416.000000	77.364066
2415.000000	77.383853
2414.000000	77.413173
2413.000000	77.445971
2412.000000	77.475785
2411.000000	77.497203
2410.000000	77.507089
2409.000000	77.507207
2408.000000	77.504594
2407.000000	77.507444
2406.000000	77.520473
2405.000000	77.544021
2404.000000	77.574979
2403.000000	77.607106
2402.000000	77.632665
2401.000000	77.646887
2400.000000	77.651078
2399.000000	77.650984
2398.000000	77.653185
2397.000000	77.663412
2396.000000	77.685210
2395.000000	77.717426
2394.000000	77.753736
2393.000000	77.786564
2392.000000	77.811198
2391.000000	77.826551
2390.000000	77.834791
2389.000000	77.841635
2388.000000	77.855311
2387.000000	77.881685
2386.000000	77.920696
2385.000000	77.968403
2384.000000	78.019007
2383.000000	78.066875
2382.000000	78.107162
2381.000000	78.139199
2380.000000	78.168300
2379.000000	78.200663
2378.000000	78.240167
2377.000000	78.288165
2376.000000	78.343946
2375.000000	78.402197
2374.000000	78.454575
2373.000000	78.496108
2372.000000	78.529091
2371.000000	78.558824
2370.000000	78.587808
2369.000000	78.619775
2368.000000	78.660607
2367.000000	78.711915
2366.000000	78.767789
2365.000000	78.820407
2364.000000	78.868737
2363.000000	78.908618
2362.000000	78.936000
2361.000000	78.959061
2360.000000	78.987369
2359.000000	79.028501
2358.000000	79.079562
2357.000000	79.131205
2356.000000	79.181092
2355.000000	79.219724
2354.000000	79.248995
2353.000000	79.274748
2352.000000	79.311114
2351.000000	79.362791
2350.000000	79.412501
2349.000000	79.449091
2348.000000	79.476302
2347.000000	79.517954
2346.000000	79.584189
2345.000000	79.649922
2344.000000	79.694950
2343.000000	79.710898
2342.000000	79.719769
2341.000000	79.735212
2340.000000	79.762188
2339.000000	79.801867
2338.000000	79.850996
2337.000000	79.906863
2336.000000	79.959798
2335.000000	80.007261
2334.000000	80.045575
2333.000000	80.080972
2332.000000	80.111481
2331.000000	80.149282
2330.000000	80.189086
2329.000000	80.241650
2328.000000	80.294304
2327.000000	80.346961
2326.000000	80.391358
2325.000000	80.426564
2324.000000	80.456189
2323.000000	80.482094
2322.000000	80.509737
2321.000000	80.540440
2320.000000	80.575313
2319.000000	80.616322
2318.000000	80.657575
2317.000000	80.699308
2316.000000	80.734468
2315.000000	80.769693
2314.000000	80.800728
2313.000000	80.834773
2312.000000	80.867812
2311.000000	80.907615
2310.000000	80.948987
2309.000000	80.993143
2308.000000	81.032113
2307.000000	81.067508
2306.000000	81.096313
2305.000000	81.123195
2304.000000	81.149743
2303.000000	81.182563
2302.000000	81.220045
2301.000000	81.262303
2300.000000	81.303778
2299.000000	81.344742
2298.000000	81.380213
2297.000000	81.410814
2296.000000	81.436401
2295.000000	81.463134
2294.000000	81.493146
2293.000000	81.527840
2292.000000	81.565712
2291.000000	81.605293
2290.000000	81.642909
2289.000000	81.674624
2288.000000	81.699986
2287.000000	81.721919
2286.000000	81.744929
2285.000000	81.771752
2284.000000	81.804847
2283.000000	81.843973
2282.000000	81.885850
2281.000000	81.924633
2280.000000	81.956728
2279.000000	81.981883
2278.000000	82.002184
2277.000000	82.021362
2276.000000	82.044308
2275.000000	82.074938
2274.000000	82.112138
2273.000000	82.151045
2272.000000	82.186254
2271.000000	82.214370
2270.000000	82.233672
2269.000000	82.245497
2268.000000	82.255331
2267.000000	82.270278
2266.000000	82.294001
2265.000000	82.325657
2264.000000	82.361667
2263.000000	82.396900
2262.000000	82.424932
2261.000000	82.440756
2260.000000	82.445321
2259.000000	82.444511
2258.000000	82.445532
2257.000000	82.453743
2256.000000	82.472360
2255.000000	82.500565
2254.000000	82.531730
2253.000000	82.556746
2252.000000	82.569310
2251.000000	82.568842
2250.000000	82.558452
2249.000000	82.544634
2248.000000	82.535325
2247.000000	82.537484
2246.000000	82.551426
2245.000000	82.571075
2244.000000	82.588108
2243.000000	82.595072
2242.000000	82.586817
2241.000000	82.563276
2240.000000	82.531507
2239.000000	82.502189
2238.000000	82.483206
2237.000000	82.476667
2236.000000	82.480105
2235.000000	82.487123
2234.000000	82.488144
2233.000000	82.474720
2232.000000	82.445107
2231.000000	82.404765
2230.000000	82.362157
2229.000000	82.325560
2228.000000	82.301573
2227.000000	82.292116
2226.000000	82.291754
2225.000000	82.290208
2224.000000	82.278512
2223.000000	82.252545
2222.000000	82.213040
2221.000000	82.165729
2220.000000	82.120795
2219.000000	82.088283
2218.000000	82.072217
2217.000000	82.069389
2216.000000	82.072545
2215.000000	82.072998
2214.000000	82.062529
2213.000000	82.037310
2212.000000	82.001439
2211.000000	81.964716
2210.000000	81.936545
2209.000000	81.922349
2208.000000	81.923202
2207.000000	81.935115
2206.000000	81.949007
2205.000000	81.954959
2204.000000	81.948266
2203.000000	81.930910
2202.000000	81.908752
2201.000000	81.889394
2200.000000	81.880893
2199.000000	81.887986
2198.000000	81.908275
2197.000000	81.933603
2196.000000	81.955379
2195.000000	81.967786
2194.000000	81.968416
2193.000000	81.959632
2192.000000	81.949251
2191.000000	81.946435
2190.000000	81.955720
2189.000000	81.975506
2188.000000	82.000779
2187.000000	82.024942
2186.000000	82.040744
2185.000000	82.043708
2184.000000	82.035893
2183.000000	82.024459
2182.000000	82.016499
2181.000000	82.016266
2180.000000	82.025284
2179.000000	82.041378
2178.000000	82.057908
2177.000000	82.067143
2176.000000	82.065577
2175.000000	82.055027
2174.000000	82.040023
2173.000000	82.026299
2172.000000	82.020047
2171.000000	82.024453
2170.000000	82.036390
2169.000000	82.048460
2168.000000	82.054448
2167.000000	82.051590
2166.000000	82.039947
2165.000000	82.023059
2164.000000	82.008463
2163.000000	82.003672
2162.000000	82.010705
2161.000000	82.025625
2160.000000	82.042264
2159.000000	82.054410
2158.000000	82.056563
2157.000000	82.046979
2156.000000	82.030618
2155.000000	82.016435
2154.000000	82.011421
2153.000000	82.018054
2152.000000	82.035227
2151.000000	82.057861
2150.000000	82.076765
2149.000000	82.083046
2148.000000	82.074254
2147.000000	82.055008
2146.000000	82.033181
2145.000000	82.017380
2144.000000	82.015484
2143.000000	82.030185
2142.000000	82.055138
2141.000000	82.078064
2140.000000	82.088723
2139.000000	82.082948
2138.000000	82.062045
2137.000000	82.032611
2136.000000	82.006330
2135.000000	81.994872
2134.000000	82.002689
2133.000000	82.025283
2132.000000	82.052989
2131.000000	82.074561
2130.000000	82.079883
2129.000000	82.064904
2128.000000	82.035848
2127.000000	82.006153
2126.000000	81.988508
2125.000000	81.989931
2124.000000	82.011141
2123.000000	82.045483
2122.000000	82.079090
2121.000000	82.097199
2120.000000	82.093110
2119.000000	82.070768
2118.000000	82.040646
2117.000000	82.015737
2116.000000	82.008787
2115.000000	82.026729
2114.000000	82.065378
2113.000000	82.111155
2112.000000	82.149138
2111.000000	82.169102
2110.000000	82.167757
2109.000000	82.150698
2108.000000	82.132795
2107.000000	82.131571
2106.000000	82.157428
2105.000000	82.209426
2104.000000	82.278132
2103.000000	82.349164
2102.000000	82.406731
2101.000000	82.440524
2100.000000	82.452591
2099.000000	82.456153
2098.000000	82.467647
2097.000000	82.499836
2096.000000	82.559191
2095.000000	82.642484
2094.000000	82.735335
2093.000000	82.818000
2092.000000	82.876176
2091.000000	82.906539
2090.000000	82.915665
2089.000000	82.917653
2088.000000	82.930743
2087.000000	82.968864
2086.000000	83.032749
2085.000000	83.109659
2084.000000	83.181351
2083.000000	83.231876
2082.000000	83.251453
2081.000000	83.240520
2080.000000	83.212213
2079.000000	83.186980
2078.000000	83.181584
2077.000000	83.201718
2076.000000	83.242157
2075.000000	83.288616
2074.000000	83.321635
2073.000000	83.325208
2072.000000	83.295947
2071.000000	83.244788
2070.000000	83.190473
2069.000000	83.152384
2068.000000	83.144277
2067.000000	83.167548
2066.000000	83.208370
2065.000000	83.244843
2064.000000	83.259695
2063.000000	83.246814
2062.000000	83.210354
2061.000000	83.163410
2060.000000	83.126125
2059.000000	83.117412
2058.000000	83.144443
2057.000000	83.199728
2056.000000	83.266764
2055.000000	83.326272
2054.000000	83.361573
2053.000000	83.366288
2052.000000	83.349816
2051.000000	83.333105
2050.000000	83.336879
2049.000000	83.373401
2048.000000	83.444353
2047.000000	83.539672
2046.000000	83.638856
2045.000000	83.720120
2044.000000	83.772229
2043.000000	83.797999
2042.000000	83.810360
2041.000000	83.828413
2040.000000	83.872454
2039.000000	83.954006
2038.000000	84.067635
2037.000000	84.193814
2036.000000	84.310489
2035.000000	84.401999
2034.000000	84.462575
2033.000000	84.499275
2032.000000	84.531914
2031.000000	84.583512
2030.000000	84.667537
2029.000000	84.783052
2028.000000	84.918182
2027.000000	85.054172
2026.000000	85.169478
2025.000000	85.250133
2024.000000	85.298496
2023.000000	85.332274
2022.000000	85.373778
2021.000000	85.441007
2020.000000	85.542344
2019.000000	85.671250
2018.000000	85.805725
2017.000000	85.919504
2016.000000	85.997555
2015.000000	86.040698
2014.000000	86.060424
2013.000000	86.075314
2012.000000	86.107662
2011.000000	86.172891
2010.000000	86.269533
2009.000000	86.381274
2008.000000	86.487192
2007.000000	86.569147
2006.000000	86.615704
2005.000000	86.629326
2004.000000	86.628439
2003.000000	86.638355
2002.000000	86.675790
2001.000000	86.743629
2000.000000	86.834694
1999.000000	86.931774
1998.000000	87.012239
1997.000000	87.059921
1996.000000	87.076069
1995.000000	87.074530
1994.000000	87.071070
1993.000000	87.081117
1992.000000	87.120038
1991.000000	87.192295
1990.000000	87.280605
1989.000000	87.355772
1988.000000	87.398399
1987.000000	87.405832
1986.000000	87.385476
1985.000000	87.353295
1984.000000	87.334364
1983.000000	87.351574
1982.000000	87.408250
1981.000000	87.487989
1980.000000	87.569340
1979.000000	87.632132
1978.000000	87.659061
1977.000000	87.643753
1976.000000	87.602445
1975.000000	87.565871
1974.000000	87.558061
1973.000000	87.587439
1972.000000	87.652430
1971.000000	87.740756
1970.000000	87.824535
1969.000000	87.871919
1968.000000	87.869622
1967.000000	87.829767
1966.000000	87.777100
1965.000000	87.737194
1964.000000	87.732947
1963.000000	87.776094
1962.000000	87.854063
1961.000000	87.934801
1960.000000	87.989128
1959.000000	88.003872
1958.000000	87.978278
1957.000000	87.923320
1956.000000	87.866408
1955.000000	87.840085
1954.000000	87.859719
1953.000000	87.916987
1952.000000	87.991865
1951.000000	88.062765
1950.000000	88.104434
1949.000000	88.099042
1948.000000	88.054709
1947.000000	88.002140
1946.000000	87.969615
1945.000000	87.968707
1944.000000	88.001717
1943.000000	88.064485
1942.000000	88.136622
1941.000000	88.185594
1940.000000	88.188856
1939.000000	88.147671
1938.000000	88.080097
1937.000000	88.010787
1936.000000	87.966865
1935.000000	87.968712
1934.000000	88.016196
1933.000000	88.086554
1932.000000	88.149292
1931.000000	88.182786
1930.000000	88.173584
1929.000000	88.122612
1928.000000	88.051946
1927.000000	87.996633
1926.000000	87.983349
1925.000000	88.012723
1924.000000	88.072259
1923.000000	88.143211
1922.000000	88.199488
1921.000000	88.211663
1920.000000	88.164948
1919.000000	88.076635
1918.000000	87.987955
1917.000000	87.932546
1916.000000	87.918695
1915.000000	87.938824
1914.000000	87.982929
1913.000000	88.034330
1912.000000	88.068573
1911.000000	88.065762
1910.000000	88.020426
1909.000000	87.946229
1908.000000	87.868776
1907.000000	87.814539
1906.000000	87.801392
1905.000000	87.825977
1904.000000	87.870144
1903.000000	87.909315
1902.000000	87.921627
1901.000000	87.897558
1900.000000	87.844886
1899.000000	87.784854
1898.000000	87.741443
1897.000000	87.727024
1896.000000	87.743027
1895.000000	87.783750
1894.000000	87.835909
1893.000000	87.877566
1892.000000	87.887160
1891.000000	87.859001
1890.000000	87.806962
1889.000000	87.755928
1888.000000	87.727089
1887.000000	87.727208
1886.000000	87.751746
1885.000000	87.789709
1884.000000	87.824974
1883.000000	87.841810
1882.000000	87.831174
1881.000000	87.796381
1880.000000	87.750833
1879.000000	87.710818
1878.000000	87.690618
1877.000000	87.695121
1876.000000	87.718231
1875.000000	87.750828
1874.000000	87.783415
1873.000000	87.805034
1872.000000	87.804977
1871.000000	87.780138
1870.000000	87.743227
1869.000000	87.716010
1868.000000	87.708656
1867.000000	87.712709
1866.000000	87.714436
1865.000000	87.706743
1864.000000	87.690079
1863.000000	87.664751
1862.000000	87.628659
1861.000000	87.585443
1860.000000	87.546094
1859.000000	87.519715
1858.000000	87.507852
1857.000000	87.507055
1856.000000	87.510124
1855.000000	87.508347
1854.000000	87.492700
1853.000000	87.462362
1852.000000	87.427806
1851.000000	87.397315
1850.000000	87.380833
1849.000000	87.386437
1848.000000	87.413466
1847.000000	87.442521
1846.000000	87.444654
1845.000000	87.410981
1844.000000	87.365175
1843.000000	87.324407
1842.000000	87.273675
1841.000000	87.205908
1840.000000	87.142155
1839.000000	87.105423
1838.000000	87.091942
1837.000000	87.074707
1836.000000	87.043426
1835.000000	87.011404
1834.000000	86.986928
1833.000000	86.959709
1832.000000	86.920515
1831.000000	86.877905
1830.000000	86.850601
1829.000000	86.838818
1828.000000	86.823498
1827.000000	86.783475
1826.000000	86.717588
1825.000000	86.647958
1824.000000	86.593385
1823.000000	86.549957
1822.000000	86.502835
1821.000000	86.453218
1820.000000	86.413387
1819.000000	86.383339
1818.000000	86.348827
1817.000000	86.301923
1816.000000	86.255322
1815.000000	86.217801
1814.000000	86.182137
1813.000000	86.142493
1812.000000	86.102404
1811.000000	86.067408
1810.000000	86.032587
1809.000000	85.992341
1808.000000	85.947800
1807.000000	85.900276
1806.000000	85.851546
1805.000000	85.807142
1804.000000	85.773059
1803.000000	85.742379
1802.000000	85.700158
1801.000000	85.648604
1800.000000	85.601496
1799.000000	85.567844
1798.000000	85.541563
1797.000000	85.518374
1796.000000	85.500228
1795.000000	85.479325
1794.000000	85.438227
1793.000000	85.379865
1792.000000	85.325942
1791.000000	85.281750
1790.000000	85.230807
1789.000000	85.167279
1788.000000	85.100211
1787.000000	85.038373
1786.000000	84.985125
1785.000000	84.947299
1784.000000	84.932778
1783.000000	84.927333
1782.000000	84.902667
1781.000000	84.855263
1780.000000	84.799369
1779.000000	84.751357
1778.000000	84.710155
1777.000000	84.683668
1776.000000	84.694941
1775.000000	84.736993
1774.000000	84.759173
1773.000000	84.724353
1772.000000	84.654737
1771.000000	84.579833
1770.000000	84.491693
1769.000000	84.376825
1768.000000	84.265687
1767.000000	84.200903
1766.000000	84.176652
1765.000000	84.156447
1764.000000	84.120573
1763.000000	84.075124
1762.000000	84.027533
1761.000000	83.978214
1760.000000	83.923362
1759.000000	83.859987
1758.000000	83.779942
1757.000000	83.699441
1756.000000	83.658342
1755.000000	83.668790
1754.000000	83.688794
1753.000000	83.668511
1752.000000	83.604786
1751.000000	83.536369
1750.000000	83.473902
1749.000000	83.389498
1748.000000	83.299355
1747.000000	83.238178
1746.000000	83.198272
1745.000000	83.144995
1744.000000	83.071440
1743.000000	82.996407
1742.000000	82.910305
1741.000000	82.787155
1740.000000	82.656041
1739.000000	82.588175
1738.000000	82.592827
1737.000000	82.617699
1736.000000	82.600961
1735.000000	82.522421
1734.000000	82.422034
1733.000000	82.297028
1732.000000	82.099444
1731.000000	81.853043
1730.000000	81.620363
1729.000000	81.428330
1728.000000	81.278200
1727.000000	81.158835
1726.000000	81.046020
1725.000000	80.913459
1724.000000	80.757063
1723.000000	80.607156
1722.000000	80.484150
1721.000000	80.387933
1720.000000	80.313397
1719.000000	80.252843
1718.000000	80.174544
1717.000000	80.027460
1716.000000	79.788960
1715.000000	79.490627
1714.000000	79.194673
1713.000000	78.936764
1712.000000	78.713253
1711.000000	78.512114
1710.000000	78.328536
1709.000000	78.160375
1708.000000	77.994301
1707.000000	77.809671
1706.000000	77.607406
1705.000000	77.425465
1704.000000	77.300789
1703.000000	77.200237
1702.000000	77.019765
1701.000000	76.743379
1700.000000	76.542393
1699.000000	76.469645
1698.000000	76.376384
1697.000000	76.150281
1696.000000	75.795595
1695.000000	75.415841
1694.000000	75.065936
1693.000000	74.734671
1692.000000	74.434107
1691.000000	74.173492
1690.000000	73.944496
1689.000000	73.760460
1688.000000	73.655116
1687.000000	73.607073
1686.000000	73.496712
1685.000000	73.199039
1684.000000	72.761567
1683.000000	72.347602
1682.000000	72.002107
1681.000000	71.673402
1680.000000	71.361935
1679.000000	71.095944
1678.000000	70.863283
1677.000000	70.597426
1676.000000	70.267976
1675.000000	69.942919
1674.000000	69.679880
1673.000000	69.442161
1672.000000	69.183412
1671.000000	68.899234
1670.000000	68.587408
1669.000000	68.252757
1668.000000	67.927950
1667.000000	67.645019
1666.000000	67.393442
1665.000000	67.129613
1664.000000	66.828769
1663.000000	66.519703
1662.000000	66.233115
1661.000000	65.961688
1660.000000	65.689002
1659.000000	65.434322
1658.000000	65.231852
1657.000000	65.108918
1656.000000	65.058042
1655.000000	65.004270
1654.000000	64.816636
1653.000000	64.469931
1652.000000	64.109020
1651.000000	63.764110
1650.000000	63.417978
1649.000000	63.114056
1648.000000	62.828651
1647.000000	62.524572
1646.000000	62.222180
1645.000000	61.942024
1644.000000	61.667273
1643.000000	61.403807
1642.000000	61.163748
1641.000000	60.943529
1640.000000	60.749027
1639.000000	60.600499
1638.000000	60.479267
1637.000000	60.310836
1636.000000	60.053208
1635.000000	59.780333
1634.000000	59.562664
1633.000000	59.363898
1632.000000	59.164617
1631.000000	58.978334
1630.000000	58.804640
1629.000000	58.630108
1628.000000	58.462280
1627.000000	58.328889
1626.000000	58.230933
1625.000000	58.131876
1624.000000	58.007448
1623.000000	57.880364
1622.000000	57.780610
1621.000000	57.710629
1620.000000	57.671525
1619.000000	57.670108
1618.000000	57.680647
1617.000000	57.652434
1616.000000	57.570813
1615.000000	57.469703
1614.000000	57.382966
1613.000000	57.317835
1612.000000	57.270308
1611.000000	57.242528
1610.000000	57.237108
1609.000000	57.243037
1608.000000	57.255520
1607.000000	57.290765
1606.000000	57.355660
1605.000000	57.431232
1604.000000	57.495933
1603.000000	57.550292
1602.000000	57.599152
1601.000000	57.635812
1600.000000	57.664606
1599.000000	57.711196
1598.000000	57.793130
1597.000000	57.898263
1596.000000	58.006478
1595.000000	58.112634
1594.000000	58.212704
1593.000000	58.290589
1592.000000	58.338239
1591.000000	58.373133
1590.000000	58.418537
1589.000000	58.480997
1588.000000	58.560242
1587.000000	58.664001
1586.000000	58.790010
1585.000000	58.912693
1584.000000	59.008013
1583.000000	59.075617
1582.000000	59.132375
1581.000000	59.194287
1580.000000	59.285881
1579.000000	59.436219
1578.000000	59.640997
1577.000000	59.835845
1576.000000	59.951896
1575.000000	59.982076
1574.000000	59.958416
1573.000000	59.919276
1572.000000	59.888812
1571.000000	59.875584
1570.000000	59.892052
1569.000000	59.941984
1568.000000	60.016745
1567.000000	60.108493
1566.000000	60.212874
1565.000000	60.323625
1564.000000	60.449602
1563.000000	60.615293
1562.000000	60.820180
1561.000000	60.988362
1560.000000	61.081872
1559.000000	61.165976
1558.000000	61.295835
1557.000000	61.430625
1556.000000	61.501588
1555.000000	61.546485
1554.000000	61.599675
1553.000000	61.654959
1552.000000	61.702986
1551.000000	61.772917
1550.000000	61.904868
1549.000000	62.103404
1548.000000	62.350338
1547.000000	62.629179
1546.000000	62.938943
1545.000000	63.267631
1544.000000	63.583073
1543.000000	63.868972
1542.000000	64.147925
1541.000000	64.440059
1540.000000	64.736448
1539.000000	65.023550
1538.000000	65.262723
1537.000000	65.422053
1536.000000	65.559086
1535.000000	65.726463
1534.000000	65.934269
1533.000000	66.166635
1532.000000	66.402290
1531.000000	66.650810
1530.000000	66.942762
1529.000000	67.303622
1528.000000	67.730870
1527.000000	68.187559
1526.000000	68.624088
1525.000000	69.012634
1524.000000	69.359356
1523.000000	69.696122
1522.000000	70.051269
1521.000000	70.424209
1520.000000	70.780147
1519.000000	71.104937
1518.000000	71.439351
1517.000000	71.804531
1516.000000	72.159068
1515.000000	72.458531
1514.000000	72.701347
1513.000000	72.932495
1512.000000	73.214754
1511.000000	73.587883
1510.000000	74.046128
1509.000000	74.561393
1508.000000	75.093041
1507.000000	75.549646
1506.000000	75.877363
1505.000000	76.092139
1504.000000	76.187146
1503.000000	76.261033
1502.000000	76.420444
1501.000000	76.689980
1500.000000	77.059335
1499.000000	77.504508
1498.000000	77.959799
1497.000000	78.331436
1496.000000	78.579271
1495.000000	78.734094
1494.000000	78.839824
1493.000000	78.949161
1492.000000	79.127930
1491.000000	79.427925
1490.000000	79.808624
1489.000000	80.146554
1488.000000	80.371163
1487.000000	80.503988
1486.000000	80.578357
1485.000000	80.614616
1484.000000	80.649375
1483.000000	80.724695
1482.000000	80.850551
1481.000000	80.988299
1480.000000	81.096035
1479.000000	81.142724
1478.000000	81.094925
1477.000000	80.940034
1476.000000	80.722762
1475.000000	80.475158
1474.000000	80.119105
1473.000000	79.534576
1472.000000	78.732271
1471.000000	77.815587
1470.000000	76.778869
1469.000000	75.548909
1468.000000	74.088309
1467.000000	72.341673
1466.000000	70.168344
1465.000000	67.513502
1464.000000	64.619069
1463.000000	61.801044
1462.000000	59.122817
1461.000000	56.511451
1460.000000	53.948484
1459.000000	51.361778
1458.000000	48.537514
1457.000000	45.536483
1456.000000	43.019775
1455.000000	41.380949
1454.000000	40.372497
1453.000000	39.732339
1452.000000	39.421881
1451.000000	39.465228
1450.000000	39.824626
1449.000000	40.471761
1448.000000	41.425671
1447.000000	42.634899
1446.000000	43.966530
1445.000000	45.359684
1444.000000	46.844472
1443.000000	48.428151
1442.000000	50.040960
1441.000000	51.605405
1440.000000	53.098591
1439.000000	54.554058
1438.000000	56.052932
1437.000000	57.669676
1436.000000	59.331731
1435.000000	60.841931
1434.000000	62.147821
1433.000000	63.365027
1432.000000	64.578752
1431.000000	65.753122
1430.000000	66.804088
1429.000000	67.690290
1428.000000	68.418199
1427.000000	69.014546
1426.000000	69.530574
1425.000000	70.030611
1424.000000	70.537300
1423.000000	71.025105
1422.000000	71.470619
1421.000000	71.871538
1420.000000	72.231273
1419.000000	72.550902
1418.000000	72.835049
1417.000000	73.125962
1416.000000	73.487162
1415.000000	73.949428
1414.000000	74.503098
1413.000000	75.112936
1412.000000	75.727917
1411.000000	76.298649
1410.000000	76.807179
1409.000000	77.271204
1408.000000	77.716822
1407.000000	78.163291
1406.000000	78.627583
1405.000000	79.117059
1404.000000	79.597618
1403.000000	80.012376
1402.000000	80.333713
1401.000000	80.575684
1400.000000	80.765083
1399.000000	80.926691
1398.000000	81.088967
1397.000000	81.271165
1396.000000	81.463775
1395.000000	81.638346
1394.000000	81.770178
1393.000000	81.839381
1392.000000	81.827567
1391.000000	81.738945
1390.000000	81.598226
1389.000000	81.407698
1388.000000	81.131667
1387.000000	80.762475
1386.000000	80.383955
1385.000000	80.120294
1384.000000	80.038465
1383.000000	80.123603
1382.000000	80.302346
1381.000000	80.476700
1380.000000	80.572979
1379.000000	80.581640
1378.000000	80.548858
1377.000000	80.513026
1376.000000	80.461790
1375.000000	80.358872
1374.000000	80.192238
1373.000000	79.982187
1372.000000	79.750111
1371.000000	79.512844
1370.000000	79.296849
1369.000000	79.120514
1368.000000	78.971682
1367.000000	78.823433
1366.000000	78.652779
1365.000000	78.431084
1364.000000	78.116569
1363.000000	77.689780
1362.000000	77.197445
1361.000000	76.721352
1360.000000	76.309994
1359.000000	75.976089
1358.000000	75.730280
1357.000000	75.575646
1356.000000	75.492469
1355.000000	75.457118
1354.000000	75.463154
1353.000000	75.508731
1352.000000	75.575220
1351.000000	75.636294
1350.000000	75.669010
1349.000000	75.640059
1348.000000	75.493526
1347.000000	75.177588
1346.000000	74.669017
1345.000000	73.969915
1344.000000	73.101517
1343.000000	72.100303
1342.000000	71.001464
1341.000000	69.809373
1340.000000	68.498521
1339.000000	67.055741
1338.000000	65.488367
1337.000000	63.790352
1336.000000	61.937829
1335.000000	59.925685
1334.000000	57.784589
1333.000000	55.557274
1332.000000	53.292763
1331.000000	51.062692
1330.000000	48.947367
1329.000000	46.998221
1328.000000	45.231034
1327.000000	43.641100
1326.000000	42.198932
1325.000000	40.850689
1324.000000	39.551228
1323.000000	38.295462
1322.000000	37.098834
1321.000000	35.970855
1320.000000	34.938422
1319.000000	34.068318
1318.000000	33.444758
1317.000000	33.130436
1316.000000	33.159119
1315.000000	33.548755
1314.000000	34.281518
1313.000000	35.297817
1312.000000	36.527223
1311.000000	37.910084
1310.000000	39.397271
1309.000000	40.937913
1308.000000	42.486430
1307.000000	44.010711
1306.000000	45.484337
1305.000000	46.882978
1304.000000	48.193616
1303.000000	49.419349
1302.000000	50.568649
1301.000000	51.645795
1300.000000	52.648914
1299.000000	53.573564
1298.000000	54.411305
1297.000000	55.151058
1296.000000	55.796815
1295.000000	56.382059
1294.000000	56.963498
1293.000000	57.599048
1292.000000	58.330632
1291.000000	59.177759
1290.000000	60.136123
1289.000000	61.179455
1288.000000	62.268529
1287.000000	63.365674
1286.000000	64.442394
1285.000000	65.477240
1284.000000	66.451302
1283.000000	67.350106
1282.000000	68.165211
1281.000000	68.891113
1280.000000	69.520574
1279.000000	70.050775
1278.000000	70.492370
1277.000000	70.862554
1276.000000	71.178936
1275.000000	71.463445
1274.000000	71.745749
1273.000000	72.054344
1272.000000	72.405419
1271.000000	72.806544
1270.000000	73.263346
1269.000000	73.773972
1268.000000	74.322251
1267.000000	74.887312
1266.000000	75.456370
1265.000000	76.021739
1264.000000	76.571086
1263.000000	77.090852
1262.000000	77.575702
1261.000000	78.024009
1260.000000	78.427540
1259.000000	78.775925
1258.000000	79.069201
1257.000000	79.311588
1256.000000	79.501124
1255.000000	79.636722
1254.000000	79.727808
1253.000000	79.788327
1252.000000	79.821861
1251.000000	79.824865
1250.000000	79.797071
1249.000000	79.734714
1248.000000	79.623552
1247.000000	79.447906
1246.000000	79.205025
1245.000000	78.903331
1244.000000	78.550931
1243.000000	78.158417
1242.000000	77.741494
1241.000000	77.309611
1240.000000	76.857057
1239.000000	76.370548
1238.000000	75.844579
1237.000000	75.282499
1236.000000	74.693333
1235.000000	74.097374
1234.000000	73.527955
1233.000000	73.017423
1232.000000	72.583477
1231.000000	72.230101
1230.000000	71.950705
1229.000000	71.729599
1228.000000	71.546085
1227.000000	71.387849
1226.000000	71.261568
1225.000000	71.185233
1224.000000	71.179591
1223.000000	71.262065
1222.000000	71.440345
1221.000000	71.704507
1220.000000	72.023235
1219.000000	72.357579
1218.000000	72.677517
1217.000000	72.969202
1216.000000	73.237346
1215.000000	73.504752
1214.000000	73.806058
1213.000000	74.169328
1212.000000	74.599238
1211.000000	75.075589
1210.000000	75.562671
1209.000000	76.019219
1208.000000	76.410204
1207.000000	76.724292
1206.000000	76.984508
1205.000000	77.236402
1204.000000	77.524441
1203.000000	77.876636
1202.000000	78.297575
1201.000000	78.760715
1200.000000	79.212400
1199.000000	79.596514
1198.000000	79.884036
1197.000000	80.083074
1196.000000	80.229963
1195.000000	80.378133
1194.000000	80.583377
1193.000000	80.877417
1192.000000	81.247654
1191.000000	81.643217
1190.000000	82.002502
1189.000000	82.276003
1188.000000	82.439858
1187.000000	82.510329
1186.000000	82.546766
1185.000000	82.624847
1184.000000	82.796153
1183.000000	83.065464
1182.000000	83.393862
1181.000000	83.713006
1180.000000	83.950930
1179.000000	84.067826
1178.000000	84.076773
1177.000000	84.029797
1176.000000	83.989664
1175.000000	84.013541
1174.000000	84.139980
1173.000000	84.365869
1172.000000	84.637299
1171.000000	84.874420
1170.000000	85.012799
1169.000000	85.026690
1168.000000	84.932401
1167.000000	84.786578
1166.000000	84.671352
1165.000000	84.655199
1164.000000	84.756301
1163.000000	84.938085
1162.000000	85.133693
1161.000000	85.270386
1160.000000	85.291556
1159.000000	85.184754
1158.000000	84.997379
1157.000000	84.813258
1156.000000	84.709189
1155.000000	84.726432
1154.000000	84.861589
1153.000000	85.063157
1152.000000	85.245056
1151.000000	85.326897
1150.000000	85.277881
1149.000000	85.126481
1148.000000	84.939517
1147.000000	84.796831
1146.000000	84.766429
1145.000000	84.872765
1144.000000	85.079150
1143.000000	85.306129
1142.000000	85.472458
1141.000000	85.525295
1140.000000	85.455120
1139.000000	85.303661
1138.000000	85.154726
1137.000000	85.093914
1136.000000	85.164115
1135.000000	85.350886
1134.000000	85.596888
1133.000000	85.821536
1132.000000	85.945738
1131.000000	85.928393
1130.000000	85.793481
1129.000000	85.615697
1128.000000	85.478615
1127.000000	85.441035
1126.000000	85.520990
1125.000000	85.684565
1124.000000	85.853018
1123.000000	85.938400
1122.000000	85.888158
1121.000000	85.703763
1120.000000	85.431033
1119.000000	85.142721
1118.000000	84.913768
1117.000000	84.783250
1116.000000	84.731325
1115.000000	84.690646
1114.000000	84.583096
1113.000000	84.348707
1112.000000	83.961188
1111.000000	83.442549
1110.000000	82.858446
1109.000000	82.283110
1108.000000	81.759538
1107.000000	81.282231
1106.000000	80.808376
1105.000000	80.270464
1104.000000	79.597856
1103.000000	78.749950
1102.000000	77.733193
1101.000000	76.590400
1100.000000	75.372779
1099.000000	74.113884
1098.000000	72.821728
1097.000000	71.466496
1096.000000	69.995954
1095.000000	68.361841
1094.000000	66.539990
1093.000000	64.536836
1092.000000	62.381318
1091.000000	60.121871
1090.000000	57.809880
1089.000000	55.482688
1088.000000	53.167160
1087.000000	50.889059
1086.000000	48.672970
1085.000000	46.540293
1084.000000	44.520013
1083.000000	42.644356
1082.000000	40.936539
1081.000000	39.401529
1080.000000	38.037215
1079.000000	36.842573
1078.000000	35.797222
1077.000000	34.868189
1076.000000	34.030497
1075.000000	33.272555
1074.000000	32.584549
1073.000000	31.950983
1072.000000	31.369724
1071.000000	30.851368
1070.000000	30.397507
1069.000000	30.000454
1068.000000	29.658512
1067.000000	29.378998
1066.000000	29.161008
1065.000000	28.994335
1064.000000	28.882436
1063.000000	28.839397
1062.000000	28.870230
1061.000000	28.969555
1060.000000	29.138009
1059.000000	29.384288
1058.000000	29.703078
1057.000000	30.076527
1056.000000	30.496480
1055.000000	30.965053
1054.000000	31.479952
1053.000000	32.033316
1052.000000	32.629809
1051.000000	33.286348
1050.000000	34.007512
1049.000000	34.783692
1048.000000	35.606482
1047.000000	36.471402
1046.000000	37.367354
1045.000000	38.279328
1044.000000	39.206988
1043.000000	40.163644
1042.000000	41.159811
1041.000000	42.199530
1040.000000	43.285713
1039.000000	44.417297
1038.000000	45.577482
1037.000000	46.737331
1036.000000	47.873763
1035.000000	48.977524
1034.000000	50.050127
1033.000000	51.102609
1032.000000	52.155832
1031.000000	53.229453
1030.000000	54.326701
1029.000000	55.429926
1028.000000	56.509676
1027.000000	57.536681
1026.000000	58.489364
1025.000000	59.364176
1024.000000	60.180782
1023.000000	60.975198
1022.000000	61.782972
1021.000000	62.620713
1020.000000	63.480684
1019.000000	64.334153
1018.000000	65.142119
1017.000000	65.872258
1016.000000	66.512651
1015.000000	67.079861
1014.000000	67.613658
1013.000000	68.158915
1012.000000	68.746486
1011.000000	69.380263
1010.000000	70.036192
1009.000000	70.670655
1008.000000	71.238074
1007.000000	71.714466
1006.000000	72.110006
1005.000000	72.463337
1004.000000	72.823226
1003.000000	73.229502
1002.000000	73.699042
1001.000000	74.215489
1000.000000	74.733165
999.000000	75.199272
998.000000	75.580813
997.000000	75.877536
996.000000	76.118436
995.000000	76.351559
994.000000	76.627529
993.000000	76.975065
992.000000	77.385377
991.000000	77.816762
990.000000	78.215771
989.000000	78.539331
988.000000	78.770628
987.000000	78.929458
986.000000	79.067902
985.000000	79.244508
984.000000	79.494423
983.000000	79.816567
982.000000	80.179020
981.000000	80.529002
980.000000	80.810676
979.000000	80.993945
978.000000	81.094206
977.000000	81.162913
976.000000	81.259399
975.000000	81.427324
974.000000	81.682280
973.000000	82.001990
972.000000	82.329037
971.000000	82.596322
970.000000	82.762888
969.000000	82.831245
968.000000	82.841310
967.000000	82.855500
966.000000	82.937633
965.000000	83.122503
964.000000	83.395677
963.000000	83.700234
962.000000	83.965224
961.000000	84.134000
960.000000	84.184657
959.000000	84.143181
958.000000	84.078612
957.000000	84.070149
956.000000	84.167202
955.000000	84.371167
954.000000	84.641761
953.000000	84.909367
952.000000	85.097012
951.000000	85.156734
950.000000	85.098765
949.000000	84.984348
948.000000	84.893374
947.000000	84.893277
946.000000	85.017990
945.000000	85.250609
944.000000	85.523223
943.000000	85.745863
942.000000	85.851905
941.000000	85.825272
940.000000	85.700680
939.000000	85.550850
938.000000	85.462710
937.000000	85.497604
936.000000	85.659402
935.000000	85.895251
934.000000	86.124033
933.000000	86.267415
932.000000	86.276442
931.000000	86.154526
930.000000	85.962445
929.000000	85.789419
928.000000	85.708841
927.000000	85.749785
926.000000	85.893111
925.000000	86.076622
924.000000	86.214290
923.000000	86.235114
922.000000	86.120767
921.000000	85.909483
920.000000	85.672369
919.000000	85.485273
918.000000	85.402869
917.000000	85.431853
916.000000	85.523873
915.000000	85.599558
914.000000	85.589437
913.000000	85.460108
912.000000	85.219848
911.000000	84.916637
910.000000	84.624619
909.000000	84.408566
908.000000	84.289200
907.000000	84.237205
906.000000	84.194329
905.000000	84.096028
904.000000	83.892836
903.000000	83.573867
902.000000	83.176044
901.000000	82.763100
900.000000	82.390908
899.000000	82.084681
898.000000	81.836022
897.000000	81.603434
896.000000	81.325355
895.000000	80.949811
894.000000	80.462514
893.000000	79.888491
892.000000	79.272652
891.000000	78.662026
890.000000	78.090961
889.000000	77.562161
888.000000	77.041875
887.000000	76.476426
886.000000	75.820860
885.000000	75.056752
884.000000	74.193920
883.000000	73.266807
882.000000	72.321347
881.000000	71.391856
880.000000	70.484038
879.000000	69.574138
878.000000	68.623756
877.000000	67.594616
876.000000	66.464910
875.000000	65.242430
874.000000	63.960263
873.000000	62.659137
872.000000	61.370076
871.000000	60.105589
870.000000	58.858148
869.000000	57.603482
868.000000	56.314957
867.000000	54.977966
866.000000	53.595334
865.000000	52.184657
864.000000	50.773856
863.000000	49.392413
862.000000	48.057876
861.000000	46.770922
860.000000	45.523731
859.000000	44.311936
858.000000	43.139990
857.000000	42.026601
856.000000	41.012771
855.000000	40.148151
854.000000	39.471655
853.000000	38.996796
852.000000	38.710038
851.000000	38.574712
850.000000	38.531180
849.000000	38.517671
848.000000	38.492509
847.000000	38.439996
846.000000	38.363964
845.000000	38.281142
844.000000	38.220500
843.000000	38.212441
842.000000	38.274190
841.000000	38.410934
840.000000	38.623713
839.000000	38.910711
838.000000	39.264085
837.000000	39.674364
836.000000	40.141212
835.000000	40.668647
834.000000	41.256502
833.000000	41.900447
832.000000	42.595828
831.000000	43.336745
830.000000	44.111454
829.000000	44.907414
828.000000	45.718887
827.000000	46.545311
826.000000	47.387112
825.000000	48.245496
824.000000	49.123184
823.000000	50.019800
822.000000	50.928499
821.000000	51.838461
820.000000	52.737386
819.000000	53.611737
818.000000	54.449434
817.000000	55.245287
816.000000	56.000421
815.000000	56.718331
814.000000	57.403790
813.000000	58.062951
812.000000	58.701995
811.000000	59.324412
810.000000	59.932960
809.000000	60.531842
808.000000	61.124070
807.000000	61.710070
806.000000	62.290011
805.000000	62.864907
804.000000	63.433138
803.000000	63.990047
802.000000	64.534655
801.000000	65.072451
800.000000	65.609477
799.000000	66.147592
798.000000	66.686340
797.000000	67.223728
796.000000	67.751961
795.000000	68.258875
794.000000	68.737693
793.000000	69.191540
792.000000	69.628769
791.000000	70.059458
790.000000	70.495519
789.000000	70.944948
788.000000	71.402068
787.000000	71.849926
786.000000	72.273611
785.000000	72.665985
784.000000	73.023324
783.000000	73.346850
782.000000	73.651063
781.000000	73.959798
780.000000	74.288331
779.000000	74.634594
778.000000	74.986625
777.000000	75.330010
776.000000	75.647732
775.000000	75.925926
774.000000	76.167115
773.000000	76.392114
772.000000	76.626009
771.000000	76.885910
770.000000	77.178066
769.000000	77.494919
768.000000	77.811956
767.000000	78.098584
766.000000	78.337863
765.000000	78.532318
764.000000	78.695039
763.000000	78.846069
762.000000	79.013720
761.000000	79.221239
760.000000	79.464418
759.000000	79.711844
758.000000	79.930105
757.000000	80.102499
756.000000	80.227333
755.000000	80.316135
754.000000	80.398036
753.000000	80.509895
752.000000	80.670239
751.000000	80.866596
750.000000	81.067547
749.000000	81.238994
748.000000	81.351296
747.000000	81.390589
746.000000	81.373353
745.000000	81.342121
744.000000	81.339675
743.000000	81.389242
742.000000	81.492112
741.000000	81.627587
740.000000	81.752260
739.000000	81.818790
738.000000	81.807954
737.000000	81.740211
736.000000	81.658544
735.000000	81.611123
734.000000	81.643641
733.000000	81.781170
732.000000	82.002135
731.000000	82.240995
730.000000	82.428098
729.000000	82.525726
728.000000	82.536751
727.000000	82.501727
726.000000	82.489179
725.000000	82.568761
724.000000	82.773006
723.000000	83.081789
722.000000	83.437816
721.000000	83.766679
720.000000	83.993116
719.000000	84.075644
718.000000	84.043040
717.000000	83.985083
716.000000	83.997509
715.000000	84.134574
714.000000	84.397564
713.000000	84.739773
712.000000	85.076424
711.000000	85.318016
710.000000	85.420368
709.000000	85.405569
708.000000	85.340200
707.000000	85.306566
706.000000	85.379714
705.000000	85.597861
704.000000	85.930922
703.000000	86.285700
702.000000	86.559953
701.000000	86.694008
700.000000	86.681141
699.000000	86.567798
698.000000	86.449231
697.000000	86.435137
696.000000	86.587050
695.000000	86.881307
694.000000	87.235128
693.000000	87.550617
692.000000	87.737330
691.000000	87.744908
690.000000	87.602181
689.000000	87.417349
688.000000	87.317833
687.000000	87.380717
686.000000	87.616723
685.000000	87.975564
684.000000	88.341947
683.000000	88.575377
682.000000	88.599557
681.000000	88.447736
680.000000	88.221623
679.000000	88.035281
678.000000	87.997683
677.000000	88.173683
676.000000	88.521092
675.000000	88.909314
674.000000	89.200239
673.000000	89.315854
672.000000	89.266847
671.000000	89.138869
670.000000	89.048033
669.000000	89.102198
668.000000	89.317102
667.000000	89.590160
666.000000	89.838093
665.000000	90.001294
664.000000	90.033764
663.000000	89.900362
662.000000	89.616143
661.000000	89.282942
660.000000	89.048667
659.000000	89.038680
658.000000	89.293008
657.000000	89.727901
656.000000	90.171437
655.000000	90.458446
654.000000	90.487391
653.000000	90.250983
652.000000	89.859070
651.000000	89.506862
650.000000	89.375872
649.000000	89.536234
648.000000	89.934627
647.000000	90.430854
646.000000	90.835641
645.000000	90.980834
644.000000	90.807831
643.000000	90.405299
642.000000	89.966979
641.000000	89.693103
640.000000	89.712262
639.000000	90.041845
638.000000	90.567376
637.000000	91.074825
636.000000	91.354094
635.000000	91.301207
634.000000	90.957305
633.000000	90.480151
632.000000	90.080348
631.000000	89.945749
630.000000	90.157264
629.000000	90.640731
628.000000	91.202429
627.000000	91.618910
626.000000	91.725564
625.000000	91.486600
624.000000	91.015557
623.000000	90.532148
622.000000	90.263128
621.000000	90.335140
620.000000	90.727795
619.000000	91.291043
618.000000	91.798859
617.000000	92.036269
616.000000	91.901089
615.000000	91.460331
614.000000	90.917520
613.000000	90.513066
612.000000	90.424139
611.000000	90.699264
610.000000	91.236889
609.000000	91.818450
608.000000	92.199273
607.000000	92.219989
606.000000	91.878794
605.000000	91.331202
604.000000	90.819878
603.000000	90.570610
602.000000	90.694645
601.000000	91.137309
600.000000	91.697679
599.000000	92.115230
598.000000	92.186388
597.000000	91.855502
596.000000	91.237502
595.000000	90.574494
594.000000	90.136018
593.000000	90.096907
592.000000	90.465768
591.000000	91.088064
590.000000	91.709629
589.000000	92.084348
588.000000	92.080103
587.000000	91.734641
586.000000	91.235551
585.000000	90.833307
584.000000	90.731058
583.000000	91.008311
582.000000	91.584658
581.000000	92.239536
580.000000	92.703181
579.000000	92.789781
578.000000	92.483792
577.000000	91.931658
576.000000	91.379373
575.000000	91.081197
574.000000	91.182545
573.000000	91.645467
572.000000	92.277153
571.000000	92.815226
570.000000	93.033278
569.000000	92.838523
568.000000	92.316419
567.000000	91.698610
566.000000	91.259640
565.000000	91.187098
564.000000	91.506678
563.000000	92.085495
562.000000	92.676933
561.000000	93.017582
560.000000	92.951183
559.000000	92.508120
558.000000	91.887209
557.000000	91.355597
556.000000	91.133522
555.000000	91.316204
554.000000	91.832951
553.000000	92.467596
552.000000	92.950358
551.000000	93.077030
550.000000	92.801871
549.000000	92.256341
548.000000	91.684993
547.000000	91.343412
546.000000	91.389330
545.000000	91.808213
544.000000	92.426078
543.000000	92.990179
542.000000	93.267502
541.000000	93.141823
540.000000	92.671791
539.000000	92.074479
538.000000	91.624248
537.000000	91.519685
536.000000	91.799950
535.000000	92.346399
534.000000	92.931194
533.000000	93.311908
532.000000	93.330920
531.000000	92.988255
530.000000	92.446386
529.000000	91.948453
528.000000	91.705628
527.000000	91.827776
526.000000	92.273947
525.000000	92.843761
524.000000	93.276512
523.000000	93.386647
522.000000	93.137203
521.000000	92.637514
520.000000	92.091390
519.000000	91.719151
518.000000	91.660924
517.000000	91.904457
516.000000	92.291266
515.000000	92.598228
514.000000	92.638097
513.000000	92.333006
512.000000	91.736062
511.000000	91.015046
510.000000	90.386513
509.000000	90.017279
508.000000	89.940690
507.000000	90.053569
506.000000	90.170214
505.000000	90.108249
504.000000	89.762759
503.000000	89.150777
502.000000	88.423012
501.000000	87.804292
500.000000	87.468834
499.000000	87.471375
498.000000	87.756588
497.000000	88.186511
496.000000	88.586555
495.000000	88.821353
494.000000	88.855135
493.000000	88.759881
492.000000	88.672336
491.000000	88.744754
490.000000	89.074312
489.000000	89.646986
488.000000	90.332150
487.000000	90.944155
486.000000	91.325436
485.000000	91.406082
484.000000	91.230697
483.000000	90.951387
482.000000	90.762012
481.000000	90.790636
480.000000	91.038973
479.000000	91.408753
478.000000	91.749205
477.000000	91.918440
476.000000	91.850859
475.000000	91.596108
474.000000	91.287053
473.000000	91.077019
472.000000	91.079423
471.000000	91.334532
470.000000	91.775095
469.000000	92.249450
468.000000	92.591938
467.000000	92.698730
466.000000	92.577066
465.000000	92.341230
464.000000	92.141690
463.000000	92.101309
462.000000	92.267511
461.000000	92.586402
460.000000	92.943884
459.000000	93.215194
458.000000	93.287791
457.000000	93.132984
456.000000	92.857216
455.000000	92.616515
454.000000	92.518470
453.000000	92.600560
452.000000	92.828886
451.000000	93.116728
450.000000	93.357288
449.000000	93.472327
448.000000	93.440873
447.000000	93.311675
446.000000	93.178409
445.000000	93.135328
444.000000	93.230396
443.000000	93.439103
442.000000	93.676710
441.000000	93.855296
440.000000	93.935942
439.000000	93.922403
438.000000	93.846585
437.000000	93.765874
436.000000	93.744248
435.000000	93.811967
434.000000	93.944998
433.000000	94.091693
432.000000	94.201321
431.000000	94.234674
430.000000	94.194129
429.000000	94.128885
428.000000	94.094572
427.000000	94.120930
426.000000	94.200184
425.000000	94.287942
424.000000	94.328593
423.000000	94.316623
422.000000	94.303307
421.000000	94.322069
420.000000	94.342462
419.000000	94.332165
418.000000	94.320658
417.000000	94.339155
416.000000	94.365166
415.000000	94.357982
414.000000	94.286633
413.000000	94.163451
412.000000	94.054420
411.000000	94.035553
410.000000	94.154247
409.000000	94.374966
408.000000	94.585891
407.000000	94.677722
406.000000	94.612989
405.000000	94.417990
404.000000	94.152702
403.000000	93.918329
402.000000	93.848589
401.000000	94.035066
400.000000	94.405010
