PE IR       SUBTECH     SPECTRUM    ASCII       PEDS        4.00        
   -1
23ms210_nitro.asc
24/09/09
16:10:29.00
24/09/09
16:10:29.00
Administrator
Sample 1139 By Administrator Date Monday, September 09 2024
400.000000
#HDR
-1
-1
#GR
cm-1
%T
1.0
0.0
4000.000000
-1.000000
3601
8
91.499110
16.158516
#DATA
4000.000000	63.137043
3999.000000	63.162452
3998.000000	63.189284
3997.000000	63.218384
3996.000000	63.249515
3995.000000	63.281157
3994.000000	63.311325
3993.000000	63.338977
3992.000000	63.364737
3991.000000	63.390121
3990.000000	63.415938
3989.000000	63.441800
3988.000000	63.467201
3987.000000	63.492508
3986.000000	63.518496
3985.000000	63.545145
3984.000000	63.571536
3983.000000	63.596768
3982.000000	63.620537
3981.000000	63.642967
3980.000000	63.664419
3979.000000	63.685635
3978.000000	63.707837
3977.000000	63.732152
3976.000000	63.758688
3975.000000	63.786293
3974.000000	63.813415
3973.000000	63.839167
3972.000000	63.863442
3971.000000	63.886643
3970.000000	63.909367
3969.000000	63.931886
3968.000000	63.953810
3967.000000	63.974513
3966.000000	63.993902
3965.000000	64.012883
3964.000000	64.032927
3963.000000	64.054777
3962.000000	64.077751
3961.000000	64.100397
3960.000000	64.121832
3959.000000	64.142868
3958.000000	64.165436
3957.000000	64.190425
3956.000000	64.216426
3955.000000	64.240988
3954.000000	64.262685
3953.000000	64.281827
3952.000000	64.299844
3951.000000	64.318624
3950.000000	64.339576
3949.000000	64.361893
3948.000000	64.382754
3947.000000	64.399871
3946.000000	64.414126
3945.000000	64.430290
3944.000000	64.454251
3943.000000	64.487363
3942.000000	64.523553
3941.000000	64.554627
3940.000000	64.578231
3939.000000	64.599132
3938.000000	64.622529
3937.000000	64.647815
3936.000000	64.670002
3935.000000	64.686716
3934.000000	64.702340
3933.000000	64.723532
3932.000000	64.751512
3931.000000	64.780558
3930.000000	64.803977
3929.000000	64.820583
3928.000000	64.834543
3927.000000	64.851384
3926.000000	64.874618
3925.000000	64.903592
3924.000000	64.932239
3923.000000	64.952844
3922.000000	64.963615
3921.000000	64.971163
3920.000000	64.984390
3919.000000	65.006819
3918.000000	65.035789
3917.000000	65.067569
3916.000000	65.099791
3915.000000	65.130968
3914.000000	65.161249
3913.000000	65.193873
3912.000000	65.231171
3911.000000	65.269907
3910.000000	65.302489
3909.000000	65.323306
3908.000000	65.332320
3907.000000	65.332536
3906.000000	65.326407
3905.000000	65.315428
3904.000000	65.301067
3903.000000	65.285465
3902.000000	65.273826
3901.000000	65.274951
3900.000000	65.296698
3899.000000	65.338221
3898.000000	65.387521
3897.000000	65.432201
3896.000000	65.468643
3895.000000	65.501755
3894.000000	65.537770
3893.000000	65.578956
3892.000000	65.620973
3891.000000	65.656161
3890.000000	65.677891
3889.000000	65.683412
3888.000000	65.677177
3887.000000	65.672931
3886.000000	65.683875
3885.000000	65.706474
3884.000000	65.723138
3883.000000	65.726664
3882.000000	65.732383
3881.000000	65.760678
3880.000000	65.810699
3879.000000	65.860011
3878.000000	65.889430
3877.000000	65.899580
3876.000000	65.905746
3875.000000	65.922931
3874.000000	65.951263
3873.000000	65.974901
3872.000000	65.980055
3871.000000	65.974352
3870.000000	65.979477
3869.000000	66.002039
3868.000000	66.024657
3867.000000	66.031815
3866.000000	66.032772
3865.000000	66.051411
3864.000000	66.095020
3863.000000	66.147069
3862.000000	66.190347
3861.000000	66.223368
3860.000000	66.253467
3859.000000	66.287994
3858.000000	66.328579
3857.000000	66.367065
3856.000000	66.386037
3855.000000	66.371931
3854.000000	66.334336
3853.000000	66.300261
3852.000000	66.287618
3851.000000	66.300100
3850.000000	66.337423
3849.000000	66.397326
3848.000000	66.471419
3847.000000	66.545236
3846.000000	66.605861
3845.000000	66.647887
3844.000000	66.671596
3843.000000	66.681654
3842.000000	66.683527
3841.000000	66.680607
3840.000000	66.675408
3839.000000	66.671657
3838.000000	66.672549
3837.000000	66.680502
3836.000000	66.697023
3835.000000	66.722152
3834.000000	66.755711
3833.000000	66.799042
3832.000000	66.852978
3831.000000	66.912825
3830.000000	66.968902
3829.000000	67.014990
3828.000000	67.052120
3827.000000	67.085416
3826.000000	67.115723
3825.000000	67.135295
3824.000000	67.134382
3823.000000	67.117212
3822.000000	67.105907
3821.000000	67.118281
3820.000000	67.144907
3819.000000	67.162032
3818.000000	67.163052
3817.000000	67.166624
3816.000000	67.197524
3815.000000	67.257766
3814.000000	67.324815
3813.000000	67.380297
3812.000000	67.426690
3811.000000	67.473925
3810.000000	67.521714
3809.000000	67.558986
3808.000000	67.578006
3807.000000	67.584060
3806.000000	67.585388
3805.000000	67.580144
3804.000000	67.563272
3803.000000	67.543925
3802.000000	67.542929
3801.000000	67.568638
3800.000000	67.605003
3799.000000	67.634482
3798.000000	67.661094
3797.000000	67.701279
3796.000000	67.761693
3795.000000	67.830746
3794.000000	67.892535
3793.000000	67.942986
3792.000000	67.988979
3791.000000	68.035911
3790.000000	68.081049
3789.000000	68.118153
3788.000000	68.144960
3787.000000	68.164365
3786.000000	68.180895
3785.000000	68.197306
3784.000000	68.213165
3783.000000	68.225806
3782.000000	68.234676
3781.000000	68.245801
3780.000000	68.267572
3779.000000	68.300875
3778.000000	68.336852
3777.000000	68.366862
3776.000000	68.390757
3775.000000	68.414804
3774.000000	68.442491
3773.000000	68.469607
3772.000000	68.490055
3771.000000	68.505276
3770.000000	68.521162
3769.000000	68.537522
3768.000000	68.549772
3767.000000	68.560151
3766.000000	68.578336
3765.000000	68.609292
3764.000000	68.644782
3763.000000	68.671041
3762.000000	68.684163
3761.000000	68.695545
3760.000000	68.717201
3759.000000	68.745614
3758.000000	68.768573
3757.000000	68.782317
3756.000000	68.789847
3755.000000	68.790379
3754.000000	68.781702
3753.000000	68.768436
3752.000000	68.758651
3751.000000	68.751445
3750.000000	68.741212
3749.000000	68.733992
3748.000000	68.738344
3747.000000	68.749999
3746.000000	68.765587
3745.000000	68.797085
3744.000000	68.852592
3743.000000	68.916577
3742.000000	68.968380
3741.000000	69.005513
3740.000000	69.036919
3739.000000	69.065343
3738.000000	69.086340
3737.000000	69.103186
3736.000000	69.130141
3735.000000	69.171643
3734.000000	69.214544
3733.000000	69.251352
3732.000000	69.292135
3731.000000	69.346252
3730.000000	69.408087
3729.000000	69.464597
3728.000000	69.511838
3727.000000	69.557785
3726.000000	69.607580
3725.000000	69.653898
3724.000000	69.689386
3723.000000	69.719815
3722.000000	69.755467
3721.000000	69.798728
3720.000000	69.844428
3719.000000	69.886426
3718.000000	69.921928
3717.000000	69.951348
3716.000000	69.973310
3715.000000	69.984092
3714.000000	69.983786
3713.000000	69.980614
3712.000000	69.985988
3711.000000	70.004741
3710.000000	70.034427
3709.000000	70.071450
3708.000000	70.113714
3707.000000	70.160665
3706.000000	70.210556
3705.000000	70.259970
3704.000000	70.307562
3703.000000	70.356500
3702.000000	70.409094
3701.000000	70.460241
3700.000000	70.501563
3699.000000	70.530011
3698.000000	70.550546
3697.000000	70.571570
3696.000000	70.595730
3695.000000	70.616451
3694.000000	70.627331
3693.000000	70.631905
3692.000000	70.638980
3691.000000	70.651071
3690.000000	70.662065
3689.000000	70.667214
3688.000000	70.672402
3687.000000	70.689492
3686.000000	70.723150
3685.000000	70.769861
3684.000000	70.825362
3683.000000	70.885008
3682.000000	70.941349
3681.000000	70.985613
3680.000000	71.013066
3679.000000	71.019170
3678.000000	70.996064
3677.000000	70.947531
3676.000000	70.902924
3675.000000	70.888755
3674.000000	70.894870
3673.000000	70.896926
3672.000000	70.893910
3671.000000	70.914076
3670.000000	70.981029
3669.000000	71.076378
3668.000000	71.161063
3667.000000	71.221324
3666.000000	71.269562
3665.000000	71.321624
3664.000000	71.383217
3663.000000	71.449145
3662.000000	71.510587
3661.000000	71.559641
3660.000000	71.590109
3659.000000	71.597920
3658.000000	71.585797
3657.000000	71.565222
3656.000000	71.547837
3655.000000	71.534276
3654.000000	71.515905
3653.000000	71.486867
3652.000000	71.452777
3651.000000	71.426820
3650.000000	71.415608
3649.000000	71.413353
3648.000000	71.418703
3647.000000	71.440978
3646.000000	71.483667
3645.000000	71.540258
3644.000000	71.606136
3643.000000	71.681548
3642.000000	71.763543
3641.000000	71.840578
3640.000000	71.898886
3639.000000	71.933267
3638.000000	71.947478
3637.000000	71.946605
3636.000000	71.934994
3635.000000	71.920557
3634.000000	71.912496
3633.000000	71.909862
3632.000000	71.899983
3631.000000	71.875096
3630.000000	71.849089
3629.000000	71.843722
3628.000000	71.856131
3627.000000	71.868560
3626.000000	71.878567
3625.000000	71.896216
3624.000000	71.927698
3623.000000	71.968640
3622.000000	72.007097
3621.000000	72.034437
3620.000000	72.050810
3619.000000	72.057640
3618.000000	72.051764
3617.000000	72.032588
3616.000000	72.007776
3615.000000	71.991907
3614.000000	71.998418
3613.000000	72.026877
3612.000000	72.061681
3611.000000	72.087772
3610.000000	72.105243
3609.000000	72.126667
3608.000000	72.159849
3607.000000	72.198060
3606.000000	72.230253
3605.000000	72.253804
3604.000000	72.275256
3603.000000	72.303021
3602.000000	72.339648
3601.000000	72.379780
3600.000000	72.413507
3599.000000	72.431153
3598.000000	72.430603
3597.000000	72.419849
3596.000000	72.411398
3595.000000	72.414267
3594.000000	72.428957
3593.000000	72.447651
3592.000000	72.461061
3591.000000	72.464608
3590.000000	72.462159
3589.000000	72.465797
3588.000000	72.485495
3587.000000	72.515657
3586.000000	72.541318
3585.000000	72.557795
3584.000000	72.574806
3583.000000	72.604453
3582.000000	72.650236
3581.000000	72.704991
3580.000000	72.756756
3579.000000	72.796048
3578.000000	72.819611
3577.000000	72.829928
3576.000000	72.833181
3575.000000	72.836416
3574.000000	72.844330
3573.000000	72.856248
3572.000000	72.866275
3571.000000	72.867204
3570.000000	72.855644
3569.000000	72.837981
3568.000000	72.828548
3567.000000	72.835944
3566.000000	72.853849
3565.000000	72.873427
3564.000000	72.896095
3563.000000	72.930305
3562.000000	72.980803
3561.000000	73.042583
3560.000000	73.103785
3559.000000	73.153250
3558.000000	73.185522
3557.000000	73.201088
3556.000000	73.205184
3555.000000	73.206303
3554.000000	73.213316
3553.000000	73.231109
3552.000000	73.257121
3551.000000	73.283511
3550.000000	73.303559
3549.000000	73.317139
3548.000000	73.330275
3547.000000	73.348920
3546.000000	73.372792
3545.000000	73.397184
3544.000000	73.420353
3543.000000	73.445950
3542.000000	73.478134
3541.000000	73.516749
3540.000000	73.557967
3539.000000	73.597284
3538.000000	73.631082
3537.000000	73.656765
3536.000000	73.673216
3535.000000	73.682380
3534.000000	73.689140
3533.000000	73.699213
3532.000000	73.716290
3531.000000	73.740171
3530.000000	73.767030
3529.000000	73.792132
3528.000000	73.813009
3527.000000	73.830185
3526.000000	73.845760
3525.000000	73.862441
3524.000000	73.883160
3523.000000	73.909486
3522.000000	73.940499
3521.000000	73.974021
3520.000000	74.008563
3519.000000	74.042809
3518.000000	74.074023
3517.000000	74.098816
3516.000000	74.115825
3515.000000	74.126887
3514.000000	74.135042
3513.000000	74.142813
3512.000000	74.153348
3511.000000	74.170734
3510.000000	74.196111
3509.000000	74.224458
3508.000000	74.247721
3507.000000	74.261791
3506.000000	74.269701
3505.000000	74.278923
3504.000000	74.295728
3503.000000	74.320982
3502.000000	74.350622
3501.000000	74.379930
3500.000000	74.406972
3499.000000	74.431585
3498.000000	74.452924
3497.000000	74.469370
3496.000000	74.480500
3495.000000	74.487964
3494.000000	74.494249
3493.000000	74.501317
3492.000000	74.510681
3491.000000	74.523400
3490.000000	74.538905
3489.000000	74.554605
3488.000000	74.567235
3487.000000	74.574180
3486.000000	74.574261
3485.000000	74.569107
3484.000000	74.564116
3483.000000	74.566017
3482.000000	74.577237
3481.000000	74.593099
3480.000000	74.605485
3479.000000	74.609111
3478.000000	74.604046
3477.000000	74.593805
3476.000000	74.582474
3475.000000	74.572809
3474.000000	74.566068
3473.000000	74.563077
3472.000000	74.564490
3471.000000	74.569143
3470.000000	74.572467
3469.000000	74.568292
3468.000000	74.553268
3467.000000	74.528873
3466.000000	74.499351
3465.000000	74.469182
3464.000000	74.442477
3463.000000	74.422126
3462.000000	74.407501
3461.000000	74.394057
3460.000000	74.376738
3459.000000	74.353573
3458.000000	74.325693
3457.000000	74.294935
3456.000000	74.262615
3455.000000	74.229756
3454.000000	74.196946
3453.000000	74.164066
3452.000000	74.130346
3451.000000	74.094445
3450.000000	74.054788
3449.000000	74.010878
3448.000000	73.964431
3447.000000	73.917759
3446.000000	73.871131
3445.000000	73.823437
3444.000000	73.775266
3443.000000	73.729294
3442.000000	73.687017
3441.000000	73.646615
3440.000000	73.604748
3439.000000	73.558992
3438.000000	73.507604
3437.000000	73.448477
3436.000000	73.380430
3435.000000	73.305163
3434.000000	73.226564
3433.000000	73.148301
3432.000000	73.071484
3431.000000	72.993872
3430.000000	72.911161
3429.000000	72.820107
3428.000000	72.721350
3427.000000	72.618360
3426.000000	72.514121
3425.000000	72.409618
3424.000000	72.304886
3423.000000	72.199825
3422.000000	72.093209
3421.000000	71.982444
3420.000000	71.865230
3419.000000	71.740998
3418.000000	71.610894
3417.000000	71.477097
3416.000000	71.342067
3415.000000	71.206867
3414.000000	71.069652
3413.000000	70.927170
3412.000000	70.777542
3411.000000	70.620581
3410.000000	70.455587
3409.000000	70.280771
3408.000000	70.096055
3407.000000	69.904830
3406.000000	69.712350
3405.000000	69.522856
3404.000000	69.337344
3403.000000	69.152311
3402.000000	68.959715
3401.000000	68.750500
3400.000000	68.520488
3399.000000	68.273109
3398.000000	68.016470
3397.000000	67.758016
3396.000000	67.501619
3395.000000	67.247882
3394.000000	66.994550
3393.000000	66.736608
3392.000000	66.467639
3391.000000	66.182717
3390.000000	65.881505
3389.000000	65.568059
3388.000000	65.247653
3387.000000	64.923551
3386.000000	64.596619
3385.000000	64.267593
3384.000000	63.937376
3383.000000	63.605161
3382.000000	63.267415
3381.000000	62.919734
3380.000000	62.559497
3379.000000	62.186292
3378.000000	61.801315
3377.000000	61.407449
3376.000000	61.008810
3375.000000	60.609223
3374.000000	60.210576
3373.000000	59.812258
3372.000000	59.411256
3371.000000	59.002143
3370.000000	58.579439
3369.000000	58.141014
3368.000000	57.689365
3367.000000	57.229763
3366.000000	56.767650
3365.000000	56.307592
3364.000000	55.851828
3363.000000	55.398466
3362.000000	54.942331
3361.000000	54.478545
3360.000000	54.005276
3359.000000	53.523424
3358.000000	53.035313
3357.000000	52.544543
3356.000000	52.055072
3355.000000	51.569393
3354.000000	51.087682
3353.000000	50.608275
3352.000000	50.127899
3351.000000	49.642099
3350.000000	49.147896
3349.000000	48.646618
3348.000000	48.142677
3347.000000	47.639816
3346.000000	47.139833
3345.000000	46.644161
3344.000000	46.153883
3343.000000	45.667898
3342.000000	45.183182
3341.000000	44.697058
3340.000000	44.207855
3339.000000	43.714314
3338.000000	43.216982
3337.000000	42.720023
3336.000000	42.228923
3335.000000	41.746029
3334.000000	41.270046
3333.000000	40.799166
3332.000000	40.331941
3331.000000	39.865855
3330.000000	39.398183
3329.000000	38.928688
3328.000000	38.459535
3327.000000	37.992741
3326.000000	37.530119
3325.000000	37.074785
3324.000000	36.629312
3323.000000	36.192554
3322.000000	35.760647
3321.000000	35.330965
3320.000000	34.903095
3319.000000	34.476644
3318.000000	34.051836
3317.000000	33.631454
3316.000000	33.219476
3315.000000	32.817798
3314.000000	32.426092
3313.000000	32.044053
3312.000000	31.670834
3311.000000	31.303440
3310.000000	30.939457
3309.000000	30.580425
3308.000000	30.230657
3307.000000	29.893431
3306.000000	29.570882
3305.000000	29.266371
3304.000000	28.981847
3303.000000	28.714603
3302.000000	28.459311
3301.000000	28.212839
3300.000000	27.974911
3299.000000	27.745097
3298.000000	27.523475
3297.000000	27.313193
3296.000000	27.118248
3295.000000	26.939975
3294.000000	26.777539
3293.000000	26.631088
3292.000000	26.501164
3291.000000	26.385244
3290.000000	26.279613
3289.000000	26.182650
3288.000000	26.094485
3287.000000	26.014658
3286.000000	25.942705
3285.000000	25.880595
3284.000000	25.830152
3283.000000	25.789666
3282.000000	25.755805
3281.000000	25.727302
3280.000000	25.704272
3279.000000	25.685025
3278.000000	25.667351
3277.000000	25.652047
3276.000000	25.641655
3275.000000	25.636827
3274.000000	25.636512
3273.000000	25.640710
3272.000000	25.650186
3271.000000	25.664110
3270.000000	25.680877
3269.000000	25.700115
3268.000000	25.721517
3267.000000	25.743352
3266.000000	25.764541
3265.000000	25.786891
3264.000000	25.812660
3263.000000	25.841219
3262.000000	25.870798
3261.000000	25.901356
3260.000000	25.933110
3259.000000	25.964135
3258.000000	25.992606
3257.000000	26.020252
3256.000000	26.050476
3255.000000	26.084435
3254.000000	26.121342
3253.000000	26.160982
3252.000000	26.202914
3251.000000	26.244602
3250.000000	26.283408
3249.000000	26.319629
3248.000000	26.355330
3247.000000	26.391589
3246.000000	26.429021
3245.000000	26.469139
3244.000000	26.512499
3243.000000	26.556924
3242.000000	26.600080
3241.000000	26.642169
3240.000000	26.684029
3239.000000	26.724417
3238.000000	26.761787
3237.000000	26.796939
3236.000000	26.831555
3235.000000	26.865886
3234.000000	26.900231
3233.000000	26.936649
3232.000000	26.976301
3231.000000	27.016831
3230.000000	27.055049
3229.000000	27.090535
3228.000000	27.124263
3227.000000	27.155731
3226.000000	27.184178
3225.000000	27.210934
3224.000000	27.237614
3223.000000	27.263586
3222.000000	27.287601
3221.000000	27.310259
3220.000000	27.332384
3219.000000	27.352624
3218.000000	27.369380
3217.000000	27.383371
3216.000000	27.395930
3215.000000	27.406587
3214.000000	27.414590
3213.000000	27.421165
3212.000000	27.427604
3211.000000	27.432832
3210.000000	27.435322
3209.000000	27.435435
3208.000000	27.433717
3207.000000	27.428796
3206.000000	27.419489
3205.000000	27.407302
3204.000000	27.394106
3203.000000	27.379245
3202.000000	27.361359
3201.000000	27.341096
3200.000000	27.319653
3199.000000	27.296235
3198.000000	27.269657
3197.000000	27.240688
3196.000000	27.210347
3195.000000	27.177827
3194.000000	27.142361
3193.000000	27.105420
3192.000000	27.068662
3191.000000	27.031354
3190.000000	26.992291
3189.000000	26.952176
3188.000000	26.911888
3187.000000	26.870368
3186.000000	26.826639
3185.000000	26.782027
3184.000000	26.737958
3183.000000	26.693562
3182.000000	26.647821
3181.000000	26.602125
3180.000000	26.558305
3179.000000	26.516074
3178.000000	26.474642
3177.000000	26.434775
3176.000000	26.396939
3175.000000	26.359518
3174.000000	26.321406
3173.000000	26.284336
3172.000000	26.250348
3171.000000	26.219120
3170.000000	26.189944
3169.000000	26.163959
3168.000000	26.142000
3167.000000	26.122348
3166.000000	26.103336
3165.000000	26.085915
3164.000000	26.071293
3163.000000	26.058409
3162.000000	26.046151
3161.000000	26.036076
3160.000000	26.030203
3159.000000	26.028142
3158.000000	26.028843
3157.000000	26.032761
3156.000000	26.040019
3155.000000	26.048615
3154.000000	26.057140
3153.000000	26.067535
3152.000000	26.082499
3151.000000	26.102318
3150.000000	26.126207
3149.000000	26.154499
3148.000000	26.187211
3147.000000	26.222352
3146.000000	26.258207
3145.000000	26.295314
3144.000000	26.334173
3143.000000	26.373450
3142.000000	26.412498
3141.000000	26.453590
3140.000000	26.499326
3139.000000	26.549792
3138.000000	26.604314
3137.000000	26.663321
3136.000000	26.726352
3135.000000	26.790696
3134.000000	26.854247
3133.000000	26.917951
3132.000000	26.983298
3131.000000	27.050020
3130.000000	27.118335
3129.000000	27.190629
3128.000000	27.268555
3127.000000	27.350407
3126.000000	27.433615
3125.000000	27.517579
3124.000000	27.601958
3123.000000	27.684888
3122.000000	27.765569
3121.000000	27.846612
3120.000000	27.931524
3119.000000	28.021431
3118.000000	28.116162
3117.000000	28.215952
3116.000000	28.319888
3115.000000	28.424958
3114.000000	28.528804
3113.000000	28.631797
3112.000000	28.734812
3111.000000	28.837442
3110.000000	28.940305
3109.000000	29.046429
3108.000000	29.158021
3107.000000	29.273730
3106.000000	29.390847
3105.000000	29.508152
3104.000000	29.624856
3103.000000	29.739377
3102.000000	29.851452
3101.000000	29.963429
3100.000000	30.077658
3099.000000	30.194427
3098.000000	30.313918
3097.000000	30.437482
3096.000000	30.564864
3095.000000	30.692674
3094.000000	30.817739
3093.000000	30.940165
3092.000000	31.061488
3091.000000	31.182199
3090.000000	31.302965
3089.000000	31.425863
3088.000000	31.552150
3087.000000	31.680544
3086.000000	31.809372
3085.000000	31.938455
3084.000000	32.067348
3083.000000	32.194041
3082.000000	32.317456
3081.000000	32.439310
3080.000000	32.561938
3079.000000	32.686118
3078.000000	32.812413
3077.000000	32.942137
3076.000000	33.075101
3075.000000	33.208387
3074.000000	33.339161
3073.000000	33.466999
3072.000000	33.592329
3071.000000	33.714890
3070.000000	33.835447
3069.000000	33.956794
3068.000000	34.081168
3067.000000	34.208219
3066.000000	34.336659
3065.000000	34.465786
3064.000000	34.594043
3063.000000	34.718637
3062.000000	34.838460
3061.000000	34.955625
3060.000000	35.072722
3059.000000	35.190525
3058.000000	35.309513
3057.000000	35.431031
3056.000000	35.555117
3055.000000	35.679190
3054.000000	35.800646
3053.000000	35.919146
3052.000000	36.035206
3051.000000	36.148862
3050.000000	36.261228
3049.000000	36.375035
3048.000000	36.491778
3047.000000	36.609991
3046.000000	36.727720
3045.000000	36.844686
3044.000000	36.960653
3043.000000	37.074028
3042.000000	37.183985
3041.000000	37.292171
3040.000000	37.400681
3039.000000	37.509915
3038.000000	37.619716
3037.000000	37.730609
3036.000000	37.842309
3035.000000	37.952940
3034.000000	38.061373
3033.000000	38.168731
3032.000000	38.276187
3031.000000	38.383120
3030.000000	38.488942
3029.000000	38.594877
3028.000000	38.702265
3027.000000	38.810659
3026.000000	38.918955
3025.000000	39.026817
3024.000000	39.133658
3023.000000	39.237944
3022.000000	39.339031
3021.000000	39.438260
3020.000000	39.537119
3019.000000	39.635751
3018.000000	39.734276
3017.000000	39.833677
3016.000000	39.934019
3015.000000	40.033610
3014.000000	40.131282
3013.000000	40.228148
3012.000000	40.325846
3011.000000	40.424660
3010.000000	40.524348
3009.000000	40.625139
3008.000000	40.726661
3007.000000	40.827471
3006.000000	40.926714
3005.000000	41.024818
3004.000000	41.121747
3003.000000	41.216377
3002.000000	41.308606
3001.000000	41.400214
3000.000000	41.492558
2999.000000	41.585101
2998.000000	41.677314
2997.000000	41.770067
2996.000000	41.863765
2995.000000	41.956904
2994.000000	42.047998
2993.000000	42.137627
2992.000000	42.227322
2991.000000	42.317818
2990.000000	42.409490
2989.000000	42.502921
2988.000000	42.597590
2987.000000	42.691333
2986.000000	42.782276
2985.000000	42.870384
2984.000000	42.956306
2983.000000	43.040307
2982.000000	43.123312
2981.000000	43.207439
2980.000000	43.294136
2979.000000	43.382771
2978.000000	43.471822
2977.000000	43.560226
2976.000000	43.646948
2975.000000	43.730979
2974.000000	43.812956
2973.000000	43.895335
2972.000000	43.979968
2971.000000	44.066646
2970.000000	44.154718
2969.000000	44.244338
2968.000000	44.334947
2967.000000	44.424189
2966.000000	44.509800
2965.000000	44.591561
2964.000000	44.670576
2963.000000	44.747982
2962.000000	44.825398
2961.000000	44.904953
2960.000000	44.987481
2959.000000	45.071606
2958.000000	45.155343
2957.000000	45.237405
2956.000000	45.316503
2955.000000	45.391316
2954.000000	45.462443
2953.000000	45.532975
2952.000000	45.606081
2951.000000	45.682858
2950.000000	45.762925
2949.000000	45.845272
2948.000000	45.927718
2947.000000	46.007235
2946.000000	46.082216
2945.000000	46.153556
2944.000000	46.223151
2943.000000	46.292610
2942.000000	46.363798
2941.000000	46.438634
2940.000000	46.517197
2939.000000	46.597254
2938.000000	46.676351
2937.000000	46.753073
2936.000000	46.826046
2935.000000	46.893910
2934.000000	46.957479
2933.000000	47.020360
2932.000000	47.086244
2931.000000	47.156746
2930.000000	47.232122
2929.000000	47.311879
2928.000000	47.393397
2927.000000	47.471932
2926.000000	47.543741
2925.000000	47.608395
2924.000000	47.667775
2923.000000	47.724508
2922.000000	47.782178
2921.000000	47.844639
2920.000000	47.913264
2919.000000	47.985813
2918.000000	48.058713
2917.000000	48.129177
2916.000000	48.194755
2915.000000	48.253357
2914.000000	48.305447
2913.000000	48.355140
2912.000000	48.407773
2911.000000	48.466794
2910.000000	48.533045
2909.000000	48.605067
2908.000000	48.679001
2907.000000	48.749629
2906.000000	48.813192
2905.000000	48.869230
2904.000000	48.919772
2903.000000	48.968048
2902.000000	49.018125
2901.000000	49.074294
2900.000000	49.138253
2899.000000	49.208154
2898.000000	49.279789
2897.000000	49.348250
2896.000000	49.409087
2895.000000	49.460142
2894.000000	49.503672
2893.000000	49.545630
2892.000000	49.591920
2891.000000	49.645748
2890.000000	49.707762
2889.000000	49.776441
2888.000000	49.847512
2887.000000	49.914867
2886.000000	49.973925
2885.000000	50.023860
2884.000000	50.066813
2883.000000	50.106608
2882.000000	50.148474
2881.000000	50.197694
2880.000000	50.256464
2879.000000	50.322538
2878.000000	50.391686
2877.000000	50.460317
2876.000000	50.525126
2875.000000	50.582093
2874.000000	50.628294
2873.000000	50.665058
2872.000000	50.698612
2871.000000	50.737139
2870.000000	50.786647
2869.000000	50.847753
2868.000000	50.915058
2867.000000	50.980152
2866.000000	51.036479
2865.000000	51.082305
2864.000000	51.120493
2863.000000	51.156587
2862.000000	51.196666
2861.000000	51.244754
2860.000000	51.301008
2859.000000	51.362465
2858.000000	51.425398
2857.000000	51.486137
2856.000000	51.540725
2855.000000	51.586263
2854.000000	51.623774
2853.000000	51.658677
2852.000000	51.697823
2851.000000	51.746270
2850.000000	51.805742
2849.000000	51.873637
2848.000000	51.943044
2847.000000	52.005914
2846.000000	52.057739
2845.000000	52.099168
2844.000000	52.134192
2843.000000	52.168567
2842.000000	52.209160
2841.000000	52.261200
2840.000000	52.324213
2839.000000	52.391920
2838.000000	52.457242
2837.000000	52.516331
2836.000000	52.567644
2835.000000	52.609986
2834.000000	52.643759
2833.000000	52.673155
2832.000000	52.705091
2831.000000	52.745726
2830.000000	52.798110
2829.000000	52.861490
2828.000000	52.931294
2827.000000	53.000405
2826.000000	53.062202
2825.000000	53.113325
2824.000000	53.154374
2823.000000	53.189326
2822.000000	53.224641
2821.000000	53.267123
2820.000000	53.320557
2819.000000	53.383717
2818.000000	53.451463
2817.000000	53.517273
2816.000000	53.575294
2815.000000	53.622241
2814.000000	53.659178
2813.000000	53.691311
2812.000000	53.725130
2811.000000	53.765415
2810.000000	53.814218
2809.000000	53.870896
2808.000000	53.931876
2807.000000	53.991288
2806.000000	54.043287
2805.000000	54.084576
2804.000000	54.115397
2803.000000	54.139510
2802.000000	54.163460
2801.000000	54.194255
2800.000000	54.235704
2799.000000	54.286434
2798.000000	54.341235
2797.000000	54.393896
2796.000000	54.439263
2795.000000	54.474665
2794.000000	54.501151
2793.000000	54.523416
2792.000000	54.547731
2791.000000	54.579312
2790.000000	54.620796
2789.000000	54.671588
2788.000000	54.727740
2787.000000	54.783281
2786.000000	54.832815
2785.000000	54.873527
2784.000000	54.905454
2783.000000	54.931282
2782.000000	54.956100
2781.000000	54.985855
2780.000000	55.024397
2779.000000	55.071512
2778.000000	55.123434
2777.000000	55.174439
2776.000000	55.218328
2775.000000	55.250358
2774.000000	55.269607
2773.000000	55.279804
2772.000000	55.287174
2771.000000	55.297321
2770.000000	55.313400
2769.000000	55.335595
2768.000000	55.361062
2767.000000	55.384616
2766.000000	55.400754
2765.000000	55.405860
2764.000000	55.399333
2763.000000	55.383902
2762.000000	55.365042
2761.000000	55.349088
2760.000000	55.340530
2759.000000	55.340336
2758.000000	55.346264
2757.000000	55.353960
2756.000000	55.358185
2755.000000	55.354760
2754.000000	55.342675
2753.000000	55.324493
2752.000000	55.304424
2751.000000	55.286167
2750.000000	55.271831
2749.000000	55.261199
2748.000000	55.251267
2747.000000	55.237087
2746.000000	55.213993
2745.000000	55.179323
2744.000000	55.132577
2743.000000	55.075637
2742.000000	55.013259
2741.000000	54.951946
2740.000000	54.897105
2739.000000	54.851118
2738.000000	54.814036
2737.000000	54.785235
2736.000000	54.763919
2735.000000	54.749329
2734.000000	54.742021
2733.000000	54.744356
2732.000000	54.759532
2731.000000	54.790373
2730.000000	54.838391
2729.000000	54.903232
2728.000000	54.981780
2727.000000	55.068603
2726.000000	55.158327
2725.000000	55.247254
2724.000000	55.333540
2723.000000	55.416828
2722.000000	55.498149
2721.000000	55.579395
2720.000000	55.661765
2719.000000	55.744737
2718.000000	55.826503
2717.000000	55.904785
2716.000000	55.977156
2715.000000	56.041731
2714.000000	56.098016
2713.000000	56.146918
2712.000000	56.189864
2711.000000	56.228071
2710.000000	56.262796
2709.000000	56.295039
2708.000000	56.324563
2707.000000	56.350018
2706.000000	56.370163
2705.000000	56.384889
2704.000000	56.394781
2703.000000	56.400509
2702.000000	56.403187
2701.000000	56.404331
2700.000000	56.405039
2699.000000	56.405495
2698.000000	56.405528
2697.000000	56.405218
2696.000000	56.404519
2695.000000	56.403033
2694.000000	56.400612
2693.000000	56.397664
2692.000000	56.394532
2691.000000	56.390977
2690.000000	56.386612
2689.000000	56.381314
2688.000000	56.374956
2687.000000	56.367411
2686.000000	56.359209
2685.000000	56.351611
2684.000000	56.345578
2683.000000	56.341010
2682.000000	56.337159
2681.000000	56.333124
2680.000000	56.327745
2679.000000	56.319933
2678.000000	56.309895
2677.000000	56.299668
2676.000000	56.292022
2675.000000	56.289043
2674.000000	56.291752
2673.000000	56.300318
2672.000000	56.313842
2671.000000	56.330447
2670.000000	56.348140
2669.000000	56.365515
2668.000000	56.381992
2667.000000	56.397918
2666.000000	56.414727
2665.000000	56.434288
2664.000000	56.457386
2663.000000	56.482963
2662.000000	56.508717
2661.000000	56.531867
2660.000000	56.549568
2659.000000	56.559859
2658.000000	56.563046
2657.000000	56.562065
2656.000000	56.561139
2655.000000	56.564089
2654.000000	56.573443
2653.000000	56.589825
2652.000000	56.611469
2651.000000	56.634788
2650.000000	56.656173
2649.000000	56.673595
2648.000000	56.687467
2647.000000	56.701000
2646.000000	56.719799
2645.000000	56.749985
2644.000000	56.795020
2643.000000	56.854225
2642.000000	56.923617
2641.000000	56.997359
2640.000000	57.069031
2639.000000	57.133145
2638.000000	57.187334
2637.000000	57.233382
2636.000000	57.275983
2635.000000	57.320373
2634.000000	57.370326
2633.000000	57.426668
2632.000000	57.486494
2631.000000	57.544001
2630.000000	57.592664
2629.000000	57.627839
2628.000000	57.648406
2627.000000	57.657237
2626.000000	57.660600
2625.000000	57.665875
2624.000000	57.678697
2623.000000	57.701001
2622.000000	57.730603
2621.000000	57.761949
2620.000000	57.787509
2619.000000	57.800576
2618.000000	57.798307
2617.000000	57.782847
2616.000000	57.760065
2615.000000	57.737051
2614.000000	57.719759
2613.000000	57.710892
2612.000000	57.708277
2611.000000	57.705632
2610.000000	57.695409
2609.000000	57.672132
2608.000000	57.634720
2607.000000	57.587401
2606.000000	57.538976
2605.000000	57.499952
2604.000000	57.478578
2603.000000	57.478201
2602.000000	57.497209
2601.000000	57.529797
2600.000000	57.567429
2599.000000	57.601802
2598.000000	57.628381
2597.000000	57.648683
2596.000000	57.668887
2595.000000	57.696805
2594.000000	57.738942
2593.000000	57.797768
2592.000000	57.870241
2591.000000	57.948415
2590.000000	58.022433
2589.000000	58.084178
2588.000000	58.129959
2587.000000	58.161972
2586.000000	58.187937
2585.000000	58.218349
2584.000000	58.262254
2583.000000	58.323777
2582.000000	58.401044
2581.000000	58.487034
2580.000000	58.571896
2579.000000	58.646543
2578.000000	58.706219
2577.000000	58.752217
2576.000000	58.790978
2575.000000	58.831644
2574.000000	58.882948
2573.000000	58.949712
2572.000000	59.030281
2571.000000	59.116874
2570.000000	59.198947
2569.000000	59.267140
2568.000000	59.316226
2567.000000	59.346583
2566.000000	59.364299
2565.000000	59.379210
2564.000000	59.400678
2563.000000	59.433544
2562.000000	59.475970
2561.000000	59.519997
2560.000000	59.554456
2559.000000	59.568615
2558.000000	59.556305
2557.000000	59.518149
2556.000000	59.461531
2555.000000	59.398880
2554.000000	59.344479
2553.000000	59.310582
2552.000000	59.303530
2551.000000	59.322127
2550.000000	59.358989
2549.000000	59.404437
2548.000000	59.450296
2547.000000	59.492774
2546.000000	59.533843
2545.000000	59.579308
2544.000000	59.635771
2543.000000	59.707030
2542.000000	59.791894
2541.000000	59.884023
2540.000000	59.973527
2539.000000	60.050419
2538.000000	60.108401
2537.000000	60.147261
2536.000000	60.172707
2535.000000	60.194318
2534.000000	60.222208
2533.000000	60.263306
2532.000000	60.318647
2531.000000	60.382833
2530.000000	60.446582
2529.000000	60.500408
2528.000000	60.538186
2527.000000	60.559377
2526.000000	60.569246
2525.000000	60.576979
2524.000000	60.592242
2523.000000	60.621561
2522.000000	60.665913
2521.000000	60.720233
2520.000000	60.775222
2519.000000	60.821042
2518.000000	60.851296
2517.000000	60.865445
2516.000000	60.868556
2515.000000	60.869234
2514.000000	60.876624
2513.000000	60.897302
2512.000000	60.932834
2511.000000	60.979019
2510.000000	61.027458
2509.000000	61.068775
2508.000000	61.096236
2507.000000	61.108297
2506.000000	61.109135
2505.000000	61.106973
2504.000000	61.110931
2503.000000	61.127506
2502.000000	61.158134
2501.000000	61.198619
2500.000000	61.240836
2499.000000	61.276097
2498.000000	61.298589
2497.000000	61.307297
2496.000000	61.305961
2495.000000	61.301673
2494.000000	61.302544
2493.000000	61.314759
2492.000000	61.339983
2491.000000	61.374620
2490.000000	61.411415
2489.000000	61.442561
2488.000000	61.462540
2487.000000	61.469921
2486.000000	61.467738
2485.000000	61.462504
2484.000000	61.461777
2483.000000	61.471236
2482.000000	61.492415
2481.000000	61.522103
2480.000000	61.553708
2479.000000	61.580093
2478.000000	61.596383
2477.000000	61.601553
2476.000000	61.598539
2475.000000	61.593113
2474.000000	61.591922
2473.000000	61.599950
2472.000000	61.618369
2471.000000	61.644114
2470.000000	61.671426
2469.000000	61.694398
2468.000000	61.708990
2467.000000	61.714281
2466.000000	61.712803
2465.000000	61.709726
2464.000000	61.710778
2463.000000	61.719839
2462.000000	61.737513
2461.000000	61.761129
2460.000000	61.785819
2459.000000	61.806324
2458.000000	61.818980
2457.000000	61.823297
2456.000000	61.822132
2455.000000	61.820403
2454.000000	61.823012
2453.000000	61.832961
2452.000000	61.850272
2451.000000	61.872135
2450.000000	61.894231
2449.000000	61.912565
2448.000000	61.924810
2447.000000	61.930957
2446.000000	61.933243
2445.000000	61.935478
2444.000000	61.941585
2443.000000	61.953807
2442.000000	61.971662
2441.000000	61.992374
2440.000000	62.012250
2439.000000	62.028158
2438.000000	62.038500
2437.000000	62.043727
2436.000000	62.046267
2435.000000	62.049738
2434.000000	62.057496
2433.000000	62.071203
2432.000000	62.090048
2431.000000	62.111088
2430.000000	62.130534
2429.000000	62.145413
2428.000000	62.154863
2427.000000	62.160452
2426.000000	62.165309
2425.000000	62.172679
2424.000000	62.184642
2423.000000	62.201474
2422.000000	62.221623
2421.000000	62.242173
2420.000000	62.259802
2419.000000	62.272236
2418.000000	62.279488
2417.000000	62.283970
2416.000000	62.289224
2415.000000	62.298285
2414.000000	62.312563
2413.000000	62.331479
2412.000000	62.352658
2411.000000	62.372795
2410.000000	62.389036
2409.000000	62.400265
2408.000000	62.407446
2407.000000	62.413118
2406.000000	62.420524
2405.000000	62.432583
2404.000000	62.450568
2403.000000	62.473182
2402.000000	62.497006
2401.000000	62.518202
2400.000000	62.534204
2399.000000	62.544523
2398.000000	62.550802
2397.000000	62.556431
2396.000000	62.565452
2395.000000	62.580791
2394.000000	62.602843
2393.000000	62.629397
2392.000000	62.656649
2391.000000	62.680650
2390.000000	62.698783
2389.000000	62.710885
2388.000000	62.719600
2387.000000	62.729429
2386.000000	62.744978
2385.000000	62.769323
2384.000000	62.802530
2383.000000	62.841649
2382.000000	62.881626
2381.000000	62.917336
2380.000000	62.945645
2379.000000	62.966066
2378.000000	62.981022
2377.000000	62.995030
2376.000000	63.013132
2375.000000	63.038652
2374.000000	63.072042
2373.000000	63.110831
2372.000000	63.150303
2371.000000	63.184974
2370.000000	63.210884
2369.000000	63.228230
2368.000000	63.241476
2367.000000	63.256886
2366.000000	63.279819
2365.000000	63.312723
2364.000000	63.355248
2363.000000	63.402198
2362.000000	63.445733
2361.000000	63.481307
2360.000000	63.506650
2359.000000	63.522759
2358.000000	63.534092
2357.000000	63.546427
2356.000000	63.567771
2355.000000	63.600406
2354.000000	63.643780
2353.000000	63.693922
2352.000000	63.745263
2351.000000	63.791738
2350.000000	63.825513
2349.000000	63.845873
2348.000000	63.860392
2347.000000	63.882080
2346.000000	63.921062
2345.000000	63.972661
2344.000000	64.028041
2343.000000	64.077681
2342.000000	64.120367
2341.000000	64.155673
2340.000000	64.181339
2339.000000	64.198673
2338.000000	64.211725
2337.000000	64.228591
2336.000000	64.254302
2335.000000	64.292988
2334.000000	64.342319
2333.000000	64.398846
2332.000000	64.452522
2331.000000	64.498439
2330.000000	64.529320
2329.000000	64.548784
2328.000000	64.561249
2327.000000	64.576603
2326.000000	64.602721
2325.000000	64.642859
2324.000000	64.695966
2323.000000	64.754330
2322.000000	64.808844
2321.000000	64.852084
2320.000000	64.880908
2319.000000	64.899381
2318.000000	64.912449
2317.000000	64.929487
2316.000000	64.956086
2315.000000	64.998420
2314.000000	65.052869
2313.000000	65.113546
2312.000000	65.169140
2311.000000	65.214053
2310.000000	65.244062
2309.000000	65.262094
2308.000000	65.273111
2307.000000	65.286592
2306.000000	65.309088
2305.000000	65.344439
2304.000000	65.390199
2303.000000	65.441598
2302.000000	65.489996
2301.000000	65.528436
2300.000000	65.552195
2299.000000	65.563924
2298.000000	65.569660
2297.000000	65.578469
2296.000000	65.597217
2295.000000	65.629734
2294.000000	65.673715
2293.000000	65.722419
2292.000000	65.767350
2291.000000	65.801766
2290.000000	65.822547
2289.000000	65.831130
2288.000000	65.834109
2287.000000	65.840613
2286.000000	65.858356
2285.000000	65.889909
2284.000000	65.932939
2283.000000	65.981280
2282.000000	66.026938
2281.000000	66.062313
2280.000000	66.083707
2279.000000	66.093098
2278.000000	66.097082
2277.000000	66.104249
2276.000000	66.122050
2275.000000	66.154112
2274.000000	66.198163
2273.000000	66.247125
2272.000000	66.292370
2271.000000	66.327096
2270.000000	66.348115
2269.000000	66.356979
2268.000000	66.360120
2267.000000	66.366498
2266.000000	66.383332
2265.000000	66.413315
2264.000000	66.454354
2263.000000	66.500420
2262.000000	66.542993
2261.000000	66.573961
2260.000000	66.589766
2259.000000	66.592850
2258.000000	66.589938
2257.000000	66.589055
2256.000000	66.597154
2255.000000	66.617614
2254.000000	66.647979
2253.000000	66.680823
2252.000000	66.707172
2251.000000	66.720180
2250.000000	66.716508
2249.000000	66.697416
2248.000000	66.669054
2247.000000	66.640467
2246.000000	66.619050
2245.000000	66.607126
2244.000000	66.601711
2243.000000	66.596039
2242.000000	66.581449
2241.000000	66.550561
2240.000000	66.500889
2239.000000	66.436375
2238.000000	66.365576
2237.000000	66.298672
2236.000000	66.244836
2235.000000	66.209553
2234.000000	66.192503
2233.000000	66.187818
2232.000000	66.187217
2231.000000	66.183465
2230.000000	66.172485
2229.000000	66.154665
2228.000000	66.135041
2227.000000	66.121184
2226.000000	66.118996
2225.000000	66.129866
2224.000000	66.150581
2223.000000	66.174861
2222.000000	66.195018
2221.000000	66.204424
2220.000000	66.200528
2219.000000	66.186145
2218.000000	66.167838
2217.000000	66.153168
2216.000000	66.148332
2215.000000	66.156136
2214.000000	66.174484
2213.000000	66.197028
2212.000000	66.216035
2211.000000	66.225424
2210.000000	66.222457
2209.000000	66.208785
2208.000000	66.190605
2207.000000	66.176486
2206.000000	66.173241
2205.000000	66.182966
2204.000000	66.202864
2203.000000	66.226795
2202.000000	66.247171
2201.000000	66.257519
2200.000000	66.255231
2199.000000	66.242666
2198.000000	66.225845
2197.000000	66.212179
2196.000000	66.207981
2195.000000	66.215772
2194.000000	66.232483
2193.000000	66.250727
2192.000000	66.262545
2191.000000	66.262567
2190.000000	66.249086
2189.000000	66.224465
2188.000000	66.195095
2187.000000	66.169331
2186.000000	66.153666
2185.000000	66.150183
2184.000000	66.156611
2183.000000	66.167689
2182.000000	66.176664
2181.000000	66.177774
2180.000000	66.169157
2179.000000	66.153989
2178.000000	66.138836
2177.000000	66.131048
2176.000000	66.136476
2175.000000	66.157296
2174.000000	66.190554
2173.000000	66.229187
2172.000000	66.265287
2171.000000	66.293014
2170.000000	66.309921
2169.000000	66.317806
2168.000000	66.322900
2167.000000	66.333517
2166.000000	66.355662
2165.000000	66.390271
2164.000000	66.433831
2163.000000	66.480336
2162.000000	66.522817
2161.000000	66.555403
2160.000000	66.576099
2159.000000	66.588016
2158.000000	66.597772
2157.000000	66.612703
2156.000000	66.638344
2155.000000	66.676166
2154.000000	66.722423
2153.000000	66.769761
2152.000000	66.810903
2151.000000	66.841249
2150.000000	66.859469
2149.000000	66.867826
2148.000000	66.872462
2147.000000	66.881467
2146.000000	66.900922
2145.000000	66.932190
2144.000000	66.972244
2143.000000	67.015145
2142.000000	67.053727
2141.000000	67.082299
2140.000000	67.099747
2139.000000	67.110104
2138.000000	67.120219
2137.000000	67.137050
2136.000000	67.165666
2135.000000	67.207012
2134.000000	67.256590
2133.000000	67.306429
2132.000000	67.349341
2131.000000	67.381460
2130.000000	67.402031
2129.000000	67.413384
2128.000000	67.421557
2127.000000	67.434534
2126.000000	67.457956
2125.000000	67.492278
2124.000000	67.533579
2123.000000	67.575513
2122.000000	67.611009
2121.000000	67.634872
2120.000000	67.646710
2119.000000	67.651109
2118.000000	67.655018
2117.000000	67.665475
2116.000000	67.688325
2115.000000	67.725772
2114.000000	67.773798
2113.000000	67.823431
2112.000000	67.865860
2111.000000	67.896145
2110.000000	67.913394
2109.000000	67.920448
2108.000000	67.924196
2107.000000	67.933338
2106.000000	67.953620
2105.000000	67.984975
2104.000000	68.022767
2103.000000	68.059992
2102.000000	68.088604
2101.000000	68.101997
2100.000000	68.098777
2099.000000	68.083570
2098.000000	68.064073
2097.000000	68.047648
2096.000000	68.039948
2095.000000	68.043019
2094.000000	68.053090
2093.000000	68.061875
2092.000000	68.061871
2091.000000	68.050150
2090.000000	68.028103
2089.000000	68.000076
2088.000000	67.973135
2087.000000	67.955697
2086.000000	67.953937
2085.000000	67.969053
2084.000000	67.997603
2083.000000	68.032965
2082.000000	68.066578
2081.000000	68.090782
2080.000000	68.103038
2079.000000	68.107480
2078.000000	68.111920
2077.000000	68.124087
2076.000000	68.150063
2075.000000	68.192611
2074.000000	68.248647
2073.000000	68.309564
2072.000000	68.365519
2071.000000	68.409946
2070.000000	68.440512
2069.000000	68.458786
2068.000000	68.471162
2067.000000	68.488562
2066.000000	68.522198
2065.000000	68.577487
2064.000000	68.650646
2063.000000	68.730588
2062.000000	68.804659
2061.000000	68.864362
2060.000000	68.908248
2059.000000	68.940708
2058.000000	68.968798
2057.000000	69.000530
2056.000000	69.043804
2055.000000	69.103186
2054.000000	69.176183
2053.000000	69.254062
2052.000000	69.326600
2051.000000	69.385900
2050.000000	69.427615
2049.000000	69.452511
2048.000000	69.467965
2047.000000	69.485462
2046.000000	69.514231
2045.000000	69.557441
2044.000000	69.613606
2043.000000	69.678505
2042.000000	69.744921
2041.000000	69.803735
2040.000000	69.848325
2039.000000	69.878326
2038.000000	69.899524
2037.000000	69.921660
2036.000000	69.955652
2035.000000	70.009141
2034.000000	70.082058
2033.000000	70.166582
2032.000000	70.251404
2031.000000	70.325799
2030.000000	70.382037
2029.000000	70.418625
2028.000000	70.442594
2027.000000	70.466670
2026.000000	70.501814
2025.000000	70.553464
2024.000000	70.621883
2023.000000	70.702173
2022.000000	70.782774
2021.000000	70.848572
2020.000000	70.889994
2019.000000	70.909632
2018.000000	70.920365
2017.000000	70.938079
2016.000000	70.974171
2015.000000	71.031953
2014.000000	71.108076
2013.000000	71.195825
2012.000000	71.286750
2011.000000	71.370926
2010.000000	71.438820
2009.000000	71.486462
2008.000000	71.519283
2007.000000	71.549187
2006.000000	71.587679
2005.000000	71.643036
2004.000000	71.719428
2003.000000	71.814300
2002.000000	71.916661
2001.000000	72.011339
2000.000000	72.087856
1999.000000	72.143595
1998.000000	72.181892
1997.000000	72.209046
1996.000000	72.233619
1995.000000	72.266166
1994.000000	72.317519
1993.000000	72.395085
1992.000000	72.496326
1991.000000	72.602776
1990.000000	72.688736
1989.000000	72.742619
1988.000000	72.773948
1987.000000	72.798925
1986.000000	72.826927
1985.000000	72.863477
1984.000000	72.917108
1983.000000	72.993295
1982.000000	73.084342
1981.000000	73.172442
1980.000000	73.242949
1979.000000	73.289367
1978.000000	73.311259
1977.000000	73.314833
1976.000000	73.315728
1975.000000	73.332604
1974.000000	73.375349
1973.000000	73.441698
1972.000000	73.521925
1971.000000	73.600850
1970.000000	73.659482
1969.000000	73.685923
1968.000000	73.687532
1967.000000	73.685850
1966.000000	73.696243
1965.000000	73.720610
1964.000000	73.760444
1963.000000	73.821629
1962.000000	73.902528
1961.000000	73.988866
1960.000000	74.063142
1959.000000	74.113018
1958.000000	74.132179
1957.000000	74.123622
1956.000000	74.104880
1955.000000	74.100859
1954.000000	74.126645
1953.000000	74.181884
1952.000000	74.258602
1951.000000	74.345616
1950.000000	74.423880
1949.000000	74.471945
1948.000000	74.481474
1947.000000	74.461031
1946.000000	74.425965
1945.000000	74.393143
1944.000000	74.385109
1943.000000	74.425603
1942.000000	74.517069
1941.000000	74.627819
1940.000000	74.719604
1939.000000	74.778006
1938.000000	74.804112
1937.000000	74.800571
1936.000000	74.776952
1935.000000	74.754256
1934.000000	74.754186
1933.000000	74.787323
1932.000000	74.851877
1931.000000	74.937523
1930.000000	75.024572
1929.000000	75.089969
1928.000000	75.120267
1927.000000	75.112718
1926.000000	75.072038
1925.000000	75.012987
1924.000000	74.968634
1923.000000	74.976351
1922.000000	75.043809
1921.000000	75.142897
1920.000000	75.245842
1919.000000	75.339517
1918.000000	75.407990
1917.000000	75.427960
1916.000000	75.393618
1915.000000	75.336473
1914.000000	75.299479
1913.000000	75.300108
1912.000000	75.331839
1911.000000	75.386642
1910.000000	75.459503
1909.000000	75.537556
1908.000000	75.599630
1907.000000	75.629069
1906.000000	75.625792
1905.000000	75.603877
1904.000000	75.587087
1903.000000	75.598231
1902.000000	75.646142
1901.000000	75.722014
1900.000000	75.806366
1899.000000	75.875754
1898.000000	75.909300
1897.000000	75.897764
1896.000000	75.855637
1895.000000	75.814043
1894.000000	75.793705
1893.000000	75.794976
1892.000000	75.816966
1891.000000	75.867790
1890.000000	75.950329
1889.000000	76.044092
1888.000000	76.107424
1887.000000	76.113775
1886.000000	76.074732
1885.000000	76.020861
1884.000000	75.980218
1883.000000	75.971209
1882.000000	75.999904
1881.000000	76.060914
1880.000000	76.140857
1879.000000	76.220758
1878.000000	76.278944
1877.000000	76.298774
1876.000000	76.279981
1875.000000	76.238279
1874.000000	76.191850
1873.000000	76.156147
1872.000000	76.146983
1871.000000	76.171957
1870.000000	76.219477
1869.000000	76.273023
1868.000000	76.325823
1867.000000	76.364637
1866.000000	76.374904
1865.000000	76.359485
1864.000000	76.333946
1863.000000	76.317239
1862.000000	76.325496
1861.000000	76.365300
1860.000000	76.430637
1859.000000	76.505386
1858.000000	76.567038
1857.000000	76.594344
1856.000000	76.579718
1855.000000	76.534466
1854.000000	76.481105
1853.000000	76.440485
1852.000000	76.427238
1851.000000	76.445231
1850.000000	76.485429
1849.000000	76.527768
1848.000000	76.560441
1847.000000	76.591085
1846.000000	76.626852
1845.000000	76.654797
1844.000000	76.655590
1843.000000	76.620076
1842.000000	76.558638
1841.000000	76.512931
1840.000000	76.517034
1839.000000	76.561079
1838.000000	76.607865
1837.000000	76.627996
1836.000000	76.614617
1835.000000	76.570983
1834.000000	76.503213
1833.000000	76.426003
1832.000000	76.363117
1831.000000	76.336147
1830.000000	76.362073
1829.000000	76.429573
1828.000000	76.487569
1827.000000	76.508967
1826.000000	76.501687
1825.000000	76.471444
1824.000000	76.419415
1823.000000	76.354416
1822.000000	76.300353
1821.000000	76.281677
1820.000000	76.302068
1819.000000	76.344335
1818.000000	76.381763
1817.000000	76.389922
1816.000000	76.356040
1815.000000	76.278478
1814.000000	76.165721
1813.000000	76.042288
1812.000000	75.947786
1811.000000	75.918756
1810.000000	75.956736
1809.000000	76.026796
1808.000000	76.092021
1807.000000	76.129617
1806.000000	76.124316
1805.000000	76.071654
1804.000000	75.987185
1803.000000	75.899450
1802.000000	75.834311
1801.000000	75.812909
1800.000000	75.840405
1799.000000	75.893578
1798.000000	75.932516
1797.000000	75.935329
1796.000000	75.914014
1795.000000	75.893500
1794.000000	75.878273
1793.000000	75.858143
1792.000000	75.846745
1791.000000	75.863135
1790.000000	75.886237
1789.000000	75.901201
1788.000000	75.920762
1787.000000	75.948189
1786.000000	75.958829
1785.000000	75.920800
1784.000000	75.823702
1783.000000	75.688119
1782.000000	75.554274
1781.000000	75.467466
1780.000000	75.449585
1779.000000	75.477734
1778.000000	75.499047
1777.000000	75.478977
1776.000000	75.421729
1775.000000	75.350481
1774.000000	75.273268
1773.000000	75.183777
1772.000000	75.114658
1771.000000	75.100614
1770.000000	75.119767
1769.000000	75.156142
1768.000000	75.204380
1767.000000	75.227877
1766.000000	75.183901
1765.000000	75.084720
1764.000000	74.983420
1763.000000	74.914985
1762.000000	74.873901
1761.000000	74.834077
1760.000000	74.779814
1759.000000	74.739706
1758.000000	74.743773
1757.000000	74.774087
1756.000000	74.777647
1755.000000	74.716791
1754.000000	74.607266
1753.000000	74.485197
1752.000000	74.363265
1751.000000	74.238861
1750.000000	74.119142
1749.000000	74.024258
1748.000000	73.980451
1747.000000	73.977667
1746.000000	73.962700
1745.000000	73.897211
1744.000000	73.800041
1743.000000	73.721858
1742.000000	73.682480
1741.000000	73.661245
1740.000000	73.637156
1739.000000	73.603616
1738.000000	73.554544
1737.000000	73.509641
1736.000000	73.493463
1735.000000	73.463866
1734.000000	73.351538
1733.000000	73.138512
1732.000000	72.854098
1731.000000	72.614534
1730.000000	72.495217
1729.000000	72.459777
1728.000000	72.430093
1727.000000	72.362118
1726.000000	72.247643
1725.000000	72.085298
1724.000000	71.887617
1723.000000	71.688380
1722.000000	71.511249
1721.000000	71.360249
1720.000000	71.222552
1719.000000	71.061687
1718.000000	70.861242
1717.000000	70.669740
1716.000000	70.506976
1715.000000	70.350404
1714.000000	70.182829
1713.000000	69.983497
1712.000000	69.757690
1711.000000	69.540773
1710.000000	69.351822
1709.000000	69.175739
1708.000000	68.991731
1707.000000	68.790376
1706.000000	68.572873
1705.000000	68.358300
1704.000000	68.177199
1703.000000	68.076703
1702.000000	68.071448
1701.000000	68.045292
1700.000000	67.837422
1699.000000	67.446672
1698.000000	67.013825
1697.000000	66.703760
1696.000000	66.562821
1695.000000	66.463626
1694.000000	66.233519
1693.000000	65.893688
1692.000000	65.556067
1691.000000	65.263625
1690.000000	65.005918
1689.000000	64.773328
1688.000000	64.574288
1687.000000	64.416708
1686.000000	64.269095
1685.000000	64.048685
1684.000000	63.796324
1683.000000	63.595775
1682.000000	63.337482
1681.000000	63.035131
1680.000000	62.785301
1679.000000	62.622918
1678.000000	62.525760
1677.000000	62.444120
1676.000000	62.318727
1675.000000	62.109174
1674.000000	61.811249
1673.000000	61.463652
1672.000000	61.142688
1671.000000	60.896145
1670.000000	60.718356
1669.000000	60.575382
1668.000000	60.409884
1667.000000	60.199284
1666.000000	59.977029
1665.000000	59.763567
1664.000000	59.546645
1663.000000	59.324942
1662.000000	59.114097
1661.000000	58.900498
1660.000000	58.670034
1659.000000	58.442588
1658.000000	58.236319
1657.000000	58.058984
1656.000000	57.925738
1655.000000	57.828961
1654.000000	57.695071
1653.000000	57.543432
1652.000000	57.336469
1651.000000	56.937235
1650.000000	56.526591
1649.000000	56.209452
1648.000000	55.961125
1647.000000	55.795283
1646.000000	55.722941
1645.000000	55.610222
1644.000000	55.390868
1643.000000	55.143577
1642.000000	54.925262
1641.000000	54.727341
1640.000000	54.528631
1639.000000	54.335883
1638.000000	54.163251
1637.000000	54.002689
1636.000000	53.867743
1635.000000	53.779879
1634.000000	53.644122
1633.000000	53.414043
1632.000000	53.171547
1631.000000	52.977241
1630.000000	52.823785
1629.000000	52.674425
1628.000000	52.518926
1627.000000	52.375369
1626.000000	52.246434
1625.000000	52.114732
1624.000000	51.973924
1623.000000	51.849045
1622.000000	51.749483
1621.000000	51.645401
1620.000000	51.537584
1619.000000	51.455115
1618.000000	51.400012
1617.000000	51.348729
1616.000000	51.289682
1615.000000	51.209348
1614.000000	51.110957
1613.000000	51.019853
1612.000000	50.948403
1611.000000	50.895819
1610.000000	50.857195
1609.000000	50.824889
1608.000000	50.794877
1607.000000	50.769536
1606.000000	50.745719
1605.000000	50.713376
1604.000000	50.674165
1603.000000	50.650396
1602.000000	50.658510
1601.000000	50.686250
1600.000000	50.712162
1599.000000	50.728093
1598.000000	50.731111
1597.000000	50.714138
1596.000000	50.681064
1595.000000	50.655640
1594.000000	50.656104
1593.000000	50.675568
1592.000000	50.701430
1591.000000	50.735741
1590.000000	50.780597
1589.000000	50.821739
1588.000000	50.842953
1587.000000	50.845396
1586.000000	50.838521
1585.000000	50.824010
1584.000000	50.804459
1583.000000	50.794176
1582.000000	50.802255
1581.000000	50.811918
1580.000000	50.803208
1579.000000	50.781583
1578.000000	50.761425
1577.000000	50.743363
1576.000000	50.732401
1575.000000	50.715587
1574.000000	50.657220
1573.000000	50.582116
1572.000000	50.537497
1571.000000	50.535382
1570.000000	50.560304
1569.000000	50.588763
1568.000000	50.574005
1567.000000	50.506044
1566.000000	50.431154
1565.000000	50.376481
1564.000000	50.344920
1563.000000	50.352222
1562.000000	50.434779
1561.000000	50.588135
1560.000000	50.703959
1559.000000	50.795149
1558.000000	51.041057
1557.000000	51.147177
1556.000000	51.085644
1555.000000	51.064745
1554.000000	51.136051
1553.000000	51.230376
1552.000000	51.309922
1551.000000	51.419717
1550.000000	51.599812
1549.000000	51.814877
1548.000000	51.994193
1547.000000	52.119212
1546.000000	52.212289
1545.000000	52.286416
1544.000000	52.363635
1543.000000	52.476978
1542.000000	52.635867
1541.000000	52.850813
1540.000000	53.204673
1539.000000	53.654161
1538.000000	53.931720
1537.000000	54.011148
1536.000000	54.055981
1535.000000	54.165735
1534.000000	54.365178
1533.000000	54.642220
1532.000000	54.928501
1531.000000	55.170509
1530.000000	55.399845
1529.000000	55.650399
1528.000000	55.918201
1527.000000	56.194282
1526.000000	56.464202
1525.000000	56.696808
1524.000000	56.895553
1523.000000	57.135212
1522.000000	57.509939
1521.000000	58.014831
1520.000000	58.472024
1519.000000	58.774058
1518.000000	59.017605
1517.000000	59.312892
1516.000000	59.667116
1515.000000	60.004838
1514.000000	60.297699
1513.000000	60.581683
1512.000000	60.866015
1511.000000	61.131556
1510.000000	61.377539
1509.000000	61.623770
1508.000000	61.916908
1507.000000	62.418333
1506.000000	63.154554
1505.000000	63.652848
1504.000000	63.790571
1503.000000	63.864159
1502.000000	64.055075
1501.000000	64.374349
1500.000000	64.759871
1499.000000	65.157043
1498.000000	65.544440
1497.000000	65.906408
1496.000000	66.204777
1495.000000	66.399921
1494.000000	66.512610
1493.000000	66.614344
1492.000000	66.758155
1491.000000	66.959506
1490.000000	67.225134
1489.000000	67.545079
1488.000000	67.857703
1487.000000	68.109847
1486.000000	68.282164
1485.000000	68.369667
1484.000000	68.399330
1483.000000	68.434032
1482.000000	68.526405
1481.000000	68.674898
1480.000000	68.840486
1479.000000	68.989289
1478.000000	69.089044
1477.000000	69.095678
1476.000000	69.000554
1475.000000	68.851575
1474.000000	68.695946
1473.000000	68.566456
1472.000000	68.497924
1471.000000	68.447086
1470.000000	68.331160
1469.000000	68.140237
1468.000000	67.894808
1467.000000	67.582547
1466.000000	67.143053
1465.000000	66.537484
1464.000000	65.833270
1463.000000	65.142261
1462.000000	64.528565
1461.000000	64.011154
1460.000000	63.593148
1459.000000	63.250387
1458.000000	62.900541
1457.000000	62.462351
1456.000000	61.897576
1455.000000	61.208756
1454.000000	60.480775
1453.000000	59.754786
1452.000000	59.032227
1451.000000	58.318958
1450.000000	57.570310
1449.000000	56.695637
1448.000000	55.663544
1447.000000	54.530187
1446.000000	53.324576
1445.000000	52.023660
1444.000000	50.632898
1443.000000	49.181103
1442.000000	47.657048
1441.000000	46.054994
1440.000000	44.428745
1439.000000	42.766845
1438.000000	40.848486
1437.000000	38.456905
1436.000000	35.832478
1435.000000	33.460989
1434.000000	31.453689
1433.000000	29.655875
1432.000000	28.019577
1431.000000	26.622894
1430.000000	25.509338
1429.000000	24.689170
1428.000000	24.238283
1427.000000	24.210475
1426.000000	24.552658
1425.000000	25.211829
1424.000000	26.192851
1423.000000	27.424656
1422.000000	28.754243
1421.000000	30.155692
1420.000000	31.753986
1419.000000	33.546457
1418.000000	35.256879
1417.000000	36.686618
1416.000000	37.937683
1415.000000	39.159260
1414.000000	40.363324
1413.000000	41.522500
1412.000000	42.674224
1411.000000	43.856643
1410.000000	45.032544
1409.000000	46.151278
1408.000000	47.219478
1407.000000	48.260623
1406.000000	49.273861
1405.000000	50.259541
1404.000000	51.221113
1403.000000	52.132469
1402.000000	52.982345
1401.000000	53.828001
1400.000000	54.739972
1399.000000	55.700122
1398.000000	56.613246
1397.000000	57.447745
1396.000000	58.278094
1395.000000	59.160871
1394.000000	60.044894
1393.000000	60.848477
1392.000000	61.577949
1391.000000	62.301967
1390.000000	63.065635
1389.000000	63.876572
1388.000000	64.711728
1387.000000	65.505942
1386.000000	66.177808
1385.000000	66.706818
1384.000000	67.144233
1383.000000	67.536752
1382.000000	67.889435
1381.000000	68.191450
1380.000000	68.425746
1379.000000	68.548517
1378.000000	68.497147
1377.000000	68.223324
1376.000000	67.696736
1375.000000	66.909980
1374.000000	65.915881
1373.000000	64.815231
1372.000000	63.697173
1371.000000	62.641473
1370.000000	61.755459
1369.000000	61.174271
1368.000000	61.006439
1367.000000	61.266344
1366.000000	61.889979
1365.000000	62.807889
1364.000000	63.974185
1363.000000	65.342940
1362.000000	66.823215
1361.000000	68.277002
1360.000000	69.583537
1359.000000	70.676114
1358.000000	71.517151
1357.000000	72.077163
1356.000000	72.334529
1355.000000	72.287647
1354.000000	71.965133
1353.000000	71.407231
1352.000000	70.640789
1351.000000	69.668864
1350.000000	68.482860
1349.000000	67.075728
1348.000000	65.438455
1347.000000	63.571051
1346.000000	61.497452
1345.000000	59.267577
1344.000000	56.946935
1343.000000	54.589001
1342.000000	52.213653
1341.000000	49.827228
1340.000000	47.483962
1339.000000	45.311295
1338.000000	43.444356
1337.000000	41.949797
1336.000000	40.825343
1335.000000	40.022527
1334.000000	39.439010
1333.000000	38.925561
1332.000000	38.324494
1331.000000	37.502696
1330.000000	36.361637
1329.000000	34.846754
1328.000000	32.966509
1327.000000	30.798611
1326.000000	28.465507
1325.000000	26.106852
1324.000000	23.879137
1323.000000	21.941542
1322.000000	20.401472
1321.000000	19.278455
1320.000000	18.526831
1319.000000	18.058909
1318.000000	17.755842
1317.000000	17.504003
1316.000000	17.245566
1315.000000	16.986515
1314.000000	16.745940
1313.000000	16.529682
1312.000000	16.348147
1311.000000	16.220540
1310.000000	16.158516
1309.000000	16.168735
1308.000000	16.279169
1307.000000	16.534205
1306.000000	16.955881
1305.000000	17.538499
1304.000000	18.272507
1303.000000	19.145918
1302.000000	20.124864
1301.000000	21.157645
1300.000000	22.206856
1299.000000	23.253081
1298.000000	24.274640
1297.000000	25.249574
1296.000000	26.174224
1295.000000	27.059564
1294.000000	27.910219
1293.000000	28.724056
1292.000000	29.505147
1291.000000	30.259704
1290.000000	30.975156
1289.000000	31.620082
1288.000000	32.161213
1287.000000	32.564829
1286.000000	32.797164
1285.000000	32.843548
1284.000000	32.738884
1283.000000	32.571587
1282.000000	32.450575
1281.000000	32.467974
1280.000000	32.676801
1279.000000	33.076684
1278.000000	33.613794
1277.000000	34.213527
1276.000000	34.820186
1275.000000	35.407268
1274.000000	35.964980
1273.000000	36.494003
1272.000000	37.007758
1271.000000	37.520559
1270.000000	38.031160
1269.000000	38.525636
1268.000000	38.993538
1267.000000	39.430325
1266.000000	39.831251
1265.000000	40.195047
1264.000000	40.532356
1263.000000	40.862100
1262.000000	41.198305
1261.000000	41.547588
1260.000000	41.912957
1259.000000	42.288475
1258.000000	42.655163
1257.000000	42.992427
1256.000000	43.293589
1255.000000	43.565365
1254.000000	43.818315
1253.000000	44.065390
1252.000000	44.323723
1251.000000	44.606725
1250.000000	44.913436
1249.000000	45.229943
1248.000000	45.539558
1247.000000	45.827263
1246.000000	46.080959
1245.000000	46.298219
1244.000000	46.491668
1243.000000	46.682394
1242.000000	46.887564
1241.000000	47.116086
1240.000000	47.369915
1239.000000	47.641106
1238.000000	47.910389
1237.000000	48.155759
1236.000000	48.364359
1235.000000	48.536010
1234.000000	48.680182
1233.000000	48.814287
1232.000000	48.960540
1231.000000	49.136238
1230.000000	49.344355
1229.000000	49.573795
1228.000000	49.807022
1227.000000	50.025458
1226.000000	50.213676
1225.000000	50.366605
1224.000000	50.494160
1223.000000	50.616599
1222.000000	50.755330
1221.000000	50.926758
1220.000000	51.138044
1219.000000	51.382279
1218.000000	51.638610
1217.000000	51.881432
1216.000000	52.091507
1215.000000	52.261541
1214.000000	52.397456
1213.000000	52.517854
1212.000000	52.648575
1211.000000	52.811462
1210.000000	53.014720
1209.000000	53.251654
1208.000000	53.504602
1207.000000	53.749420
1206.000000	53.962662
1205.000000	54.132041
1204.000000	54.262323
1203.000000	54.372345
1202.000000	54.487281
1201.000000	54.630397
1200.000000	54.814923
1199.000000	55.037673
1198.000000	55.279048
1197.000000	55.510826
1196.000000	55.705029
1195.000000	55.841623
1194.000000	55.914677
1193.000000	55.934031
1192.000000	55.920106
1191.000000	55.892504
1190.000000	55.863509
1189.000000	55.838513
1188.000000	55.818797
1187.000000	55.804254
1186.000000	55.795509
1185.000000	55.796281
1184.000000	55.813257
1183.000000	55.854849
1182.000000	55.929967
1181.000000	56.049972
1180.000000	56.225814
1179.000000	56.458820
1178.000000	56.734267
1177.000000	57.022645
1176.000000	57.289102
1175.000000	57.505444
1174.000000	57.661422
1173.000000	57.769268
1172.000000	57.857487
1171.000000	57.958929
1170.000000	58.099707
1169.000000	58.291133
1168.000000	58.524360
1167.000000	58.772648
1166.000000	59.002163
1165.000000	59.185792
1164.000000	59.312304
1163.000000	59.390197
1162.000000	59.446296
1161.000000	59.516627
1160.000000	59.631492
1159.000000	59.803798
1158.000000	60.025677
1157.000000	60.272074
1156.000000	60.507394
1155.000000	60.697006
1154.000000	60.822522
1153.000000	60.890362
1152.000000	60.927072
1151.000000	60.968209
1150.000000	61.047535
1149.000000	61.186090
1148.000000	61.382261
1147.000000	61.610725
1146.000000	61.833128
1145.000000	62.012979
1144.000000	62.127642
1143.000000	62.176849
1142.000000	62.185820
1141.000000	62.196275
1140.000000	62.247800
1139.000000	62.362619
1138.000000	62.540438
1137.000000	62.759462
1136.000000	62.981044
1135.000000	63.161969
1134.000000	63.273729
1133.000000	63.314919
1132.000000	63.309360
1131.000000	63.296552
1130.000000	63.320181
1129.000000	63.412550
1128.000000	63.579719
1127.000000	63.798157
1126.000000	64.026247
1125.000000	64.220140
1124.000000	64.346999
1123.000000	64.396850
1122.000000	64.390244
1121.000000	64.370651
1120.000000	64.384407
1119.000000	64.463380
1118.000000	64.617568
1117.000000	64.831806
1116.000000	65.066754
1115.000000	65.271439
1114.000000	65.406533
1113.000000	65.461050
1112.000000	65.453113
1111.000000	65.422157
1110.000000	65.418143
1109.000000	65.483644
1108.000000	65.634323
1107.000000	65.851869
1106.000000	66.094044
1105.000000	66.310058
1104.000000	66.455340
1103.000000	66.508362
1102.000000	66.484257
1101.000000	66.429184
1100.000000	66.398105
1099.000000	66.434096
1098.000000	66.557871
1097.000000	66.760571
1096.000000	67.002165
1095.000000	67.225080
1094.000000	67.381090
1093.000000	67.450656
1092.000000	67.445322
1091.000000	67.402550
1090.000000	67.377128
1089.000000	67.421292
1088.000000	67.560141
1087.000000	67.781503
1086.000000	68.045212
1085.000000	68.298086
1084.000000	68.487703
1083.000000	68.580992
1082.000000	68.583038
1081.000000	68.536628
1080.000000	68.500900
1079.000000	68.528200
1078.000000	68.649532
1077.000000	68.862553
1076.000000	69.126031
1075.000000	69.373721
1074.000000	69.544528
1073.000000	69.606251
1072.000000	69.559645
1071.000000	69.434790
1070.000000	69.282944
1069.000000	69.151663
1068.000000	69.058152
1067.000000	68.978431
1066.000000	68.862146
1065.000000	68.657894
1064.000000	68.335107
1063.000000	67.905937
1062.000000	67.433552
1061.000000	67.013378
1060.000000	66.734541
1059.000000	66.653991
1058.000000	66.784726
1057.000000	67.095453
1056.000000	67.516989
1055.000000	67.959031
1054.000000	68.341398
1053.000000	68.614772
1052.000000	68.768741
1051.000000	68.833384
1050.000000	68.872465
1049.000000	68.957438
1048.000000	69.132608
1047.000000	69.398129
1046.000000	69.716930
1045.000000	70.031629
1044.000000	70.279557
1043.000000	70.416424
1042.000000	70.440696
1041.000000	70.395793
1040.000000	70.346886
1039.000000	70.356855
1038.000000	70.469753
1037.000000	70.694951
1036.000000	70.995966
1035.000000	71.303165
1034.000000	71.545888
1033.000000	71.680718
1032.000000	71.701678
1031.000000	71.642380
1030.000000	71.569536
1029.000000	71.558031
1028.000000	71.655703
1027.000000	71.864981
1026.000000	72.148181
1025.000000	72.442564
1024.000000	72.676703
1023.000000	72.797059
1022.000000	72.795853
1021.000000	72.714541
1020.000000	72.620521
1019.000000	72.582102
1018.000000	72.649773
1017.000000	72.837349
1016.000000	73.109118
1015.000000	73.392801
1014.000000	73.613701
1013.000000	73.724554
1012.000000	73.716510
1011.000000	73.622418
1010.000000	73.511059
1009.000000	73.460949
1008.000000	73.523654
1007.000000	73.705258
1006.000000	73.970842
1005.000000	74.256582
1004.000000	74.485877
1003.000000	74.599256
1002.000000	74.585632
1001.000000	74.486706
1000.000000	74.372889
999.000000	74.316158
998.000000	74.370165
997.000000	74.550629
996.000000	74.822006
995.000000	75.109810
994.000000	75.336132
993.000000	75.450430
992.000000	75.440980
991.000000	75.339009
990.000000	75.214256
989.000000	75.148401
988.000000	75.196974
987.000000	75.369542
986.000000	75.632351
985.000000	75.919684
984.000000	76.151425
983.000000	76.265078
982.000000	76.248040
981.000000	76.141870
980.000000	76.017211
979.000000	75.946481
978.000000	75.985480
977.000000	76.152743
976.000000	76.413660
975.000000	76.692060
974.000000	76.908632
973.000000	77.012544
972.000000	76.992505
971.000000	76.879819
970.000000	76.744260
969.000000	76.667230
968.000000	76.704087
967.000000	76.863619
966.000000	77.111721
965.000000	77.383534
964.000000	77.600809
963.000000	77.702182
962.000000	77.675704
961.000000	77.562865
960.000000	77.432741
959.000000	77.355242
958.000000	77.384481
957.000000	77.538579
956.000000	77.783826
955.000000	78.046348
954.000000	78.249400
953.000000	78.343434
952.000000	78.317377
951.000000	78.201972
950.000000	78.065678
949.000000	77.987516
948.000000	78.019505
947.000000	78.167276
946.000000	78.396712
945.000000	78.646058
944.000000	78.840867
943.000000	78.923110
942.000000	78.883976
941.000000	78.765804
940.000000	78.634583
939.000000	78.554721
938.000000	78.575002
937.000000	78.710164
936.000000	78.926248
935.000000	79.152789
934.000000	79.319070
933.000000	79.382600
932.000000	79.337241
931.000000	79.214036
930.000000	79.076729
929.000000	78.996120
928.000000	79.014864
927.000000	79.132213
926.000000	79.314054
925.000000	79.503852
924.000000	79.634848
923.000000	79.657778
922.000000	79.571105
921.000000	79.418729
920.000000	79.260820
919.000000	79.150703
918.000000	79.125731
917.000000	79.192613
916.000000	79.315200
915.000000	79.427471
914.000000	79.469190
913.000000	79.410646
912.000000	79.254249
911.000000	79.032462
910.000000	78.803158
909.000000	78.624514
908.000000	78.522544
907.000000	78.482590
906.000000	78.466640
905.000000	78.427110
904.000000	78.314967
903.000000	78.100136
902.000000	77.792811
901.000000	77.437125
900.000000	77.081701
899.000000	76.758776
898.000000	76.482186
897.000000	76.241634
896.000000	75.998634
895.000000	75.702390
894.000000	75.318751
893.000000	74.843117
892.000000	74.291224
891.000000	73.691907
890.000000	73.082478
889.000000	72.490108
888.000000	71.914351
887.000000	71.329229
886.000000	70.702252
885.000000	70.006282
884.000000	69.221265
883.000000	68.344526
882.000000	67.398270
881.000000	66.417285
880.000000	65.426207
879.000000	64.429229
878.000000	63.418423
877.000000	62.379025
876.000000	61.293798
875.000000	60.154349
874.000000	58.970298
873.000000	57.765708
872.000000	56.568350
871.000000	55.403234
870.000000	54.287639
869.000000	53.225833
868.000000	52.209447
867.000000	51.226732
866.000000	50.272134
865.000000	49.346114
864.000000	48.455090
863.000000	47.609643
862.000000	46.820387
861.000000	46.092082
860.000000	45.420001
859.000000	44.794287
858.000000	44.202452
857.000000	43.631800
856.000000	43.076469
855.000000	42.541144
854.000000	42.040362
853.000000	41.590942
852.000000	41.206375
851.000000	40.896182
850.000000	40.661303
849.000000	40.494185
848.000000	40.384635
847.000000	40.327700
846.000000	40.328400
845.000000	40.395015
844.000000	40.537408
843.000000	40.767491
842.000000	41.094680
841.000000	41.520666
840.000000	42.034784
839.000000	42.621755
838.000000	43.268554
837.000000	43.962419
836.000000	44.691748
835.000000	45.449548
834.000000	46.230868
833.000000	47.005284
832.000000	47.690690
831.000000	48.116191
830.000000	47.998798
829.000000	46.964528
828.000000	44.738907
827.000000	41.483394
826.000000	37.955953
825.000000	35.210655
824.000000	33.993300
823.000000	34.355867
822.000000	35.801892
821.000000	37.735218
820.000000	39.739023
819.000000	41.580619
818.000000	43.150038
817.000000	44.434154
816.000000	45.498769
815.000000	46.419551
814.000000	47.245423
813.000000	48.010941
812.000000	48.751256
811.000000	49.480128
810.000000	50.182281
809.000000	50.836343
808.000000	51.429335
807.000000	51.951651
806.000000	52.399468
805.000000	52.792222
804.000000	53.168573
803.000000	53.558105
802.000000	53.970650
801.000000	54.408394
800.000000	54.868813
799.000000	55.332590
798.000000	55.767535
797.000000	56.152961
796.000000	56.489755
795.000000	56.790249
794.000000	57.073671
793.000000	57.369714
792.000000	57.707928
791.000000	58.096998
790.000000	58.520789
789.000000	58.952417
788.000000	59.362245
787.000000	59.720478
786.000000	60.011433
785.000000	60.249285
784.000000	60.470212
783.000000	60.709771
782.000000	60.992058
781.000000	61.329510
780.000000	61.715290
779.000000	62.116487
778.000000	62.488022
777.000000	62.798152
776.000000	63.038354
775.000000	63.218827
774.000000	63.367350
773.000000	63.526584
772.000000	63.736012
771.000000	64.010665
770.000000	64.337664
769.000000	64.686309
768.000000	65.014430
767.000000	65.277784
766.000000	65.452777
765.000000	65.553342
764.000000	65.620960
763.000000	65.701897
762.000000	65.834641
761.000000	66.042984
760.000000	66.322542
759.000000	66.634758
758.000000	66.924910
757.000000	67.149723
756.000000	67.289983
755.000000	67.352897
754.000000	67.375321
753.000000	67.415781
752.000000	67.526341
751.000000	67.727129
750.000000	68.004609
749.000000	68.322675
748.000000	68.628926
747.000000	68.867435
746.000000	69.006915
745.000000	69.060216
744.000000	69.072824
743.000000	69.098293
742.000000	69.183945
741.000000	69.360125
740.000000	69.622555
739.000000	69.926179
738.000000	70.207258
737.000000	70.413425
736.000000	70.517309
735.000000	70.521282
734.000000	70.463284
733.000000	70.407154
732.000000	70.410710
731.000000	70.498484
730.000000	70.660236
729.000000	70.860053
728.000000	71.041249
727.000000	71.142655
726.000000	71.132431
725.000000	71.028734
724.000000	70.885335
723.000000	70.764724
722.000000	70.723332
721.000000	70.799008
720.000000	70.990173
719.000000	71.250201
718.000000	71.513998
717.000000	71.729171
716.000000	71.865128
715.000000	71.917109
714.000000	71.918175
713.000000	71.933144
712.000000	72.022502
711.000000	72.210453
710.000000	72.486040
709.000000	72.815309
708.000000	73.143333
707.000000	73.406203
706.000000	73.564931
705.000000	73.627482
704.000000	73.635473
703.000000	73.640304
702.000000	73.694081
701.000000	73.838342
700.000000	74.077763
699.000000	74.370382
698.000000	74.654205
697.000000	74.878856
696.000000	75.013474
695.000000	75.050397
694.000000	75.020786
693.000000	74.990596
692.000000	75.020563
691.000000	75.134533
690.000000	75.327577
689.000000	75.580901
688.000000	75.852416
687.000000	76.076674
686.000000	76.205604
685.000000	76.241738
684.000000	76.223183
683.000000	76.195246
682.000000	76.206412
681.000000	76.302983
680.000000	76.497681
679.000000	76.752771
678.000000	77.011338
677.000000	77.228565
676.000000	77.369372
675.000000	77.419151
674.000000	77.404397
673.000000	77.385751
672.000000	77.417257
671.000000	77.521222
670.000000	77.705685
669.000000	77.978120
668.000000	78.291892
667.000000	78.528711
666.000000	78.631448
665.000000	78.639516
664.000000	78.610616
663.000000	78.585561
662.000000	78.599213
661.000000	78.683642
660.000000	78.848772
659.000000	79.072242
658.000000	79.312778
657.000000	79.527901
656.000000	79.680987
655.000000	79.757012
654.000000	79.774532
653.000000	79.776270
652.000000	79.805597
651.000000	79.889921
650.000000	80.038570
649.000000	80.241783
648.000000	80.467286
647.000000	80.668782
646.000000	80.811330
645.000000	80.891067
644.000000	80.926884
643.000000	80.944504
642.000000	80.974679
641.000000	81.048883
640.000000	81.182034
639.000000	81.362319
638.000000	81.561267
637.000000	81.749074
636.000000	81.900487
635.000000	81.999938
634.000000	82.054105
633.000000	82.091696
632.000000	82.143231
631.000000	82.227501
630.000000	82.355467
629.000000	82.528782
628.000000	82.727916
627.000000	82.916495
626.000000	83.067693
625.000000	83.179425
624.000000	83.259507
623.000000	83.315119
622.000000	83.365240
621.000000	83.442023
620.000000	83.565260
619.000000	83.728100
618.000000	83.913188
617.000000	84.107640
616.000000	84.294102
615.000000	84.447495
614.000000	84.554837
613.000000	84.626006
612.000000	84.675964
611.000000	84.712561
610.000000	84.745089
609.000000	84.779157
608.000000	84.792065
607.000000	84.724061
606.000000	84.504715
605.000000	84.062528
604.000000	83.293950
603.000000	82.053334
602.000000	80.167522
601.000000	77.490316
600.000000	73.998360
599.000000	69.926250
598.000000	65.812972
597.000000	62.341915
596.000000	60.074485
595.000000	59.246433
594.000000	59.716543
593.000000	61.083541
592.000000	62.913760
591.000000	64.872352
590.000000	66.748612
589.000000	68.463206
588.000000	70.020668
587.000000	71.445036
586.000000	72.741554
585.000000	73.905159
584.000000	74.928575
583.000000	75.808768
582.000000	76.557096
581.000000	77.206148
580.000000	77.792838
579.000000	78.334752
578.000000	78.843714
577.000000	79.339246
576.000000	79.829350
575.000000	80.291479
574.000000	80.690468
573.000000	81.013316
572.000000	81.265572
571.000000	81.456269
570.000000	81.610587
569.000000	81.775107
568.000000	81.986476
567.000000	82.243291
566.000000	82.519567
565.000000	82.792963
564.000000	83.042003
563.000000	83.239724
562.000000	83.373846
561.000000	83.464170
560.000000	83.544376
559.000000	83.638626
558.000000	83.765291
557.000000	83.940072
556.000000	84.157267
555.000000	84.383413
554.000000	84.583556
553.000000	84.740914
552.000000	84.845187
551.000000	84.889785
550.000000	84.897467
549.000000	84.920667
548.000000	84.998484
547.000000	85.133583
546.000000	85.314262
545.000000	85.529099
544.000000	85.746095
543.000000	85.912665
542.000000	85.999911
541.000000	86.028706
540.000000	86.037097
539.000000	86.050992
538.000000	86.097018
537.000000	86.208191
536.000000	86.389514
535.000000	86.602001
534.000000	86.796769
533.000000	86.951727
532.000000	87.056613
531.000000	87.099269
530.000000	87.094800
529.000000	87.095425
528.000000	87.144498
527.000000	87.245957
526.000000	87.388835
525.000000	87.559896
524.000000	87.717491
523.000000	87.791036
522.000000	87.729610
521.000000	87.526570
520.000000	87.194684
519.000000	86.750342
518.000000	86.240238
517.000000	85.754367
516.000000	85.377273
515.000000	85.147685
514.000000	85.069096
513.000000	85.127133
512.000000	85.270189
511.000000	85.413038
510.000000	85.488126
509.000000	85.475880
508.000000	85.354237
507.000000	85.062548
506.000000	84.534641
505.000000	83.730746
504.000000	82.634955
503.000000	81.293297
502.000000	79.905838
501.000000	78.783912
500.000000	78.151769
499.000000	78.044974
498.000000	78.380367
497.000000	79.019832
496.000000	79.784864
495.000000	80.496009
494.000000	81.040701
493.000000	81.413398
492.000000	81.675314
491.000000	81.907281
490.000000	82.192168
489.000000	82.595962
488.000000	83.121618
487.000000	83.708812
486.000000	84.297615
485.000000	84.868553
484.000000	85.409132
483.000000	85.882935
482.000000	86.267335
481.000000	86.583890
480.000000	86.859993
479.000000	87.102323
478.000000	87.323982
477.000000	87.555769
476.000000	87.801581
475.000000	88.020274
474.000000	88.181535
473.000000	88.311421
472.000000	88.447187
471.000000	88.567654
470.000000	88.640005
469.000000	88.694507
468.000000	88.775754
467.000000	88.887582
466.000000	89.009604
465.000000	89.144507
464.000000	89.290243
463.000000	89.405665
462.000000	89.462063
461.000000	89.487390
460.000000	89.510307
459.000000	89.506747
458.000000	89.466790
457.000000	89.455053
456.000000	89.500246
455.000000	89.551490
454.000000	89.577348
453.000000	89.595210
452.000000	89.609611
451.000000	89.566447
450.000000	89.409563
449.000000	89.149535
448.000000	88.824105
447.000000	88.438656
446.000000	87.973516
445.000000	87.406743
444.000000	86.675750
443.000000	85.676534
442.000000	84.353350
441.000000	82.753801
440.000000	80.960206
439.000000	79.051536
438.000000	77.158426
437.000000	75.520098
436.000000	74.407481
435.000000	73.959385
434.000000	74.119714
433.000000	74.746452
432.000000	75.716006
431.000000	76.877415
430.000000	78.075604
429.000000	79.254078
428.000000	80.430444
427.000000	81.592819
426.000000	82.711543
425.000000	83.807090
424.000000	84.872052
423.000000	85.795758
422.000000	86.486482
421.000000	87.000140
420.000000	87.416053
419.000000	87.776724
418.000000	88.161956
417.000000	88.568750
416.000000	88.981024
415.000000	89.382698
414.000000	89.733617
413.000000	90.060591
412.000000	90.379732
411.000000	90.579454
410.000000	90.588263
409.000000	90.538020
408.000000	90.580287
407.000000	90.678770
406.000000	90.779011
405.000000	90.969481
404.000000	91.280230
403.000000	91.499110
402.000000	91.405324
401.000000	91.051154
400.000000	90.601227
