PE IR       SUBTECH     SPECTRUM    ASCII       PEDS        4.00        
   -1
23ms265_nitrito.asc
24/09/02
17:31:07.00
24/09/02
17:31:07.00
Administrator
Sample 1089 By Administrator Date Monday, September 02 2024
400.000000
#HDR
-1
-1
#GR
cm-1
%T
1.0
0.0
4000.000000
-1.000000
3601
8
93.953486
11.204344
#DATA
4000.000000	81.019791
3999.000000	81.070155
3998.000000	81.119404
3997.000000	81.166984
3996.000000	81.212668
3995.000000	81.256977
3994.000000	81.301344
3993.000000	81.347133
3992.000000	81.394316
3991.000000	81.441405
3990.000000	81.486907
3989.000000	81.530671
3988.000000	81.573569
3987.000000	81.616379
3986.000000	81.659664
3985.000000	81.704136
3984.000000	81.750467
3983.000000	81.798455
3982.000000	81.846861
3981.000000	81.894318
3980.000000	81.940125
3979.000000	81.984347
3978.000000	82.027211
3977.000000	82.068725
3976.000000	82.109301
3975.000000	82.149931
3974.000000	82.191743
3973.000000	82.235652
3972.000000	82.281740
3971.000000	82.328991
3970.000000	82.375015
3969.000000	82.417204
3968.000000	82.454487
3967.000000	82.487925
3966.000000	82.520374
3965.000000	82.555224
3964.000000	82.594930
3963.000000	82.639493
3962.000000	82.686521
3961.000000	82.732866
3960.000000	82.776195
3959.000000	82.815660
3958.000000	82.851001
3957.000000	82.883106
3956.000000	82.914597
3955.000000	82.948362
3954.000000	82.986579
3953.000000	83.029639
3952.000000	83.076410
3951.000000	83.124821
3950.000000	83.172172
3949.000000	83.215725
3948.000000	83.253950
3947.000000	83.289410
3946.000000	83.328529
3945.000000	83.376107
3944.000000	83.429909
3943.000000	83.481757
3942.000000	83.526469
3941.000000	83.566679
3940.000000	83.606649
3939.000000	83.646853
3938.000000	83.684296
3937.000000	83.718293
3936.000000	83.753927
3935.000000	83.796500
3934.000000	83.847110
3933.000000	83.901504
3932.000000	83.954307
3931.000000	84.002030
3930.000000	84.042278
3929.000000	84.077343
3928.000000	84.114055
3927.000000	84.159328
3926.000000	84.211985
3925.000000	84.262166
3924.000000	84.304561
3923.000000	84.343373
3922.000000	84.381946
3921.000000	84.418551
3920.000000	84.453434
3919.000000	84.492637
3918.000000	84.538931
3917.000000	84.585957
3916.000000	84.627273
3915.000000	84.664286
3914.000000	84.701723
3913.000000	84.740614
3912.000000	84.778357
3911.000000	84.815048
3910.000000	84.852009
3909.000000	84.890879
3908.000000	84.935839
3907.000000	84.988758
3906.000000	85.045937
3905.000000	85.096386
3904.000000	85.135180
3903.000000	85.174266
3902.000000	85.227240
3901.000000	85.290650
3900.000000	85.345503
3899.000000	85.378202
3898.000000	85.394822
3897.000000	85.410036
3896.000000	85.431383
3895.000000	85.463596
3894.000000	85.510409
3893.000000	85.569890
3892.000000	85.625183
3891.000000	85.658177
3890.000000	85.675332
3889.000000	85.699677
3888.000000	85.745354
3887.000000	85.804219
3886.000000	85.854312
3885.000000	85.889306
3884.000000	85.927202
3883.000000	85.981892
3882.000000	86.043384
3881.000000	86.090850
3880.000000	86.115299
3879.000000	86.129673
3878.000000	86.153929
3877.000000	86.194649
3876.000000	86.243103
3875.000000	86.283931
3874.000000	86.311448
3873.000000	86.340738
3872.000000	86.389129
3871.000000	86.446144
3870.000000	86.483633
3869.000000	86.502878
3868.000000	86.533950
3867.000000	86.588130
3866.000000	86.644674
3865.000000	86.683703
3864.000000	86.712731
3863.000000	86.748972
3862.000000	86.788444
3861.000000	86.820450
3860.000000	86.847462
3859.000000	86.881064
3858.000000	86.932171
3857.000000	87.004177
3856.000000	87.093020
3855.000000	87.175339
3854.000000	87.220233
3853.000000	87.238587
3852.000000	87.268970
3851.000000	87.312815
3850.000000	87.342634
3849.000000	87.349961
3848.000000	87.350264
3847.000000	87.365446
3846.000000	87.401119
3845.000000	87.448428
3844.000000	87.496754
3843.000000	87.540660
3842.000000	87.583624
3841.000000	87.635877
3840.000000	87.695636
3839.000000	87.750707
3838.000000	87.797709
3837.000000	87.841301
3836.000000	87.885403
3835.000000	87.927789
3834.000000	87.966257
3833.000000	88.000682
3832.000000	88.029350
3831.000000	88.055186
3830.000000	88.087748
3829.000000	88.133011
3828.000000	88.185132
3827.000000	88.230231
3826.000000	88.259929
3825.000000	88.286881
3824.000000	88.330444
3823.000000	88.393072
3822.000000	88.454517
3821.000000	88.493173
3820.000000	88.522728
3819.000000	88.571276
3818.000000	88.637952
3817.000000	88.694642
3816.000000	88.721809
3815.000000	88.738477
3814.000000	88.776036
3813.000000	88.828246
3812.000000	88.865931
3811.000000	88.885596
3810.000000	88.912387
3809.000000	88.964391
3808.000000	89.026480
3807.000000	89.069922
3806.000000	89.095948
3805.000000	89.134278
3804.000000	89.195627
3803.000000	89.264001
3802.000000	89.310614
3801.000000	89.331989
3800.000000	89.363319
3799.000000	89.421416
3798.000000	89.483316
3797.000000	89.523104
3796.000000	89.542224
3795.000000	89.562925
3794.000000	89.599745
3793.000000	89.645096
3792.000000	89.686402
3791.000000	89.724728
3790.000000	89.767356
3789.000000	89.815230
3788.000000	89.865107
3787.000000	89.915328
3786.000000	89.963669
3785.000000	90.004729
3784.000000	90.036536
3783.000000	90.068330
3782.000000	90.110531
3781.000000	90.161862
3780.000000	90.211032
3779.000000	90.252248
3778.000000	90.291583
3777.000000	90.335250
3776.000000	90.377623
3775.000000	90.409591
3774.000000	90.434416
3773.000000	90.466197
3772.000000	90.512124
3771.000000	90.562775
3770.000000	90.606731
3769.000000	90.649226
3768.000000	90.702127
3767.000000	90.762814
3766.000000	90.816136
3765.000000	90.851268
3764.000000	90.876555
3763.000000	90.909884
3762.000000	90.954842
3761.000000	91.001087
3760.000000	91.041774
3759.000000	91.082837
3758.000000	91.126262
3757.000000	91.164030
3756.000000	91.196135
3755.000000	91.229913
3754.000000	91.268570
3753.000000	91.309277
3752.000000	91.354515
3751.000000	91.412856
3750.000000	91.476971
3749.000000	91.530925
3748.000000	91.580910
3747.000000	91.646813
3746.000000	91.726426
3745.000000	91.781489
3744.000000	91.797602
3743.000000	91.823278
3742.000000	91.881615
3741.000000	91.936234
3740.000000	91.958896
3739.000000	91.967165
3738.000000	91.994787
3737.000000	92.044992
3736.000000	92.100918
3735.000000	92.155095
3734.000000	92.212520
3733.000000	92.268633
3732.000000	92.310300
3731.000000	92.341093
3730.000000	92.375472
3729.000000	92.418243
3728.000000	92.461841
3727.000000	92.496339
3726.000000	92.525485
3725.000000	92.562725
3724.000000	92.611712
3723.000000	92.662806
3722.000000	92.708113
3721.000000	92.751533
3720.000000	92.796542
3719.000000	92.841056
3718.000000	92.878060
3717.000000	92.904022
3716.000000	92.927982
3715.000000	92.958747
3714.000000	92.995335
3713.000000	93.033368
3712.000000	93.075404
3711.000000	93.128595
3710.000000	93.191007
3709.000000	93.251502
3708.000000	93.299742
3707.000000	93.332652
3706.000000	93.356762
3705.000000	93.381426
3704.000000	93.412223
3703.000000	93.447546
3702.000000	93.482400
3701.000000	93.515406
3700.000000	93.549725
3699.000000	93.587509
3698.000000	93.623985
3697.000000	93.650650
3696.000000	93.668449
3695.000000	93.688353
3694.000000	93.714762
3693.000000	93.744344
3692.000000	93.776004
3691.000000	93.812131
3690.000000	93.847324
3689.000000	93.872115
3688.000000	93.889172
3687.000000	93.909282
3686.000000	93.934618
3685.000000	93.953112
3684.000000	93.953486
3683.000000	93.941052
3682.000000	93.932289
3681.000000	93.930355
3680.000000	93.926012
3679.000000	93.917140
3678.000000	93.915893
3677.000000	93.925467
3676.000000	93.926223
3675.000000	93.916649
3674.000000	93.920767
3673.000000	93.941971
3672.000000	93.951905
3671.000000	93.927344
3670.000000	93.875105
3669.000000	93.827498
3668.000000	93.803740
3667.000000	93.788476
3666.000000	93.760104
3665.000000	93.717397
3664.000000	93.671689
3663.000000	93.631328
3662.000000	93.592356
3661.000000	93.542900
3660.000000	93.480167
3659.000000	93.408178
3658.000000	93.328666
3657.000000	93.238062
3656.000000	93.141804
3655.000000	93.061698
3654.000000	93.008144
3653.000000	92.963741
3652.000000	92.900123
3651.000000	92.802499
3650.000000	92.680946
3649.000000	92.560262
3648.000000	92.454560
3647.000000	92.357727
3646.000000	92.257447
3645.000000	92.148570
3644.000000	92.032003
3643.000000	91.911125
3642.000000	91.787558
3641.000000	91.661913
3640.000000	91.535436
3639.000000	91.406373
3638.000000	91.272462
3637.000000	91.134501
3636.000000	90.995550
3635.000000	90.855844
3634.000000	90.714806
3633.000000	90.579234
3632.000000	90.454129
3631.000000	90.328352
3630.000000	90.178756
3629.000000	90.003317
3628.000000	89.838582
3627.000000	89.712036
3626.000000	89.600326
3625.000000	89.468742
3624.000000	89.314008
3623.000000	89.155779
3622.000000	89.006578
3621.000000	88.857604
3620.000000	88.695586
3619.000000	88.525290
3618.000000	88.363744
3617.000000	88.217247
3616.000000	88.077428
3615.000000	87.931461
3614.000000	87.771547
3613.000000	87.602482
3612.000000	87.438366
3611.000000	87.287230
3610.000000	87.144595
3609.000000	87.005111
3608.000000	86.870384
3607.000000	86.743475
3606.000000	86.619232
3605.000000	86.486610
3604.000000	86.341464
3603.000000	86.187253
3602.000000	86.028677
3601.000000	85.868172
3600.000000	85.709558
3599.000000	85.557205
3598.000000	85.410932
3597.000000	85.266859
3596.000000	85.124686
3595.000000	84.984796
3594.000000	84.844343
3593.000000	84.702439
3592.000000	84.560374
3591.000000	84.419114
3590.000000	84.277737
3589.000000	84.136750
3588.000000	83.999774
3587.000000	83.869966
3586.000000	83.745171
3585.000000	83.619002
3584.000000	83.486217
3583.000000	83.345599
3582.000000	83.198671
3581.000000	83.047705
3580.000000	82.896060
3579.000000	82.746533
3578.000000	82.599047
3577.000000	82.453094
3576.000000	82.310016
3575.000000	82.171939
3574.000000	82.037603
3573.000000	81.904516
3572.000000	81.771311
3571.000000	81.636032
3570.000000	81.494728
3569.000000	81.345581
3568.000000	81.193786
3567.000000	81.048435
3566.000000	80.912810
3565.000000	80.781827
3564.000000	80.648579
3563.000000	80.510162
3562.000000	80.366639
3561.000000	80.219368
3560.000000	80.070093
3559.000000	79.919746
3558.000000	79.767483
3557.000000	79.612853
3556.000000	79.458013
3555.000000	79.305721
3554.000000	79.155674
3553.000000	79.005707
3552.000000	78.856480
3551.000000	78.710545
3550.000000	78.567454
3549.000000	78.424554
3548.000000	78.281017
3547.000000	78.138123
3546.000000	77.994679
3545.000000	77.847934
3544.000000	77.698339
3543.000000	77.549180
3542.000000	77.402205
3541.000000	77.258363
3540.000000	77.120521
3539.000000	76.990509
3538.000000	76.864966
3537.000000	76.737452
3536.000000	76.605855
3535.000000	76.472771
3534.000000	76.340906
3533.000000	76.211465
3532.000000	76.085984
3531.000000	75.966030
3530.000000	75.850210
3529.000000	75.736038
3528.000000	75.623884
3527.000000	75.515956
3526.000000	75.411477
3525.000000	75.306451
3524.000000	75.197838
3523.000000	75.085476
3522.000000	74.970720
3521.000000	74.855914
3520.000000	74.744247
3519.000000	74.636996
3518.000000	74.532660
3517.000000	74.429940
3516.000000	74.329519
3515.000000	74.230540
3514.000000	74.129005
3513.000000	74.022382
3512.000000	73.912574
3511.000000	73.802085
3510.000000	73.690297
3509.000000	73.576378
3508.000000	73.462853
3507.000000	73.353028
3506.000000	73.246771
3505.000000	73.141938
3504.000000	73.037333
3503.000000	72.931455
3502.000000	72.820976
3501.000000	72.704215
3500.000000	72.583932
3499.000000	72.463369
3498.000000	72.342499
3497.000000	72.220951
3496.000000	72.101821
3495.000000	71.988280
3494.000000	71.878584
3493.000000	71.768295
3492.000000	71.655234
3491.000000	71.539055
3490.000000	71.418689
3489.000000	71.293936
3488.000000	71.167499
3487.000000	71.042277
3486.000000	70.918438
3485.000000	70.795646
3484.000000	70.675888
3483.000000	70.560541
3482.000000	70.446516
3481.000000	70.328848
3480.000000	70.205447
3479.000000	70.077170
3478.000000	69.945443
3477.000000	69.812785
3476.000000	69.683266
3475.000000	69.559281
3474.000000	69.439540
3473.000000	69.321917
3472.000000	69.205869
3471.000000	69.089883
3470.000000	68.969904
3469.000000	68.843393
3468.000000	68.712311
3467.000000	68.579902
3466.000000	68.447353
3465.000000	68.315451
3464.000000	68.186329
3463.000000	68.060577
3462.000000	67.935256
3461.000000	67.807423
3460.000000	67.677383
3459.000000	67.546687
3458.000000	67.415642
3457.000000	67.284652
3456.000000	67.155335
3455.000000	67.027577
3454.000000	66.898620
3453.000000	66.766737
3452.000000	66.633763
3451.000000	66.502129
3450.000000	66.371335
3449.000000	66.239702
3448.000000	66.107330
3447.000000	65.975099
3446.000000	65.842521
3445.000000	65.708570
3444.000000	65.572730
3443.000000	65.433978
3442.000000	65.291057
3441.000000	65.145476
3440.000000	65.001608
3439.000000	64.861837
3438.000000	64.723951
3437.000000	64.584589
3436.000000	64.442823
3435.000000	64.298391
3434.000000	64.149629
3433.000000	63.995365
3432.000000	63.836613
3431.000000	63.674690
3430.000000	63.509496
3429.000000	63.341985
3428.000000	63.175533
3427.000000	63.012118
3426.000000	62.849445
3425.000000	62.684007
3424.000000	62.514603
3423.000000	62.340625
3422.000000	62.159931
3421.000000	61.971750
3420.000000	61.779454
3419.000000	61.587330
3418.000000	61.396637
3417.000000	61.206716
3416.000000	61.017050
3415.000000	60.825587
3414.000000	60.627571
3413.000000	60.419512
3412.000000	60.202279
3411.000000	59.978377
3410.000000	59.748635
3409.000000	59.513791
3408.000000	59.276659
3407.000000	59.039400
3406.000000	58.800873
3405.000000	58.558941
3404.000000	58.312735
3403.000000	58.060434
3402.000000	57.797990
3401.000000	57.523183
3400.000000	57.238737
3399.000000	56.948856
3398.000000	56.655327
3397.000000	56.358763
3396.000000	56.059910
3395.000000	55.757109
3394.000000	55.445224
3393.000000	55.120419
3392.000000	54.783842
3391.000000	54.438526
3390.000000	54.086047
3389.000000	53.727422
3388.000000	53.364055
3387.000000	52.995154
3386.000000	52.617125
3385.000000	52.228266
3384.000000	51.830618
3383.000000	51.425912
3382.000000	51.013142
3381.000000	50.591806
3380.000000	50.164050
3379.000000	49.730985
3378.000000	49.290419
3377.000000	48.840387
3376.000000	48.381251
3375.000000	47.913088
3374.000000	47.434319
3373.000000	46.944891
3372.000000	46.447683
3371.000000	45.944480
3370.000000	45.434556
3369.000000	44.917733
3368.000000	44.395135
3367.000000	43.865962
3366.000000	43.327339
3365.000000	42.779051
3364.000000	42.224115
3363.000000	41.663915
3362.000000	41.097378
3361.000000	40.525587
3360.000000	39.952578
3359.000000	39.379776
3358.000000	38.803899
3357.000000	38.222250
3356.000000	37.635264
3355.000000	37.043183
3354.000000	36.444862
3353.000000	35.841539
3352.000000	35.237684
3351.000000	34.636424
3350.000000	34.037835
3349.000000	33.442234
3348.000000	32.850552
3347.000000	32.260756
3346.000000	31.668767
3345.000000	31.074055
3344.000000	30.480267
3343.000000	29.889886
3342.000000	29.302808
3341.000000	28.720522
3340.000000	28.146485
3339.000000	27.581573
3338.000000	27.023830
3337.000000	26.472926
3336.000000	25.930399
3335.000000	25.395355
3334.000000	24.865016
3333.000000	24.340135
3332.000000	23.824472
3331.000000	23.319158
3330.000000	22.822201
3329.000000	22.333295
3328.000000	21.854703
3327.000000	21.386932
3326.000000	20.929043
3325.000000	20.482737
3324.000000	20.050708
3323.000000	19.631894
3322.000000	19.222939
3321.000000	18.824032
3320.000000	18.438294
3319.000000	18.065324
3318.000000	17.701956
3317.000000	17.347907
3316.000000	17.005571
3315.000000	16.674867
3314.000000	16.353158
3313.000000	16.040290
3312.000000	15.738034
3311.000000	15.445397
3310.000000	15.160472
3309.000000	14.885389
3308.000000	14.624810
3307.000000	14.380073
3306.000000	14.149863
3305.000000	13.935531
3304.000000	13.738578
3303.000000	13.555141
3302.000000	13.378630
3301.000000	13.206911
3300.000000	13.041893
3299.000000	12.883095
3298.000000	12.728393
3297.000000	12.579864
3296.000000	12.442033
3295.000000	12.315446
3294.000000	12.197402
3293.000000	12.088512
3292.000000	11.992393
3291.000000	11.908702
3290.000000	11.833100
3289.000000	11.762888
3288.000000	11.697861
3287.000000	11.636615
3286.000000	11.577232
3285.000000	11.521561
3284.000000	11.472911
3283.000000	11.430750
3282.000000	11.392468
3281.000000	11.358629
3280.000000	11.331381
3279.000000	11.308785
3278.000000	11.286737
3277.000000	11.265376
3276.000000	11.247822
3275.000000	11.233939
3274.000000	11.220952
3273.000000	11.209634
3272.000000	11.204344
3271.000000	11.207152
3270.000000	11.216805
3269.000000	11.232176
3268.000000	11.251801
3267.000000	11.271558
3266.000000	11.287849
3265.000000	11.302387
3264.000000	11.319302
3263.000000	11.338806
3262.000000	11.358535
3261.000000	11.378898
3260.000000	11.401868
3259.000000	11.426195
3258.000000	11.449182
3257.000000	11.472041
3256.000000	11.498109
3255.000000	11.527253
3254.000000	11.556881
3253.000000	11.586900
3252.000000	11.618523
3251.000000	11.649745
3250.000000	11.677470
3249.000000	11.703038
3248.000000	11.730663
3247.000000	11.761549
3246.000000	11.794138
3245.000000	11.828513
3244.000000	11.865607
3243.000000	11.903371
3242.000000	11.938772
3241.000000	11.972373
3240.000000	12.006504
3239.000000	12.040269
3238.000000	12.070894
3237.000000	12.098505
3236.000000	12.125387
3235.000000	12.152346
3234.000000	12.179977
3233.000000	12.211240
3232.000000	12.247896
3231.000000	12.286240
3230.000000	12.321044
3229.000000	12.351881
3228.000000	12.381203
3227.000000	12.408769
3226.000000	12.432949
3225.000000	12.455432
3224.000000	12.479258
3223.000000	12.503816
3222.000000	12.526473
3221.000000	12.547419
3220.000000	12.568208
3219.000000	12.587355
3218.000000	12.602347
3217.000000	12.614253
3216.000000	12.625714
3215.000000	12.636321
3214.000000	12.644394
3213.000000	12.651353
3212.000000	12.659355
3211.000000	12.666537
3210.000000	12.669421
3209.000000	12.668168
3208.000000	12.665085
3207.000000	12.659917
3206.000000	12.651169
3205.000000	12.640298
3204.000000	12.629750
3203.000000	12.618715
3202.000000	12.605122
3201.000000	12.589750
3200.000000	12.574102
3199.000000	12.556309
3198.000000	12.533872
3197.000000	12.508358
3196.000000	12.482814
3195.000000	12.456713
3194.000000	12.427886
3193.000000	12.397252
3192.000000	12.367071
3191.000000	12.336552
3190.000000	12.303848
3189.000000	12.270170
3188.000000	12.237523
3187.000000	12.204590
3186.000000	12.169293
3185.000000	12.133219
3184.000000	12.098908
3183.000000	12.065165
3182.000000	12.029630
3181.000000	11.993658
3180.000000	11.959982
3179.000000	11.927845
3178.000000	11.894993
3177.000000	11.862337
3176.000000	11.832031
3175.000000	11.803137
3174.000000	11.773757
3173.000000	11.745231
3172.000000	11.719745
3171.000000	11.696075
3170.000000	11.672015
3169.000000	11.648769
3168.000000	11.628642
3167.000000	11.610669
3166.000000	11.593010
3165.000000	11.577191
3164.000000	11.565556
3163.000000	11.556910
3162.000000	11.548871
3161.000000	11.542216
3160.000000	11.538575
3159.000000	11.536361
3158.000000	11.533294
3157.000000	11.530395
3156.000000	11.529580
3155.000000	11.530125
3154.000000	11.531858
3153.000000	11.538928
3152.000000	11.555296
3151.000000	11.578943
3150.000000	11.604816
3149.000000	11.631140
3148.000000	11.658757
3147.000000	11.687014
3146.000000	11.715187
3145.000000	11.745455
3144.000000	11.779720
3143.000000	11.815770
3142.000000	11.850783
3141.000000	11.886628
3140.000000	11.927467
3139.000000	11.974169
3138.000000	12.025217
3137.000000	12.080445
3136.000000	12.139736
3135.000000	12.200416
3134.000000	12.260023
3133.000000	12.319975
3132.000000	12.382765
3131.000000	12.448084
3130.000000	12.515170
3129.000000	12.585815
3128.000000	12.661310
3127.000000	12.739071
3126.000000	12.816161
3125.000000	12.893307
3124.000000	12.971783
3123.000000	13.049816
3122.000000	13.126231
3121.000000	13.204488
3120.000000	13.288685
3119.000000	13.378114
3118.000000	13.470177
3117.000000	13.565719
3116.000000	13.666929
3115.000000	13.772490
3114.000000	13.879021
3113.000000	13.985265
3112.000000	14.091087
3111.000000	14.195157
3110.000000	14.297677
3109.000000	14.402720
3108.000000	14.513814
3107.000000	14.629400
3106.000000	14.746037
3105.000000	14.863344
3104.000000	14.982069
3103.000000	15.100520
3102.000000	15.217198
3101.000000	15.334505
3100.000000	15.455828
3099.000000	15.580836
3098.000000	15.707402
3097.000000	15.835626
3096.000000	15.966074
3095.000000	16.096561
3094.000000	16.224634
3093.000000	16.351382
3092.000000	16.479436
3091.000000	16.609256
3090.000000	16.740440
3089.000000	16.874048
3088.000000	17.010351
3087.000000	17.146954
3086.000000	17.282489
3085.000000	17.419641
3084.000000	17.560957
3083.000000	17.704343
3082.000000	17.846356
3081.000000	17.987396
3080.000000	18.130173
3079.000000	18.275453
3078.000000	18.422927
3077.000000	18.573798
3076.000000	18.728615
3075.000000	18.884661
3074.000000	19.038921
3073.000000	19.191574
3072.000000	19.343601
3071.000000	19.493499
3070.000000	19.639939
3069.000000	19.785489
3068.000000	19.934079
3067.000000	20.086562
3066.000000	20.241663
3065.000000	20.399197
3064.000000	20.559116
3063.000000	20.719385
3062.000000	20.877985
3061.000000	21.035263
3060.000000	21.191819
3059.000000	21.346349
3058.000000	21.498307
3057.000000	21.650267
3056.000000	21.804654
3055.000000	21.960255
3054.000000	22.114880
3053.000000	22.269185
3052.000000	22.424991
3051.000000	22.582047
3050.000000	22.739187
3049.000000	22.896452
3048.000000	23.053323
3047.000000	23.207311
3046.000000	23.357365
3045.000000	23.506460
3044.000000	23.658036
3043.000000	23.812119
3042.000000	23.967506
3041.000000	24.124969
3040.000000	24.284845
3039.000000	24.443924
3038.000000	24.598445
3037.000000	24.748592
3036.000000	24.897348
3035.000000	25.046659
3034.000000	25.197334
3033.000000	25.350465
3032.000000	25.505758
3031.000000	25.660358
3030.000000	25.812151
3029.000000	25.962371
3028.000000	26.112683
3027.000000	26.262178
3026.000000	26.410003
3025.000000	26.558271
3024.000000	26.709005
3023.000000	26.860354
3022.000000	27.009005
3021.000000	27.154521
3020.000000	27.298416
3019.000000	27.440886
3018.000000	27.581631
3017.000000	27.722217
3016.000000	27.864564
3015.000000	28.008433
3014.000000	28.152959
3013.000000	28.299061
3012.000000	28.447660
3011.000000	28.597262
3010.000000	28.745829
3009.000000	28.893515
3008.000000	29.041151
3007.000000	29.187941
3006.000000	29.333122
3005.000000	29.478058
3004.000000	29.624085
3003.000000	29.769692
3002.000000	29.912251
3001.000000	30.051133
3000.000000	30.187305
2999.000000	30.321746
2998.000000	30.456223
2997.000000	30.593421
2996.000000	30.733799
2995.000000	30.874385
2994.000000	31.013052
2993.000000	31.151812
2992.000000	31.293275
2991.000000	31.436084
2990.000000	31.576862
2989.000000	31.714818
2988.000000	31.851482
2987.000000	31.987589
2986.000000	32.123148
2985.000000	32.259075
2984.000000	32.395782
2983.000000	32.531425
2982.000000	32.664360
2981.000000	32.796111
2980.000000	32.929323
2979.000000	33.063988
2978.000000	33.198252
2977.000000	33.331744
2976.000000	33.465543
2975.000000	33.599927
2974.000000	33.734543
2973.000000	33.869683
2972.000000	34.005195
2971.000000	34.139281
2970.000000	34.270658
2969.000000	34.400789
2968.000000	34.531818
2967.000000	34.663662
2966.000000	34.795149
2965.000000	34.926522
2964.000000	35.058408
2963.000000	35.189690
2962.000000	35.318913
2961.000000	35.446464
2960.000000	35.573256
2959.000000	35.698782
2958.000000	35.822571
2957.000000	35.945869
2956.000000	36.069477
2955.000000	36.191795
2954.000000	36.311404
2953.000000	36.429721
2952.000000	36.548477
2951.000000	36.666335
2950.000000	36.781010
2949.000000	36.893278
2948.000000	37.006147
2947.000000	37.121235
2946.000000	37.238447
2945.000000	37.357877
2944.000000	37.479195
2943.000000	37.600083
2942.000000	37.717897
2941.000000	37.832438
2940.000000	37.945226
2939.000000	38.057230
2938.000000	38.169213
2937.000000	38.282853
2936.000000	38.398965
2935.000000	38.515577
2934.000000	38.630033
2933.000000	38.741919
2932.000000	38.851972
2931.000000	38.959742
2930.000000	39.065014
2929.000000	39.170261
2928.000000	39.278777
2927.000000	39.391010
2926.000000	39.504905
2925.000000	39.618656
2924.000000	39.730953
2923.000000	39.839978
2922.000000	39.944986
2921.000000	40.047973
2920.000000	40.151446
2919.000000	40.255554
2918.000000	40.359339
2917.000000	40.463267
2916.000000	40.567821
2915.000000	40.670684
2914.000000	40.768072
2913.000000	40.858543
2912.000000	40.943700
2911.000000	41.025966
2910.000000	41.107821
2909.000000	41.192284
2908.000000	41.281632
2907.000000	41.375409
2906.000000	41.471062
2905.000000	41.566084
2904.000000	41.658513
2903.000000	41.746463
2902.000000	41.829919
2901.000000	41.911438
2900.000000	41.994235
2899.000000	42.079595
2898.000000	42.166855
2897.000000	42.254897
2896.000000	42.341923
2895.000000	42.425278
2894.000000	42.503534
2893.000000	42.578160
2892.000000	42.651622
2891.000000	42.724860
2890.000000	42.798045
2889.000000	42.872397
2888.000000	42.949016
2887.000000	43.026607
2886.000000	43.102220
2885.000000	43.173644
2884.000000	43.239598
2883.000000	43.298859
2882.000000	43.351284
2881.000000	43.399092
2880.000000	43.445306
2879.000000	43.491455
2878.000000	43.538174
2877.000000	43.586736
2876.000000	43.637673
2875.000000	43.688625
2874.000000	43.736151
2873.000000	43.779763
2872.000000	43.822829
2871.000000	43.870083
2870.000000	43.925750
2869.000000	43.993199
2868.000000	44.073795
2867.000000	44.165782
2866.000000	44.265743
2865.000000	44.371077
2864.000000	44.480311
2863.000000	44.592087
2862.000000	44.705572
2861.000000	44.821331
2860.000000	44.940292
2859.000000	45.062170
2858.000000	45.186019
2857.000000	45.311394
2856.000000	45.437431
2855.000000	45.561782
2854.000000	45.682171
2853.000000	45.798527
2852.000000	45.912289
2851.000000	46.024311
2850.000000	46.134814
2849.000000	46.244416
2848.000000	46.353467
2847.000000	46.460886
2846.000000	46.565113
2845.000000	46.665731
2844.000000	46.763101
2843.000000	46.857349
2842.000000	46.949143
2841.000000	47.040551
2840.000000	47.133435
2839.000000	47.227487
2838.000000	47.321141
2837.000000	47.413589
2836.000000	47.504384
2835.000000	47.592076
2834.000000	47.675376
2833.000000	47.755485
2832.000000	47.835558
2831.000000	47.918025
2830.000000	48.003663
2829.000000	48.092447
2828.000000	48.183383
2827.000000	48.273741
2826.000000	48.360328
2825.000000	48.441822
2824.000000	48.518971
2823.000000	48.593058
2822.000000	48.665704
2821.000000	48.739605
2820.000000	48.817403
2819.000000	48.899457
2818.000000	48.983770
2817.000000	49.067875
2816.000000	49.149729
2815.000000	49.227466
2814.000000	49.300347
2813.000000	49.370200
2812.000000	49.440580
2811.000000	49.514272
2810.000000	49.592334
2809.000000	49.674791
2808.000000	49.760483
2807.000000	49.846423
2806.000000	49.929059
2805.000000	50.006647
2804.000000	50.079636
2803.000000	50.149311
2802.000000	50.217470
2801.000000	50.286899
2800.000000	50.360163
2799.000000	50.437486
2798.000000	50.516858
2797.000000	50.596017
2796.000000	50.673172
2795.000000	50.746471
2794.000000	50.814864
2793.000000	50.879867
2792.000000	50.944951
2791.000000	51.012765
2790.000000	51.083941
2789.000000	51.158182
2788.000000	51.234663
2787.000000	51.311092
2786.000000	51.384223
2785.000000	51.452183
2784.000000	51.515572
2783.000000	51.576283
2782.000000	51.636332
2781.000000	51.697748
2780.000000	51.761879
2779.000000	51.828121
2778.000000	51.894240
2777.000000	51.958208
2776.000000	52.019136
2775.000000	52.076864
2774.000000	52.132085
2773.000000	52.186985
2772.000000	52.244289
2771.000000	52.305185
2770.000000	52.368884
2769.000000	52.433947
2768.000000	52.498805
2767.000000	52.561336
2766.000000	52.619748
2765.000000	52.674378
2764.000000	52.727564
2763.000000	52.781562
2762.000000	52.837590
2761.000000	52.896513
2760.000000	52.958525
2759.000000	53.021686
2758.000000	53.082319
2757.000000	53.137620
2756.000000	53.187277
2755.000000	53.232794
2754.000000	53.276687
2753.000000	53.322384
2752.000000	53.373001
2751.000000	53.429194
2750.000000	53.488850
2749.000000	53.548976
2748.000000	53.606969
2747.000000	53.660410
2746.000000	53.707687
2745.000000	53.749737
2744.000000	53.790009
2743.000000	53.832082
2742.000000	53.877885
2741.000000	53.927925
2740.000000	53.981480
2739.000000	54.035991
2738.000000	54.087777
2737.000000	54.134292
2736.000000	54.175268
2735.000000	54.211999
2734.000000	54.246883
2733.000000	54.283547
2732.000000	54.325422
2731.000000	54.373156
2730.000000	54.424270
2729.000000	54.475548
2728.000000	54.524647
2727.000000	54.569637
2726.000000	54.609205
2725.000000	54.644386
2724.000000	54.678684
2723.000000	54.715483
2722.000000	54.756083
2721.000000	54.800281
2720.000000	54.847126
2719.000000	54.894369
2718.000000	54.938841
2717.000000	54.978750
2716.000000	55.014958
2715.000000	55.049589
2714.000000	55.084468
2713.000000	55.121261
2712.000000	55.161389
2711.000000	55.204488
2710.000000	55.247879
2709.000000	55.288389
2708.000000	55.324199
2707.000000	55.354850
2706.000000	55.380881
2705.000000	55.404340
2704.000000	55.428311
2703.000000	55.454768
2702.000000	55.483302
2701.000000	55.512058
2700.000000	55.538960
2699.000000	55.561727
2698.000000	55.578353
2697.000000	55.588864
2696.000000	55.595789
2695.000000	55.602348
2694.000000	55.610789
2693.000000	55.622381
2692.000000	55.637335
2691.000000	55.653714
2690.000000	55.667708
2689.000000	55.676092
2688.000000	55.678043
2687.000000	55.674718
2686.000000	55.668458
2685.000000	55.662781
2684.000000	55.661360
2683.000000	55.665543
2682.000000	55.673464
2681.000000	55.681918
2680.000000	55.688226
2679.000000	55.690257
2678.000000	55.686642
2677.000000	55.678350
2676.000000	55.669153
2675.000000	55.663478
2674.000000	55.664248
2673.000000	55.672803
2672.000000	55.689149
2671.000000	55.711390
2670.000000	55.736130
2669.000000	55.760714
2668.000000	55.785102
2667.000000	55.811230
2666.000000	55.841826
2665.000000	55.880123
2664.000000	55.928837
2663.000000	55.988391
2662.000000	56.056261
2661.000000	56.128677
2660.000000	56.202416
2659.000000	56.274885
2658.000000	56.344492
2657.000000	56.411896
2656.000000	56.479979
2655.000000	56.551671
2654.000000	56.627949
2653.000000	56.708021
2652.000000	56.790009
2651.000000	56.870771
2650.000000	56.946556
2649.000000	57.015248
2648.000000	57.077605
2647.000000	57.135988
2646.000000	57.192785
2645.000000	57.250162
2644.000000	57.309706
2643.000000	57.370837
2642.000000	57.430501
2641.000000	57.485384
2640.000000	57.533751
2639.000000	57.575307
2638.000000	57.610832
2637.000000	57.642992
2636.000000	57.675975
2635.000000	57.712599
2634.000000	57.752448
2633.000000	57.793263
2632.000000	57.832933
2631.000000	57.869431
2630.000000	57.900425
2629.000000	57.924940
2628.000000	57.944775
2627.000000	57.963149
2626.000000	57.982542
2625.000000	58.004250
2624.000000	58.028686
2623.000000	58.054608
2622.000000	58.078904
2621.000000	58.098649
2620.000000	58.113032
2619.000000	58.122979
2618.000000	58.130078
2617.000000	58.136783
2616.000000	58.146325
2615.000000	58.160646
2614.000000	58.178660
2613.000000	58.197199
2612.000000	58.212914
2611.000000	58.222975
2610.000000	58.225405
2609.000000	58.220420
2608.000000	58.210928
2607.000000	58.200457
2606.000000	58.191027
2605.000000	58.182875
2604.000000	58.174852
2603.000000	58.164147
2602.000000	58.146750
2601.000000	58.120124
2600.000000	58.085124
2599.000000	58.045100
2598.000000	58.004265
2597.000000	57.967266
2596.000000	57.938483
2595.000000	57.920006
2594.000000	57.910774
2593.000000	57.908375
2592.000000	57.911424
2591.000000	57.919650
2590.000000	57.933680
2589.000000	57.955973
2588.000000	57.990362
2587.000000	58.039921
2586.000000	58.104856
2585.000000	58.182982
2584.000000	58.271184
2583.000000	58.365123
2582.000000	58.459866
2581.000000	58.552158
2580.000000	58.642130
2579.000000	58.732357
2578.000000	58.825566
2577.000000	58.924018
2576.000000	59.029116
2575.000000	59.139900
2574.000000	59.252558
2573.000000	59.362511
2572.000000	59.466826
2571.000000	59.564381
2570.000000	59.655389
2569.000000	59.742105
2568.000000	59.828847
2567.000000	59.919366
2566.000000	60.014282
2565.000000	60.111644
2564.000000	60.208740
2563.000000	60.302562
2562.000000	60.390058
2561.000000	60.470050
2560.000000	60.544664
2559.000000	60.617525
2558.000000	60.691235
2557.000000	60.767134
2556.000000	60.845862
2555.000000	60.926416
2554.000000	61.005393
2553.000000	61.079208
2552.000000	61.146782
2551.000000	61.209211
2550.000000	61.268195
2549.000000	61.325947
2548.000000	61.385359
2547.000000	61.447882
2546.000000	61.511532
2545.000000	61.572545
2544.000000	61.628080
2543.000000	61.676590
2542.000000	61.717097
2541.000000	61.750188
2540.000000	61.779219
2539.000000	61.808022
2538.000000	61.837772
2537.000000	61.866914
2536.000000	61.892706
2535.000000	61.911614
2534.000000	61.918899
2533.000000	61.910759
2532.000000	61.887151
2531.000000	61.851183
2530.000000	61.807114
2529.000000	61.759470
2528.000000	61.712675
2527.000000	61.669183
2526.000000	61.627926
2525.000000	61.586437
2524.000000	61.543890
2523.000000	61.501459
2522.000000	61.461365
2521.000000	61.427787
2520.000000	61.407158
2519.000000	61.405527
2518.000000	61.425289
2517.000000	61.464634
2516.000000	61.519716
2515.000000	61.585114
2514.000000	61.654306
2513.000000	61.722390
2512.000000	61.788136
2511.000000	61.853423
2510.000000	61.920846
2509.000000	61.993109
2508.000000	62.072928
2507.000000	62.160641
2506.000000	62.252438
2505.000000	62.342328
2504.000000	62.425739
2503.000000	62.500529
2502.000000	62.566272
2501.000000	62.624755
2500.000000	62.680354
2499.000000	62.737526
2498.000000	62.797733
2497.000000	62.859977
2496.000000	62.922790
2495.000000	62.984066
2494.000000	63.040391
2493.000000	63.089121
2492.000000	63.131184
2491.000000	63.169917
2490.000000	63.207865
2489.000000	63.246200
2488.000000	63.285792
2487.000000	63.326545
2486.000000	63.366017
2485.000000	63.401047
2484.000000	63.430827
2483.000000	63.456859
2482.000000	63.480992
2481.000000	63.505220
2480.000000	63.532243
2479.000000	63.563699
2478.000000	63.597828
2477.000000	63.630747
2476.000000	63.659568
2475.000000	63.683104
2474.000000	63.701007
2473.000000	63.714570
2472.000000	63.727866
2471.000000	63.745662
2470.000000	63.770090
2469.000000	63.800346
2468.000000	63.834262
2467.000000	63.868281
2466.000000	63.897164
2465.000000	63.916659
2464.000000	63.926824
2463.000000	63.931558
2462.000000	63.935770
2461.000000	63.944321
2460.000000	63.961744
2459.000000	63.989751
2458.000000	64.024986
2457.000000	64.060984
2456.000000	64.092222
2455.000000	64.115391
2454.000000	64.128790
2453.000000	64.133606
2452.000000	64.135226
2451.000000	64.140666
2450.000000	64.154381
2449.000000	64.177333
2448.000000	64.208388
2447.000000	64.244125
2446.000000	64.278414
2445.000000	64.305275
2444.000000	64.322616
2443.000000	64.332220
2442.000000	64.337322
2441.000000	64.342029
2440.000000	64.351522
2439.000000	64.369597
2438.000000	64.395751
2437.000000	64.426220
2436.000000	64.457121
2435.000000	64.485136
2434.000000	64.506980
2433.000000	64.521234
2432.000000	64.530328
2431.000000	64.538534
2430.000000	64.548493
2429.000000	64.561357
2428.000000	64.578722
2427.000000	64.601637
2426.000000	64.628388
2425.000000	64.655871
2424.000000	64.682697
2423.000000	64.709062
2422.000000	64.734613
2421.000000	64.758884
2420.000000	64.783011
2419.000000	64.808314
2418.000000	64.833642
2417.000000	64.856480
2416.000000	64.876259
2415.000000	64.894477
2414.000000	64.912416
2413.000000	64.931154
2412.000000	64.952963
2411.000000	64.979810
2410.000000	65.010492
2409.000000	65.041254
2408.000000	65.068941
2407.000000	65.091869
2406.000000	65.108861
2405.000000	65.120248
2404.000000	65.129610
2403.000000	65.142243
2402.000000	65.161893
2401.000000	65.189942
2400.000000	65.226112
2399.000000	65.267487
2398.000000	65.307815
2397.000000	65.340644
2396.000000	65.363402
2395.000000	65.377577
2394.000000	65.386657
2393.000000	65.396023
2392.000000	65.412900
2391.000000	65.442756
2390.000000	65.485446
2389.000000	65.536313
2388.000000	65.590097
2387.000000	65.641739
2386.000000	65.685947
2385.000000	65.720073
2384.000000	65.747159
2383.000000	65.774427
2382.000000	65.808351
2381.000000	65.852950
2380.000000	65.910624
2379.000000	65.980316
2378.000000	66.055905
2377.000000	66.128987
2376.000000	66.193397
2375.000000	66.246419
2374.000000	66.287437
2373.000000	66.319309
2372.000000	66.349855
2371.000000	66.387666
2370.000000	66.435986
2369.000000	66.494097
2368.000000	66.560823
2367.000000	66.632957
2366.000000	66.703105
2365.000000	66.765540
2364.000000	66.821252
2363.000000	66.871862
2362.000000	66.919058
2361.000000	66.965604
2360.000000	67.015204
2359.000000	67.072667
2358.000000	67.133597
2357.000000	67.192841
2356.000000	67.247933
2355.000000	67.296549
2354.000000	67.338848
2353.000000	67.379292
2352.000000	67.432894
2351.000000	67.502742
2350.000000	67.574811
2349.000000	67.636516
2348.000000	67.687060
2347.000000	67.741282
2346.000000	67.802061
2345.000000	67.863215
2344.000000	67.918259
2343.000000	67.967840
2342.000000	68.021339
2341.000000	68.078250
2340.000000	68.137687
2339.000000	68.196115
2338.000000	68.252118
2337.000000	68.303042
2336.000000	68.351983
2335.000000	68.402172
2334.000000	68.457241
2333.000000	68.514775
2332.000000	68.578062
2331.000000	68.647699
2330.000000	68.720844
2329.000000	68.793523
2328.000000	68.858409
2327.000000	68.916344
2326.000000	68.962711
2325.000000	68.999546
2324.000000	69.033202
2323.000000	69.072619
2322.000000	69.124503
2321.000000	69.185812
2320.000000	69.255915
2319.000000	69.329574
2318.000000	69.401335
2317.000000	69.461053
2316.000000	69.505312
2315.000000	69.536543
2314.000000	69.561587
2313.000000	69.588409
2312.000000	69.625632
2311.000000	69.679900
2310.000000	69.749293
2309.000000	69.825983
2308.000000	69.900394
2307.000000	69.965695
2306.000000	70.015942
2305.000000	70.049351
2304.000000	70.072006
2303.000000	70.095114
2302.000000	70.128051
2301.000000	70.174974
2300.000000	70.236608
2299.000000	70.310106
2298.000000	70.386358
2297.000000	70.454483
2296.000000	70.507800
2295.000000	70.547460
2294.000000	70.577051
2293.000000	70.602646
2292.000000	70.632196
2291.000000	70.673524
2290.000000	70.727416
2289.000000	70.788657
2288.000000	70.851011
2287.000000	70.909837
2286.000000	70.960417
2285.000000	70.999902
2284.000000	71.031605
2283.000000	71.063058
2282.000000	71.099735
2281.000000	71.142637
2280.000000	71.191464
2279.000000	71.244531
2278.000000	71.296843
2277.000000	71.342158
2276.000000	71.379067
2275.000000	71.411247
2274.000000	71.442658
2273.000000	71.476006
2272.000000	71.514416
2271.000000	71.559698
2270.000000	71.608089
2269.000000	71.652173
2268.000000	71.687372
2267.000000	71.713706
2266.000000	71.732697
2265.000000	71.747483
2264.000000	71.764996
2263.000000	71.793018
2262.000000	71.833059
2261.000000	71.879765
2260.000000	71.925981
2259.000000	71.964923
2258.000000	71.989665
2257.000000	71.996335
2256.000000	71.989786
2255.000000	71.981262
2254.000000	71.980762
2253.000000	71.993593
2252.000000	72.021928
2251.000000	72.063179
2250.000000	72.106744
2249.000000	72.137979
2248.000000	72.147579
2247.000000	72.135315
2246.000000	72.106514
2245.000000	72.070519
2244.000000	72.040750
2243.000000	72.029414
2242.000000	72.039253
2241.000000	72.062887
2240.000000	72.089021
2239.000000	72.106095
2238.000000	72.102752
2237.000000	72.072528
2236.000000	72.020307
2235.000000	71.960261
2234.000000	71.906869
2233.000000	71.869893
2232.000000	71.854398
2231.000000	71.858493
2230.000000	71.870462
2229.000000	71.873800
2228.000000	71.857337
2227.000000	71.818901
2226.000000	71.762118
2225.000000	71.695402
2224.000000	71.632704
2223.000000	71.587845
2222.000000	71.565380
2221.000000	71.559338
2220.000000	71.559759
2219.000000	71.556682
2218.000000	71.540192
2217.000000	71.504286
2216.000000	71.452876
2215.000000	71.398019
2214.000000	71.351394
2213.000000	71.319890
2212.000000	71.306647
2211.000000	71.309706
2210.000000	71.319287
2209.000000	71.322150
2208.000000	71.310797
2207.000000	71.286349
2206.000000	71.254194
2205.000000	71.221752
2204.000000	71.199014
2203.000000	71.194212
2202.000000	71.206788
2201.000000	71.227791
2200.000000	71.247298
2199.000000	71.258474
2198.000000	71.256797
2197.000000	71.242135
2196.000000	71.222526
2195.000000	71.210670
2194.000000	71.214887
2193.000000	71.235516
2192.000000	71.268042
2191.000000	71.304513
2190.000000	71.333243
2189.000000	71.344077
2188.000000	71.336359
2187.000000	71.318719
2186.000000	71.301632
2185.000000	71.293745
2184.000000	71.302404
2183.000000	71.330101
2182.000000	71.368904
2181.000000	71.403409
2180.000000	71.420836
2179.000000	71.416244
2178.000000	71.390829
2177.000000	71.351914
2176.000000	71.314332
2175.000000	71.294531
2174.000000	71.300032
2173.000000	71.326410
2172.000000	71.362943
2171.000000	71.396648
2170.000000	71.413139
2169.000000	71.402254
2168.000000	71.366331
2167.000000	71.319603
2166.000000	71.278892
2165.000000	71.257194
2164.000000	71.262509
2163.000000	71.294586
2162.000000	71.341035
2161.000000	71.382074
2160.000000	71.401997
2159.000000	71.395146
2158.000000	71.364169
2157.000000	71.319223
2156.000000	71.278115
2155.000000	71.259278
2154.000000	71.270611
2153.000000	71.306527
2152.000000	71.354152
2151.000000	71.398162
2150.000000	71.422663
2149.000000	71.417453
2148.000000	71.385784
2147.000000	71.342585
2146.000000	71.304515
2145.000000	71.283787
2144.000000	71.287813
2143.000000	71.316412
2142.000000	71.357655
2141.000000	71.392638
2140.000000	71.407322
2139.000000	71.398068
2138.000000	71.368630
2137.000000	71.328373
2136.000000	71.292517
2135.000000	71.276081
2134.000000	71.284025
2133.000000	71.309814
2132.000000	71.342440
2131.000000	71.370886
2130.000000	71.384359
2129.000000	71.376582
2128.000000	71.352410
2127.000000	71.325541
2126.000000	71.308401
2125.000000	71.306893
2124.000000	71.322253
2123.000000	71.350820
2122.000000	71.381747
2121.000000	71.401694
2120.000000	71.404489
2119.000000	71.393525
2118.000000	71.376306
2117.000000	71.361949
2116.000000	71.361740
2115.000000	71.383738
2114.000000	71.424501
2113.000000	71.470594
2112.000000	71.509156
2111.000000	71.533646
2110.000000	71.542154
2109.000000	71.538308
2108.000000	71.534480
2107.000000	71.546880
2106.000000	71.584317
2105.000000	71.644672
2104.000000	71.720185
2103.000000	71.799968
2102.000000	71.869228
2101.000000	71.914869
2100.000000	71.936348
2099.000000	71.946609
2098.000000	71.962304
2097.000000	71.997229
2096.000000	72.061088
2095.000000	72.155146
2094.000000	72.266555
2093.000000	72.373347
2092.000000	72.457976
2091.000000	72.513547
2090.000000	72.540639
2089.000000	72.547057
2088.000000	72.550736
2087.000000	72.573297
2086.000000	72.626225
2085.000000	72.705659
2084.000000	72.798731
2083.000000	72.888787
2082.000000	72.956354
2081.000000	72.985782
2080.000000	72.976578
2079.000000	72.943854
2078.000000	72.906921
2077.000000	72.882177
2076.000000	72.882141
2075.000000	72.911903
2074.000000	72.961675
2073.000000	73.009975
2072.000000	73.038502
2071.000000	73.039279
2070.000000	73.011054
2069.000000	72.958378
2068.000000	72.896513
2067.000000	72.848119
2066.000000	72.829441
2065.000000	72.841823
2064.000000	72.875662
2063.000000	72.917080
2062.000000	72.951107
2061.000000	72.966726
2060.000000	72.963847
2059.000000	72.952601
2058.000000	72.944526
2057.000000	72.948014
2056.000000	72.969719
2055.000000	73.012728
2054.000000	73.071099
2053.000000	73.132292
2052.000000	73.187894
2051.000000	73.237529
2050.000000	73.283050
2049.000000	73.327297
2048.000000	73.378261
2047.000000	73.444702
2046.000000	73.526154
2045.000000	73.613169
2044.000000	73.698316
2043.000000	73.780612
2042.000000	73.859965
2041.000000	73.936105
2040.000000	74.014324
2039.000000	74.104875
2038.000000	74.213962
2037.000000	74.339696
2036.000000	74.476595
2035.000000	74.617188
2034.000000	74.749746
2033.000000	74.863165
2032.000000	74.956826
2031.000000	75.042054
2030.000000	75.131773
2029.000000	75.235844
2028.000000	75.362417
2027.000000	75.514488
2026.000000	75.682499
2025.000000	75.847035
2024.000000	75.993324
2023.000000	76.115066
2022.000000	76.208838
2021.000000	76.276152
2020.000000	76.332841
2019.000000	76.405262
2018.000000	76.512227
2017.000000	76.654154
2016.000000	76.817842
2015.000000	76.984616
2014.000000	77.133951
2013.000000	77.249509
2012.000000	77.327942
2011.000000	77.379686
2010.000000	77.420222
2009.000000	77.465972
2008.000000	77.533490
2007.000000	77.633077
2006.000000	77.759805
2005.000000	77.894811
2004.000000	78.020395
2003.000000	78.124045
2002.000000	78.197930
2001.000000	78.240765
2000.000000	78.263265
1999.000000	78.288196
1998.000000	78.332980
1997.000000	78.398615
1996.000000	78.476633
1995.000000	78.560935
1994.000000	78.648217
1993.000000	78.733695
1992.000000	78.810496
1991.000000	78.870228
1990.000000	78.906918
1989.000000	78.926961
1988.000000	78.949296
1987.000000	78.988431
1986.000000	79.042346
1985.000000	79.101237
1984.000000	79.162650
1983.000000	79.226387
1982.000000	79.286218
1981.000000	79.334536
1980.000000	79.372679
1979.000000	79.409259
1978.000000	79.445441
1977.000000	79.476373
1976.000000	79.503107
1975.000000	79.532685
1974.000000	79.566637
1973.000000	79.601175
1972.000000	79.636859
1971.000000	79.677169
1970.000000	79.719448
1969.000000	79.758638
1968.000000	79.797253
1967.000000	79.839195
1966.000000	79.875220
1965.000000	79.891596
1964.000000	79.891931
1963.000000	79.892995
1962.000000	79.903461
1961.000000	79.922424
1960.000000	79.954118
1959.000000	80.004638
1958.000000	80.065385
1957.000000	80.118265
1956.000000	80.154340
1955.000000	80.175777
1954.000000	80.180178
1953.000000	80.165130
1952.000000	80.145005
1951.000000	80.139999
1950.000000	80.158722
1949.000000	80.199037
1948.000000	80.256760
1947.000000	80.319827
1946.000000	80.363037
1945.000000	80.369978
1944.000000	80.353382
1943.000000	80.338729
1942.000000	80.332067
1941.000000	80.319994
1940.000000	80.304170
1939.000000	80.308279
1938.000000	80.343476
1937.000000	80.394807
1936.000000	80.444864
1935.000000	80.488587
1934.000000	80.516627
1933.000000	80.515661
1932.000000	80.489309
1931.000000	80.452778
1930.000000	80.422201
1929.000000	80.404448
1928.000000	80.406848
1927.000000	80.431305
1926.000000	80.462308
1925.000000	80.489227
1924.000000	80.514324
1923.000000	80.537230
1922.000000	80.536508
1921.000000	80.492257
1920.000000	80.430070
1919.000000	80.398761
1918.000000	80.407665
1917.000000	80.424401
1916.000000	80.426438
1915.000000	80.428950
1914.000000	80.446400
1913.000000	80.464339
1912.000000	80.463632
1911.000000	80.442459
1910.000000	80.410141
1909.000000	80.366497
1908.000000	80.316484
1907.000000	80.276850
1906.000000	80.253741
1905.000000	80.243277
1904.000000	80.239746
1903.000000	80.242582
1902.000000	80.251513
1901.000000	80.256671
1900.000000	80.251424
1899.000000	80.239584
1898.000000	80.220825
1897.000000	80.195066
1896.000000	80.173132
1895.000000	80.168945
1894.000000	80.175337
1893.000000	80.170762
1892.000000	80.157195
1891.000000	80.161277
1890.000000	80.193654
1889.000000	80.231758
1888.000000	80.246636
1887.000000	80.236518
1886.000000	80.218050
1885.000000	80.199061
1884.000000	80.178816
1883.000000	80.160795
1882.000000	80.152641
1881.000000	80.152940
1880.000000	80.158316
1879.000000	80.174196
1878.000000	80.196815
1877.000000	80.211055
1876.000000	80.214190
1875.000000	80.214622
1874.000000	80.207415
1873.000000	80.175932
1872.000000	80.126993
1871.000000	80.100216
1870.000000	80.116278
1869.000000	80.149655
1868.000000	80.169269
1867.000000	80.166291
1866.000000	80.146109
1865.000000	80.114090
1864.000000	80.071916
1863.000000	80.023045
1862.000000	79.972703
1861.000000	79.924453
1860.000000	79.884448
1859.000000	79.863830
1858.000000	79.866984
1857.000000	79.881737
1856.000000	79.894191
1855.000000	79.896796
1854.000000	79.888528
1853.000000	79.859422
1852.000000	79.799753
1851.000000	79.732109
1850.000000	79.685639
1849.000000	79.665135
1848.000000	79.653995
1847.000000	79.646688
1846.000000	79.661033
1845.000000	79.700070
1844.000000	79.723120
1843.000000	79.684411
1842.000000	79.584078
1841.000000	79.462092
1840.000000	79.364157
1839.000000	79.304384
1838.000000	79.262726
1837.000000	79.226358
1836.000000	79.201931
1835.000000	79.190505
1834.000000	79.172237
1833.000000	79.127495
1832.000000	79.076901
1831.000000	79.053092
1830.000000	79.036915
1829.000000	78.975756
1828.000000	78.850734
1827.000000	78.718729
1826.000000	78.644788
1825.000000	78.622595
1824.000000	78.602699
1823.000000	78.557151
1822.000000	78.492962
1821.000000	78.419510
1820.000000	78.343398
1819.000000	78.276041
1818.000000	78.223958
1817.000000	78.186827
1816.000000	78.150909
1815.000000	78.103934
1814.000000	78.041884
1813.000000	77.966370
1812.000000	77.893177
1811.000000	77.832524
1810.000000	77.778795
1809.000000	77.724767
1808.000000	77.672551
1807.000000	77.624935
1806.000000	77.566152
1805.000000	77.478624
1804.000000	77.366243
1803.000000	77.263049
1802.000000	77.200030
1801.000000	77.173475
1800.000000	77.166906
1799.000000	77.162794
1798.000000	77.151204
1797.000000	77.129179
1796.000000	77.090620
1795.000000	77.034320
1794.000000	76.965650
1793.000000	76.877874
1792.000000	76.776621
1791.000000	76.685323
1790.000000	76.607335
1789.000000	76.527494
1788.000000	76.443673
1787.000000	76.373628
1786.000000	76.330403
1785.000000	76.305356
1784.000000	76.264087
1783.000000	76.194407
1782.000000	76.119371
1781.000000	76.053540
1780.000000	76.004752
1779.000000	75.970544
1778.000000	75.960311
1777.000000	75.988170
1776.000000	76.042776
1775.000000	76.097223
1774.000000	76.124298
1773.000000	76.073988
1772.000000	75.921854
1771.000000	75.709246
1770.000000	75.490109
1769.000000	75.324812
1768.000000	75.245977
1767.000000	75.216695
1766.000000	75.164534
1765.000000	75.060643
1764.000000	74.949733
1763.000000	74.891999
1762.000000	74.877769
1761.000000	74.838886
1760.000000	74.738812
1759.000000	74.605260
1758.000000	74.503569
1757.000000	74.454268
1756.000000	74.426709
1755.000000	74.386248
1754.000000	74.319936
1753.000000	74.240779
1752.000000	74.174195
1751.000000	74.117285
1750.000000	74.035996
1749.000000	73.921260
1748.000000	73.789847
1747.000000	73.659267
1746.000000	73.522568
1745.000000	73.374466
1744.000000	73.242882
1743.000000	73.148760
1742.000000	73.074375
1741.000000	73.007458
1740.000000	72.962521
1739.000000	72.937870
1738.000000	72.907453
1737.000000	72.844248
1736.000000	72.784449
1735.000000	72.741379
1734.000000	72.594159
1733.000000	72.255434
1732.000000	71.816293
1731.000000	71.443888
1730.000000	71.204179
1729.000000	71.035280
1728.000000	70.860330
1727.000000	70.667874
1726.000000	70.467504
1725.000000	70.254535
1724.000000	70.046711
1723.000000	69.872091
1722.000000	69.747653
1721.000000	69.675850
1720.000000	69.665912
1719.000000	69.661411
1718.000000	69.500256
1717.000000	69.110969
1716.000000	68.608494
1715.000000	68.156344
1714.000000	67.815575
1713.000000	67.536995
1712.000000	67.270458
1711.000000	67.017490
1710.000000	66.783015
1709.000000	66.532663
1708.000000	66.247596
1707.000000	65.959980
1706.000000	65.700699
1705.000000	65.474583
1704.000000	65.263838
1703.000000	65.039816
1702.000000	64.873770
1701.000000	64.815126
1700.000000	64.712488
1699.000000	64.465672
1698.000000	64.094912
1697.000000	63.636531
1696.000000	63.137494
1695.000000	62.617983
1694.000000	62.105938
1693.000000	61.654250
1692.000000	61.282606
1691.000000	60.962573
1690.000000	60.681711
1689.000000	60.464009
1688.000000	60.316439
1687.000000	60.174312
1686.000000	59.940662
1685.000000	59.507583
1684.000000	58.903626
1683.000000	58.316614
1682.000000	57.811606
1681.000000	57.367935
1680.000000	56.970286
1679.000000	56.601692
1678.000000	56.237822
1677.000000	55.865622
1676.000000	55.497378
1675.000000	55.141814
1674.000000	54.786996
1673.000000	54.415801
1672.000000	54.046390
1671.000000	53.683506
1670.000000	53.288790
1669.000000	52.839274
1668.000000	52.373248
1667.000000	51.950016
1666.000000	51.576403
1665.000000	51.223534
1664.000000	50.869929
1663.000000	50.504768
1662.000000	50.127882
1661.000000	49.729899
1660.000000	49.326844
1659.000000	48.969543
1658.000000	48.705597
1657.000000	48.543854
1656.000000	48.458626
1655.000000	48.418894
1654.000000	48.275057
1653.000000	47.875158
1652.000000	47.267578
1651.000000	46.627573
1650.000000	46.124656
1649.000000	45.770131
1648.000000	45.449525
1647.000000	45.099815
1646.000000	44.743271
1645.000000	44.372910
1644.000000	43.993559
1643.000000	43.650992
1642.000000	43.358670
1641.000000	43.088757
1640.000000	42.839329
1639.000000	42.632640
1638.000000	42.458417
1637.000000	42.248614
1636.000000	41.969833
1635.000000	41.680687
1634.000000	41.397414
1633.000000	41.107777
1632.000000	40.829946
1631.000000	40.583464
1630.000000	40.366270
1629.000000	40.159550
1628.000000	39.961124
1627.000000	39.794465
1626.000000	39.666926
1625.000000	39.558109
1624.000000	39.451098
1623.000000	39.348133
1622.000000	39.254836
1621.000000	39.172175
1620.000000	39.121255
1619.000000	39.117391
1618.000000	39.124609
1617.000000	39.073957
1616.000000	38.948009
1615.000000	38.804799
1614.000000	38.700167
1613.000000	38.642897
1612.000000	38.614341
1611.000000	38.602227
1610.000000	38.600979
1609.000000	38.601351
1608.000000	38.607977
1607.000000	38.643599
1606.000000	38.717128
1605.000000	38.804810
1604.000000	38.886805
1603.000000	38.966334
1602.000000	39.043064
1601.000000	39.104319
1600.000000	39.153117
1599.000000	39.216280
1598.000000	39.309297
1597.000000	39.420307
1596.000000	39.536912
1595.000000	39.660184
1594.000000	39.782766
1593.000000	39.881971
1592.000000	39.950858
1591.000000	40.010338
1590.000000	40.080404
1589.000000	40.160761
1588.000000	40.252207
1587.000000	40.365257
1586.000000	40.498881
1585.000000	40.628645
1584.000000	40.732278
1583.000000	40.817954
1582.000000	40.904758
1581.000000	41.007926
1580.000000	41.150447
1579.000000	41.355018
1578.000000	41.597868
1577.000000	41.804458
1576.000000	41.915350
1575.000000	41.928919
1574.000000	41.889237
1573.000000	41.849170
1572.000000	41.845188
1571.000000	41.892083
1570.000000	41.979838
1569.000000	42.076132
1568.000000	42.154625
1567.000000	42.235922
1566.000000	42.362857
1565.000000	42.548022
1564.000000	42.764347
1563.000000	42.987976
1562.000000	43.173041
1561.000000	43.363031
1560.000000	43.558252
1559.000000	43.714233
1558.000000	43.863244
1557.000000	43.908410
1556.000000	43.892868
1555.000000	43.941676
1554.000000	44.047517
1553.000000	44.129152
1552.000000	44.169268
1551.000000	44.245419
1550.000000	44.411103
1549.000000	44.640587
1548.000000	44.875783
1547.000000	45.125145
1546.000000	45.444414
1545.000000	45.840528
1544.000000	46.274567
1543.000000	46.729939
1542.000000	47.198130
1541.000000	47.614201
1540.000000	47.957562
1539.000000	48.235483
1538.000000	48.386088
1537.000000	48.459818
1536.000000	48.584501
1535.000000	48.844576
1534.000000	49.239936
1533.000000	49.669183
1532.000000	50.038135
1531.000000	50.347660
1530.000000	50.666356
1529.000000	51.050074
1528.000000	51.512199
1527.000000	52.050506
1526.000000	52.637454
1525.000000	53.198702
1524.000000	53.686339
1523.000000	54.125608
1522.000000	54.564405
1521.000000	54.986351
1520.000000	55.315423
1519.000000	55.581117
1518.000000	55.902318
1517.000000	56.319194
1516.000000	56.758823
1515.000000	57.128784
1514.000000	57.417141
1513.000000	57.676048
1512.000000	57.956539
1511.000000	58.297298
1510.000000	58.722139
1509.000000	59.250188
1508.000000	59.824618
1507.000000	60.429650
1506.000000	61.029244
1505.000000	61.357352
1504.000000	61.420738
1503.000000	61.484145
1502.000000	61.688773
1501.000000	62.052735
1500.000000	62.553071
1499.000000	63.168998
1498.000000	63.840173
1497.000000	64.476619
1496.000000	65.001788
1495.000000	65.374112
1494.000000	65.612094
1493.000000	65.782734
1492.000000	65.987311
1491.000000	66.304053
1490.000000	66.709984
1489.000000	67.119770
1488.000000	67.492262
1487.000000	67.830691
1486.000000	68.117415
1485.000000	68.304461
1484.000000	68.384267
1483.000000	68.421530
1482.000000	68.456178
1481.000000	68.465594
1480.000000	68.428011
1479.000000	68.366384
1478.000000	68.289459
1477.000000	68.158024
1476.000000	67.926148
1475.000000	67.549603
1474.000000	66.922882
1473.000000	65.925587
1472.000000	64.656018
1471.000000	63.332682
1470.000000	61.991577
1469.000000	60.538032
1468.000000	58.897378
1467.000000	56.969597
1466.000000	54.556160
1465.000000	51.550381
1464.000000	48.241186
1463.000000	45.066779
1462.000000	42.158818
1461.000000	39.437998
1460.000000	36.833904
1459.000000	34.231168
1458.000000	31.380560
1457.000000	28.348506
1456.000000	25.800561
1455.000000	24.127224
1454.000000	23.075675
1453.000000	22.375383
1452.000000	21.997470
1451.000000	21.986810
1450.000000	22.326819
1449.000000	23.008757
1448.000000	24.058833
1447.000000	25.391642
1446.000000	26.825320
1445.000000	28.273229
1444.000000	29.781450
1443.000000	31.380716
1442.000000	33.013351
1441.000000	34.600861
1440.000000	36.116049
1439.000000	37.611287
1438.000000	39.222896
1437.000000	41.050810
1436.000000	42.912747
1435.000000	44.482099
1434.000000	45.712518
1433.000000	46.803709
1432.000000	47.902461
1431.000000	49.005111
1430.000000	50.035349
1429.000000	50.942175
1428.000000	51.685946
1427.000000	52.236157
1426.000000	52.633157
1425.000000	52.957302
1424.000000	53.257551
1423.000000	53.534079
1422.000000	53.785971
1421.000000	54.063793
1420.000000	54.435806
1419.000000	54.892962
1418.000000	55.361371
1417.000000	55.817805
1416.000000	56.298311
1415.000000	56.825593
1414.000000	57.401654
1413.000000	58.038500
1412.000000	58.750945
1411.000000	59.528013
1410.000000	60.330706
1409.000000	61.119716
1408.000000	61.860402
1407.000000	62.522403
1406.000000	63.117531
1405.000000	63.688342
1404.000000	64.241079
1403.000000	64.734684
1402.000000	65.167599
1401.000000	65.614303
1400.000000	66.127278
1399.000000	66.653909
1398.000000	67.098058
1397.000000	67.431115
1396.000000	67.681646
1395.000000	67.879365
1394.000000	68.047841
1393.000000	68.196394
1392.000000	68.322170
1391.000000	68.419706
1390.000000	68.475481
1389.000000	68.442842
1388.000000	68.231123
1387.000000	67.790108
1386.000000	67.231162
1385.000000	66.773464
1384.000000	66.583870
1383.000000	66.701270
1382.000000	67.039425
1381.000000	67.445514
1380.000000	67.780108
1379.000000	67.970205
1378.000000	68.010974
1377.000000	67.928062
1376.000000	67.740033
1375.000000	67.471825
1374.000000	67.189784
1373.000000	66.962399
1372.000000	66.793980
1371.000000	66.652940
1370.000000	66.531405
1369.000000	66.422404
1368.000000	66.285892
1367.000000	66.071737
1366.000000	65.762904
1365.000000	65.374731
1364.000000	64.922537
1363.000000	64.430857
1362.000000	63.956187
1361.000000	63.540303
1360.000000	63.167832
1359.000000	62.809880
1358.000000	62.471305
1357.000000	62.178101
1356.000000	61.950566
1355.000000	61.807135
1354.000000	61.765749
1353.000000	61.820095
1352.000000	61.922712
1351.000000	62.002884
1350.000000	61.999749
1349.000000	61.859046
1348.000000	61.527544
1347.000000	60.975252
1346.000000	60.209891
1345.000000	59.258775
1344.000000	58.147369
1343.000000	56.893956
1342.000000	55.507129
1341.000000	53.974588
1340.000000	52.280082
1339.000000	50.447433
1338.000000	48.522406
1337.000000	46.515877
1336.000000	44.406188
1335.000000	42.187875
1334.000000	39.886856
1333.000000	37.533428
1332.000000	35.158807
1331.000000	32.817570
1330.000000	30.579054
1329.000000	28.493653
1328.000000	26.590537
1327.000000	24.890827
1326.000000	23.394763
1325.000000	22.071626
1324.000000	20.885807
1323.000000	19.825373
1322.000000	18.883198
1321.000000	18.036744
1320.000000	17.281169
1319.000000	16.657999
1318.000000	16.232873
1317.000000	16.055279
1316.000000	16.154104
1315.000000	16.552095
1314.000000	17.244135
1313.000000	18.184748
1312.000000	19.313349
1311.000000	20.575561
1310.000000	21.922422
1309.000000	23.301272
1308.000000	24.665675
1307.000000	25.985575
1306.000000	27.241214
1305.000000	28.420454
1304.000000	29.526853
1303.000000	30.579558
1302.000000	31.597590
1301.000000	32.588320
1300.000000	33.548663
1299.000000	34.470615
1298.000000	35.341611
1297.000000	36.149248
1296.000000	36.897248
1295.000000	37.614893
1294.000000	38.347124
1293.000000	39.134971
1292.000000	40.002312
1291.000000	40.951980
1290.000000	41.968260
1289.000000	43.023626
1288.000000	44.088027
1287.000000	45.137867
1286.000000	46.160223
1285.000000	47.148736
1284.000000	48.095617
1283.000000	48.986951
1282.000000	49.800749
1281.000000	50.508637
1280.000000	51.079117
1279.000000	51.491958
1278.000000	51.756190
1277.000000	51.909580
1276.000000	52.007809
1275.000000	52.115123
1274.000000	52.294663
1273.000000	52.592045
1272.000000	53.021558
1271.000000	53.568643
1270.000000	54.205495
1269.000000	54.903536
1268.000000	55.638502
1267.000000	56.401387
1266.000000	57.203861
1265.000000	58.065106
1264.000000	58.988921
1263.000000	59.953323
1262.000000	60.918056
1261.000000	61.830997
1260.000000	62.631918
1259.000000	63.274051
1258.000000	63.755890
1257.000000	64.120153
1256.000000	64.424995
1255.000000	64.724098
1254.000000	65.057384
1253.000000	65.436111
1252.000000	65.825517
1251.000000	66.158215
1250.000000	66.371731
1249.000000	66.430045
1248.000000	66.327697
1247.000000	66.092439
1246.000000	65.785336
1245.000000	65.476949
1244.000000	65.208927
1243.000000	64.981994
1242.000000	64.766489
1241.000000	64.512965
1240.000000	64.164399
1239.000000	63.681171
1238.000000	63.068488
1237.000000	62.373061
1236.000000	61.657705
1235.000000	60.984229
1234.000000	60.402675
1233.000000	59.934831
1232.000000	59.564917
1231.000000	59.253911
1230.000000	58.964159
1229.000000	58.675176
1228.000000	58.385242
1227.000000	58.113280
1226.000000	57.897770
1225.000000	57.777412
1224.000000	57.771480
1223.000000	57.873831
1222.000000	58.060136
1221.000000	58.296569
1220.000000	58.545508
1219.000000	58.781479
1218.000000	59.004149
1217.000000	59.232914
1216.000000	59.490887
1215.000000	59.793624
1214.000000	60.146978
1213.000000	60.541577
1212.000000	60.948541
1211.000000	61.331872
1210.000000	61.670868
1209.000000	61.969353
1208.000000	62.247447
1207.000000	62.533524
1206.000000	62.858636
1205.000000	63.241360
1204.000000	63.671269
1203.000000	64.112241
1202.000000	64.523562
1201.000000	64.875774
1200.000000	65.156306
1199.000000	65.377594
1198.000000	65.582155
1197.000000	65.825381
1196.000000	66.144941
1195.000000	66.546380
1194.000000	67.008107
1193.000000	67.486075
1192.000000	67.919306
1191.000000	68.253399
1190.000000	68.473057
1189.000000	68.609350
1188.000000	68.718763
1187.000000	68.863252
1186.000000	69.096964
1185.000000	69.445467
1184.000000	69.884883
1183.000000	70.346163
1182.000000	70.746632
1181.000000	71.021415
1180.000000	71.144205
1179.000000	71.143001
1178.000000	71.096391
1177.000000	71.095832
1176.000000	71.200597
1175.000000	71.423497
1174.000000	71.740498
1173.000000	72.095899
1172.000000	72.409910
1171.000000	72.609001
1170.000000	72.665329
1169.000000	72.605658
1168.000000	72.488325
1167.000000	72.382765
1166.000000	72.356196
1165.000000	72.448710
1164.000000	72.648499
1163.000000	72.897908
1162.000000	73.127924
1161.000000	73.284501
1160.000000	73.337070
1159.000000	73.289705
1158.000000	73.189648
1157.000000	73.106311
1156.000000	73.093088
1155.000000	73.169884
1154.000000	73.328710
1153.000000	73.536252
1152.000000	73.736086
1151.000000	73.873284
1150.000000	73.929265
1149.000000	73.926573
1148.000000	73.904189
1147.000000	73.900269
1146.000000	73.948767
1145.000000	74.066126
1144.000000	74.234215
1143.000000	74.409316
1142.000000	74.552900
1141.000000	74.647791
1140.000000	74.693268
1139.000000	74.704645
1138.000000	74.716716
1137.000000	74.766759
1136.000000	74.866575
1135.000000	74.997321
1134.000000	75.128456
1133.000000	75.229556
1132.000000	75.272237
1131.000000	75.244609
1130.000000	75.168979
1129.000000	75.091503
1128.000000	75.050932
1127.000000	75.063548
1126.000000	75.127303
1125.000000	75.218053
1124.000000	75.285337
1123.000000	75.273393
1122.000000	75.156947
1121.000000	74.952052
1120.000000	74.697026
1119.000000	74.438275
1118.000000	74.223728
1117.000000	74.081459
1116.000000	73.996218
1115.000000	73.912961
1114.000000	73.767722
1113.000000	73.510991
1112.000000	73.114493
1111.000000	72.584482
1110.000000	71.968390
1109.000000	71.332882
1108.000000	70.726866
1107.000000	70.161668
1106.000000	69.616259
1105.000000	69.038232
1104.000000	68.350885
1103.000000	67.485010
1102.000000	66.410608
1101.000000	65.145950
1100.000000	63.736059
1099.000000	62.232147
1098.000000	60.679822
1097.000000	59.092601
1096.000000	57.444196
1095.000000	55.680557
1094.000000	53.744611
1093.000000	51.600246
1092.000000	49.242805
1091.000000	46.710089
1090.000000	44.071487
1089.000000	41.402211
1088.000000	38.768209
1087.000000	36.220676
1086.000000	33.789349
1085.000000	31.483395
1084.000000	29.310326
1083.000000	27.283190
1082.000000	25.416615
1081.000000	23.719693
1080.000000	22.204496
1079.000000	20.887692
1078.000000	19.762220
1077.000000	18.799132
1076.000000	17.968172
1075.000000	17.244741
1074.000000	16.601290
1073.000000	16.005273
1072.000000	15.444576
1071.000000	14.929106
1070.000000	14.465868
1069.000000	14.055096
1068.000000	13.703514
1067.000000	13.424355
1066.000000	13.216213
1065.000000	13.061943
1064.000000	12.955349
1063.000000	12.902841
1062.000000	12.904576
1061.000000	12.954179
1060.000000	13.057283
1059.000000	13.231525
1058.000000	13.479837
1057.000000	13.788019
1056.000000	14.146936
1055.000000	14.554370
1054.000000	14.999571
1053.000000	15.464490
1052.000000	15.947117
1051.000000	16.464333
1050.000000	17.027718
1049.000000	17.640086
1048.000000	18.308633
1047.000000	19.040885
1046.000000	19.826814
1045.000000	20.641687
1044.000000	21.470759
1043.000000	22.313578
1042.000000	23.170859
1041.000000	24.046334
1040.000000	24.956704
1039.000000	25.925526
1038.000000	26.961449
1037.000000	28.052632
1036.000000	29.179356
1035.000000	30.317085
1034.000000	31.434996
1033.000000	32.508602
1032.000000	33.538745
1031.000000	34.551101
1030.000000	35.576934
1029.000000	36.639160
1028.000000	37.747690
1027.000000	38.893595
1026.000000	40.044599
1025.000000	41.156921
1024.000000	42.195533
1023.000000	43.147455
1022.000000	44.024490
1021.000000	44.858238
1020.000000	45.691047
1019.000000	46.559739
1018.000000	47.478939
1017.000000	48.435155
1016.000000	49.390669
1015.000000	50.297829
1014.000000	51.118303
1013.000000	51.839253
1012.000000	52.478559
1011.000000	53.076980
1010.000000	53.684096
1009.000000	54.339462
1008.000000	55.054980
1007.000000	55.810945
1006.000000	56.565429
1005.000000	57.271411
1004.000000	57.893302
1003.000000	58.421079
1002.000000	58.877632
1001.000000	59.308550
1000.000000	59.760163
999.000000	60.261776
998.000000	60.818026
997.000000	61.408543
996.000000	61.992155
995.000000	62.524045
994.000000	62.979650
993.000000	63.364527
992.000000	63.706580
991.000000	64.044215
990.000000	64.415125
989.000000	64.840038
988.000000	65.308033
987.000000	65.782712
986.000000	66.223757
985.000000	66.604410
984.000000	66.917597
983.000000	67.180144
982.000000	67.433083
981.000000	67.723654
980.000000	68.077012
979.000000	68.484778
978.000000	68.913528
977.000000	69.317237
976.000000	69.648572
975.000000	69.880583
974.000000	70.029195
973.000000	70.148198
972.000000	70.299966
971.000000	70.530374
970.000000	70.857409
969.000000	71.262852
968.000000	71.688398
967.000000	72.055929
966.000000	72.306448
965.000000	72.425654
964.000000	72.443718
963.000000	72.426214
962.000000	72.458789
961.000000	72.613444
960.000000	72.910656
959.000000	73.311352
958.000000	73.737892
957.000000	74.100620
956.000000	74.322176
955.000000	74.369053
954.000000	74.276906
953.000000	74.138282
952.000000	74.057831
951.000000	74.112973
950.000000	74.334840
949.000000	74.697397
948.000000	75.115849
947.000000	75.475840
946.000000	75.686694
945.000000	75.716367
944.000000	75.593169
943.000000	75.395076
942.000000	75.229993
941.000000	75.194621
940.000000	75.329828
939.000000	75.608064
938.000000	75.953419
937.000000	76.269312
936.000000	76.464826
935.000000	76.488658
934.000000	76.357734
933.000000	76.147985
932.000000	75.951681
931.000000	75.843080
930.000000	75.863774
929.000000	76.009818
928.000000	76.224188
927.000000	76.419110
926.000000	76.521716
925.000000	76.501653
924.000000	76.369414
923.000000	76.167604
922.000000	75.960310
921.000000	75.807232
920.000000	75.732681
919.000000	75.719534
918.000000	75.729114
917.000000	75.718445
916.000000	75.649080
915.000000	75.502621
914.000000	75.295879
913.000000	75.069065
912.000000	74.854167
911.000000	74.660852
910.000000	74.481994
909.000000	74.296745
908.000000	74.072198
907.000000	73.780462
906.000000	73.423669
905.000000	73.033719
904.000000	72.647665
903.000000	72.290769
902.000000	71.972564
901.000000	71.679986
900.000000	71.369991
899.000000	70.984512
898.000000	70.485615
897.000000	69.873111
896.000000	69.179491
895.000000	68.458450
894.000000	67.769858
893.000000	67.154825
892.000000	66.611025
891.000000	66.092513
890.000000	65.531090
889.000000	64.858511
888.000000	64.027043
887.000000	63.029855
886.000000	61.911836
885.000000	60.751242
884.000000	59.621612
883.000000	58.566313
882.000000	57.587721
881.000000	56.645391
880.000000	55.667631
879.000000	54.578651
878.000000	53.332124
877.000000	51.928348
876.000000	50.412164
875.000000	48.856617
874.000000	47.334649
873.000000	45.892162
872.000000	44.535079
871.000000	43.233169
870.000000	41.934564
869.000000	40.586312
868.000000	39.157744
867.000000	37.653276
866.000000	36.106964
865.000000	34.566513
864.000000	33.079926
863.000000	31.680782
862.000000	30.373823
861.000000	29.137585
860.000000	27.943777
859.000000	26.775513
858.000000	25.630862
857.000000	24.527078
856.000000	23.509187
855.000000	22.634643
854.000000	21.948110
853.000000	21.465295
852.000000	21.174921
851.000000	21.042760
850.000000	21.008199
849.000000	21.005052
848.000000	20.990505
847.000000	20.953052
846.000000	20.900463
845.000000	20.849360
844.000000	20.826499
843.000000	20.858340
842.000000	20.953187
841.000000	21.102952
840.000000	21.299029
839.000000	21.539142
838.000000	21.822196
837.000000	22.149730
836.000000	22.535262
835.000000	22.996028
834.000000	23.536525
833.000000	24.145182
832.000000	24.803349
831.000000	25.490946
830.000000	26.186216
829.000000	26.874583
828.000000	27.559072
827.000000	28.256054
826.000000	28.986128
825.000000	29.771507
824.000000	30.632506
823.000000	31.571458
822.000000	32.560476
821.000000	33.552537
820.000000	34.502514
819.000000	35.379571
818.000000	36.173886
817.000000	36.903082
816.000000	37.608015
815.000000	38.333180
814.000000	39.105679
813.000000	39.926254
812.000000	40.771503
811.000000	41.599899
810.000000	42.366634
809.000000	43.044751
808.000000	43.637462
807.000000	44.176152
806.000000	44.709443
805.000000	45.287637
804.000000	45.943303
803.000000	46.676604
802.000000	47.457359
801.000000	48.239643
800.000000	48.977259
799.000000	49.637528
798.000000	50.215025
797.000000	50.735302
796.000000	51.240180
795.000000	51.766663
794.000000	52.335948
793.000000	52.950329
792.000000	53.591929
791.000000	54.227528
790.000000	54.824967
789.000000	55.368643
788.000000	55.861683
787.000000	56.320916
786.000000	56.771375
785.000000	57.234635
784.000000	57.714279
783.000000	58.193625
782.000000	58.650841
781.000000	59.072616
780.000000	59.455510
779.000000	59.806317
778.000000	60.146486
777.000000	60.506046
776.000000	60.903314
775.000000	61.330991
774.000000	61.762524
773.000000	62.164786
772.000000	62.506797
771.000000	62.771987
770.000000	62.973799
769.000000	63.155421
768.000000	63.368530
767.000000	63.651873
766.000000	64.021520
765.000000	64.463015
764.000000	64.925903
763.000000	65.338141
762.000000	65.641248
761.000000	65.816517
760.000000	65.885944
759.000000	65.903971
758.000000	65.947568
757.000000	66.090279
756.000000	66.365425
755.000000	66.749027
754.000000	67.175830
753.000000	67.565517
752.000000	67.842911
751.000000	67.961865
750.000000	67.931361
749.000000	67.816760
748.000000	67.708281
747.000000	67.685037
746.000000	67.794704
745.000000	68.039422
744.000000	68.366900
743.000000	68.686325
742.000000	68.910021
741.000000	68.988289
740.000000	68.918625
739.000000	68.744019
738.000000	68.545488
737.000000	68.413734
736.000000	68.407620
735.000000	68.533395
734.000000	68.756648
733.000000	69.020725
732.000000	69.257753
731.000000	69.409337
730.000000	69.458005
729.000000	69.435694
728.000000	69.399063
727.000000	69.402519
726.000000	69.487616
725.000000	69.674061
724.000000	69.946038
723.000000	70.256581
722.000000	70.555849
721.000000	70.813179
720.000000	71.017343
719.000000	71.175205
718.000000	71.314936
717.000000	71.472288
716.000000	71.662845
715.000000	71.874981
714.000000	72.090541
713.000000	72.299103
712.000000	72.491962
711.000000	72.662939
710.000000	72.824479
709.000000	73.005967
708.000000	73.225951
707.000000	73.474995
706.000000	73.726985
705.000000	73.953162
704.000000	74.123771
703.000000	74.218432
702.000000	74.250008
701.000000	74.267036
700.000000	74.324474
699.000000	74.459896
698.000000	74.689965
697.000000	75.003462
696.000000	75.346758
695.000000	75.637453
694.000000	75.811560
693.000000	75.853742
692.000000	75.788058
691.000000	75.666605
690.000000	75.570862
689.000000	75.591942
688.000000	75.777575
687.000000	76.099037
686.000000	76.477619
685.000000	76.823914
684.000000	77.052844
683.000000	77.105745
682.000000	76.990220
681.000000	76.787445
680.000000	76.606978
679.000000	76.537341
678.000000	76.630506
677.000000	76.889493
676.000000	77.250028
675.000000	77.603467
674.000000	77.853231
673.000000	77.956129
672.000000	77.928503
671.000000	77.827795
670.000000	77.725761
669.000000	77.680726
668.000000	77.714752
667.000000	77.837207
666.000000	78.043798
665.000000	78.278916
664.000000	78.475561
663.000000	78.575762
662.000000	78.554171
661.000000	78.443687
660.000000	78.314291
659.000000	78.236756
658.000000	78.261179
657.000000	78.395408
656.000000	78.597599
655.000000	78.803317
654.000000	78.957077
653.000000	79.031516
652.000000	79.033046
651.000000	78.997225
650.000000	78.973734
649.000000	78.999287
648.000000	79.078388
647.000000	79.187363
646.000000	79.291873
645.000000	79.360581
644.000000	79.371986
643.000000	79.327596
642.000000	79.265010
641.000000	79.241828
640.000000	79.296569
639.000000	79.425277
638.000000	79.587708
637.000000	79.726686
636.000000	79.787644
635.000000	79.740224
634.000000	79.599495
633.000000	79.423426
632.000000	79.285557
631.000000	79.249412
630.000000	79.349725
629.000000	79.571546
628.000000	79.842728
627.000000	80.060027
626.000000	80.139590
625.000000	80.053849
624.000000	79.832803
623.000000	79.553303
622.000000	79.324627
621.000000	79.248836
620.000000	79.368157
619.000000	79.644185
618.000000	79.979782
617.000000	80.258149
616.000000	80.378252
615.000000	80.292596
614.000000	80.038024
613.000000	79.723697
612.000000	79.476768
611.000000	79.391245
610.000000	79.503511
609.000000	79.780619
608.000000	80.122843
607.000000	80.398716
606.000000	80.507053
605.000000	80.418356
604.000000	80.171322
603.000000	79.852356
602.000000	79.573431
601.000000	79.428563
600.000000	79.443176
599.000000	79.560132
598.000000	79.677233
597.000000	79.698720
596.000000	79.568885
595.000000	79.296287
594.000000	78.965868
593.000000	78.703709
592.000000	78.610600
591.000000	78.718934
590.000000	78.990453
589.000000	79.337487
588.000000	79.652575
587.000000	79.849014
586.000000	79.902739
585.000000	79.858098
584.000000	79.788497
583.000000	79.761266
582.000000	79.829223
581.000000	80.012342
580.000000	80.267730
579.000000	80.496753
578.000000	80.607661
577.000000	80.568911
576.000000	80.411553
575.000000	80.210735
574.000000	80.063548
573.000000	80.049277
572.000000	80.190044
571.000000	80.438791
570.000000	80.700343
569.000000	80.867621
568.000000	80.856720
567.000000	80.645190
566.000000	80.301367
565.000000	79.957110
564.000000	79.736346
563.000000	79.706979
562.000000	79.868191
561.000000	80.147533
560.000000	80.414351
559.000000	80.527898
558.000000	80.409365
557.000000	80.079278
556.000000	79.636020
555.000000	79.217256
554.000000	78.961895
553.000000	78.952584
552.000000	79.170942
551.000000	79.506083
550.000000	79.811028
549.000000	79.963173
548.000000	79.898711
547.000000	79.634909
546.000000	79.282798
545.000000	79.001092
544.000000	78.910850
543.000000	79.047255
542.000000	79.362638
541.000000	79.745723
540.000000	80.053135
539.000000	80.169468
538.000000	80.073390
537.000000	79.844828
536.000000	79.606939
535.000000	79.470755
534.000000	79.508923
533.000000	79.730155
532.000000	80.060745
531.000000	80.369283
530.000000	80.540405
529.000000	80.531463
528.000000	80.372108
527.000000	80.147807
526.000000	79.988020
525.000000	80.005171
524.000000	80.210880
523.000000	80.509168
522.000000	80.770728
521.000000	80.893159
520.000000	80.817600
519.000000	80.547842
518.000000	80.177444
517.000000	79.860900
516.000000	79.720308
515.000000	79.777140
514.000000	79.959840
513.000000	80.139441
512.000000	80.165760
511.000000	79.924954
510.000000	79.409634
509.000000	78.720620
508.000000	78.001368
507.000000	77.390747
506.000000	76.994974
505.000000	76.837490
504.000000	76.835687
503.000000	76.840235
502.000000	76.709904
501.000000	76.376464
500.000000	75.863171
499.000000	75.272345
498.000000	74.777041
497.000000	74.561209
496.000000	74.717664
495.000000	75.201378
494.000000	75.871573
493.000000	76.554005
492.000000	77.080953
491.000000	77.351000
490.000000	77.390774
489.000000	77.340081
488.000000	77.367459
487.000000	77.600054
486.000000	78.091399
485.000000	78.784457
484.000000	79.499035
483.000000	80.011323
482.000000	80.193299
481.000000	80.067164
480.000000	79.746269
479.000000	79.377123
478.000000	79.122016
477.000000	79.109754
476.000000	79.354336
475.000000	79.741904
474.000000	80.115693
473.000000	80.350290
472.000000	80.386563
471.000000	80.262291
470.000000	80.103260
469.000000	80.060823
468.000000	80.238572
467.000000	80.634534
466.000000	81.138743
465.000000	81.595019
464.000000	81.866640
463.000000	81.878099
462.000000	81.671434
461.000000	81.398920
460.000000	81.223686
459.000000	81.258167
458.000000	81.552035
457.000000	82.035908
456.000000	82.497586
455.000000	82.712932
454.000000	82.603178
453.000000	82.255112
452.000000	81.848207
451.000000	81.557441
450.000000	81.499962
449.000000	81.736929
448.000000	82.241795
447.000000	82.852474
446.000000	83.335977
445.000000	83.529968
444.000000	83.392969
443.000000	82.994293
442.000000	82.532688
441.000000	82.265658
440.000000	82.343505
439.000000	82.741494
438.000000	83.332976
437.000000	83.952257
436.000000	84.393010
435.000000	84.467524
434.000000	84.162378
433.000000	83.663623
432.000000	83.217915
431.000000	83.024179
430.000000	83.200791
429.000000	83.741930
428.000000	84.461906
427.000000	85.043322
426.000000	85.234979
425.000000	85.010381
424.000000	84.517888
423.000000	83.969182
422.000000	83.571715
421.000000	83.464652
420.000000	83.701546
419.000000	84.217961
418.000000	84.789628
417.000000	85.182819
416.000000	85.278474
415.000000	85.045274
414.000000	84.589648
413.000000	84.188569
412.000000	84.080559
411.000000	84.285807
410.000000	84.696990
409.000000	85.201125
408.000000	85.633021
407.000000	85.767552
406.000000	85.535459
405.000000	85.136415
404.000000	84.803823
403.000000	84.609514
402.000000	84.567421
401.000000	84.730410
400.000000	85.030192
