PE IR       SUBTECH     SPECTRUM    ASCII       PEDS        4.00        
   -1
23ms182_nitro.asc
24/09/06
16:40:51.00
24/09/06
16:40:51.00
Administrator
Sample 1131 By Administrator Date Friday, September 06 2024
400.000000
#HDR
-1
-1
#GR
cm-1
%T
1.0
0.0
4000.000000
-1.000000
3601
8
88.606247
8.277938
#DATA
4000.000000	60.316148
3999.000000	60.349590
3998.000000	60.383643
3997.000000	60.418398
3996.000000	60.453671
3995.000000	60.488774
3994.000000	60.522639
3993.000000	60.554795
3992.000000	60.586241
3991.000000	60.618652
3990.000000	60.652242
3989.000000	60.685348
3988.000000	60.716844
3987.000000	60.747983
3986.000000	60.781060
3985.000000	60.816704
3984.000000	60.853465
3983.000000	60.889457
3982.000000	60.923479
3981.000000	60.954934
3980.000000	60.983604
3979.000000	61.010052
3978.000000	61.036015
3977.000000	61.063292
3976.000000	61.092089
3975.000000	61.120865
3974.000000	61.148302
3973.000000	61.174854
3972.000000	61.201923
3971.000000	61.230868
3970.000000	61.262281
3969.000000	61.295395
3968.000000	61.328109
3967.000000	61.358347
3966.000000	61.385334
3965.000000	61.410279
3964.000000	61.435658
3963.000000	61.463175
3962.000000	61.492670
3961.000000	61.522225
3960.000000	61.549435
3959.000000	61.574558
3958.000000	61.600653
3957.000000	61.630107
3956.000000	61.661893
3955.000000	61.693061
3954.000000	61.721634
3953.000000	61.747293
3952.000000	61.770888
3951.000000	61.794163
3950.000000	61.818482
3949.000000	61.842674
3948.000000	61.864366
3947.000000	61.882553
3946.000000	61.898905
3945.000000	61.919053
3944.000000	61.951124
3943.000000	61.997207
3942.000000	62.047622
3941.000000	62.089325
3940.000000	62.118443
3939.000000	62.143193
3938.000000	62.172797
3937.000000	62.206373
3936.000000	62.234860
3935.000000	62.253356
3934.000000	62.269363
3933.000000	62.294075
3932.000000	62.328710
3931.000000	62.363537
3930.000000	62.389615
3929.000000	62.408840
3928.000000	62.429049
3927.000000	62.456015
3926.000000	62.492762
3925.000000	62.538471
3924.000000	62.583087
3923.000000	62.612125
3922.000000	62.621953
3921.000000	62.625469
3920.000000	62.638429
3919.000000	62.664416
3918.000000	62.697526
3917.000000	62.734692
3916.000000	62.775635
3915.000000	62.816239
3914.000000	62.852186
3913.000000	62.887999
3912.000000	62.929415
3911.000000	62.974859
3910.000000	63.015423
3909.000000	63.045783
3908.000000	63.067498
3907.000000	63.082552
3906.000000	63.089136
3905.000000	63.085845
3904.000000	63.074629
3903.000000	63.059692
3902.000000	63.047736
3901.000000	63.049334
3900.000000	63.076050
3899.000000	63.126636
3898.000000	63.182694
3897.000000	63.228885
3896.000000	63.266204
3895.000000	63.307689
3894.000000	63.360442
3893.000000	63.418968
3892.000000	63.469329
3891.000000	63.505603
3890.000000	63.528208
3889.000000	63.532811
3888.000000	63.518826
3887.000000	63.508822
3886.000000	63.532241
3885.000000	63.584965
3884.000000	63.627535
3883.000000	63.637258
3882.000000	63.637481
3881.000000	63.664870
3880.000000	63.721133
3879.000000	63.775366
3878.000000	63.802523
3877.000000	63.805618
3876.000000	63.810625
3875.000000	63.845696
3874.000000	63.909995
3873.000000	63.964216
3872.000000	63.970656
3871.000000	63.943798
3870.000000	63.935850
3869.000000	63.966564
3868.000000	63.997907
3867.000000	63.995971
3866.000000	63.985948
3865.000000	64.017995
3864.000000	64.091978
3863.000000	64.162159
3862.000000	64.200744
3861.000000	64.222606
3860.000000	64.253133
3859.000000	64.309960
3858.000000	64.395562
3857.000000	64.491600
3856.000000	64.557712
3855.000000	64.560906
3854.000000	64.515914
3853.000000	64.467348
3852.000000	64.438048
3851.000000	64.427622
3850.000000	64.437795
3849.000000	64.478564
3848.000000	64.548064
3847.000000	64.628975
3846.000000	64.704382
3845.000000	64.766023
3844.000000	64.810063
3843.000000	64.840329
3842.000000	64.859789
3841.000000	64.868822
3840.000000	64.869697
3839.000000	64.868984
3838.000000	64.871567
3837.000000	64.882499
3836.000000	64.905436
3835.000000	64.938716
3834.000000	64.976963
3833.000000	65.020131
3832.000000	65.073409
3831.000000	65.135401
3830.000000	65.194749
3829.000000	65.242074
3828.000000	65.278257
3827.000000	65.316698
3826.000000	65.364907
3825.000000	65.407808
3824.000000	65.418819
3823.000000	65.400115
3822.000000	65.393405
3821.000000	65.430966
3820.000000	65.488187
3819.000000	65.515796
3818.000000	65.502717
3817.000000	65.489996
3816.000000	65.528005
3815.000000	65.612816
3814.000000	65.692840
3813.000000	65.738683
3812.000000	65.771830
3811.000000	65.822041
3810.000000	65.885848
3809.000000	65.933300
3808.000000	65.950936
3807.000000	65.961010
3806.000000	65.983477
3805.000000	66.003803
3804.000000	65.997763
3803.000000	65.978566
3802.000000	65.986306
3801.000000	66.032014
3800.000000	66.080052
3799.000000	66.101284
3798.000000	66.112785
3797.000000	66.150893
3796.000000	66.226081
3795.000000	66.311674
3794.000000	66.379166
3793.000000	66.427606
3792.000000	66.474627
3791.000000	66.528387
3790.000000	66.580415
3789.000000	66.620065
3788.000000	66.647812
3787.000000	66.671320
3786.000000	66.697008
3785.000000	66.727042
3784.000000	66.758693
3783.000000	66.784844
3782.000000	66.802316
3781.000000	66.822274
3780.000000	66.860050
3779.000000	66.914432
3778.000000	66.964999
3777.000000	66.995499
3776.000000	67.010119
3775.000000	67.028483
3774.000000	67.061609
3773.000000	67.098350
3772.000000	67.122494
3771.000000	67.139538
3770.000000	67.165325
3769.000000	67.197754
3768.000000	67.221879
3767.000000	67.237129
3766.000000	67.261828
3765.000000	67.308555
3764.000000	67.362848
3763.000000	67.396841
3762.000000	67.403475
3761.000000	67.410158
3760.000000	67.440460
3759.000000	67.481663
3758.000000	67.510914
3757.000000	67.530879
3756.000000	67.552201
3755.000000	67.570028
3754.000000	67.578008
3753.000000	67.586990
3752.000000	67.606065
3751.000000	67.615156
3750.000000	67.600322
3749.000000	67.594375
3748.000000	67.620839
3747.000000	67.652466
3746.000000	67.665055
3745.000000	67.682812
3744.000000	67.738784
3743.000000	67.814635
3742.000000	67.866036
3741.000000	67.891655
3740.000000	67.921848
3739.000000	67.964889
3738.000000	68.003518
3737.000000	68.038349
3736.000000	68.096427
3735.000000	68.175551
3734.000000	68.234623
3733.000000	68.259514
3732.000000	68.283067
3731.000000	68.333371
3730.000000	68.400810
3729.000000	68.459243
3728.000000	68.505993
3727.000000	68.562774
3726.000000	68.638132
3725.000000	68.708854
3724.000000	68.756278
3723.000000	68.792976
3722.000000	68.837365
3721.000000	68.891955
3720.000000	68.947239
3719.000000	68.996092
3718.000000	69.041558
3717.000000	69.090011
3716.000000	69.135407
3715.000000	69.163491
3714.000000	69.173125
3713.000000	69.183353
3712.000000	69.211034
3711.000000	69.250174
3710.000000	69.287910
3709.000000	69.324566
3708.000000	69.368224
3707.000000	69.425403
3706.000000	69.493239
3705.000000	69.561981
3704.000000	69.625931
3703.000000	69.689660
3702.000000	69.757070
3701.000000	69.821416
3700.000000	69.872624
3699.000000	69.907165
3698.000000	69.934153
3697.000000	69.970402
3696.000000	70.018977
3695.000000	70.061472
3694.000000	70.083297
3693.000000	70.095615
3692.000000	70.119669
3691.000000	70.158865
3690.000000	70.196089
3689.000000	70.219509
3688.000000	70.241716
3687.000000	70.280098
3686.000000	70.329809
3685.000000	70.379864
3684.000000	70.431137
3683.000000	70.485122
3682.000000	70.534195
3681.000000	70.571699
3680.000000	70.606667
3679.000000	70.639508
3678.000000	70.646609
3677.000000	70.623334
3676.000000	70.616636
3675.000000	70.658587
3674.000000	70.711934
3673.000000	70.725008
3672.000000	70.700260
3671.000000	70.703909
3670.000000	70.787214
3669.000000	70.912293
3668.000000	71.014226
3667.000000	71.082875
3666.000000	71.143721
3665.000000	71.218347
3664.000000	71.307588
3663.000000	71.398034
3662.000000	71.479788
3661.000000	71.550446
3660.000000	71.607800
3659.000000	71.642712
3658.000000	71.651402
3657.000000	71.647174
3656.000000	71.649499
3655.000000	71.658039
3654.000000	71.650729
3653.000000	71.612280
3652.000000	71.561721
3651.000000	71.539883
3650.000000	71.562090
3649.000000	71.600437
3648.000000	71.640892
3647.000000	71.701949
3646.000000	71.786556
3645.000000	71.876181
3644.000000	71.959850
3643.000000	72.042552
3642.000000	72.128595
3641.000000	72.208049
3640.000000	72.266823
3639.000000	72.305957
3638.000000	72.338168
3637.000000	72.367887
3636.000000	72.390240
3635.000000	72.409311
3634.000000	72.438542
3633.000000	72.473378
3632.000000	72.483139
3631.000000	72.449542
3630.000000	72.407361
3629.000000	72.410921
3628.000000	72.455506
3627.000000	72.500953
3626.000000	72.533398
3625.000000	72.565836
3624.000000	72.612192
3623.000000	72.668929
3622.000000	72.717956
3621.000000	72.751266
3620.000000	72.778510
3619.000000	72.805076
3618.000000	72.823465
3617.000000	72.828802
3616.000000	72.825705
3615.000000	72.829040
3614.000000	72.854245
3613.000000	72.896378
3612.000000	72.930553
3611.000000	72.940736
3610.000000	72.942655
3609.000000	72.972896
3608.000000	73.047067
3607.000000	73.141682
3606.000000	73.224707
3605.000000	73.284851
3604.000000	73.331064
3603.000000	73.375623
3602.000000	73.422106
3601.000000	73.466791
3600.000000	73.503362
3599.000000	73.524023
3598.000000	73.530552
3597.000000	73.535499
3596.000000	73.553036
3595.000000	73.588504
3594.000000	73.634116
3593.000000	73.672635
3592.000000	73.689853
3591.000000	73.681724
3590.000000	73.661362
3589.000000	73.660869
3588.000000	73.706886
3587.000000	73.787494
3586.000000	73.866700
3585.000000	73.926224
3584.000000	73.973144
3583.000000	74.021330
3582.000000	74.076968
3581.000000	74.135770
3580.000000	74.190094
3579.000000	74.235542
3578.000000	74.273235
3577.000000	74.306847
3576.000000	74.339078
3575.000000	74.370478
3574.000000	74.399732
3573.000000	74.422694
3572.000000	74.433370
3571.000000	74.425674
3570.000000	74.398554
3569.000000	74.369146
3568.000000	74.369917
3567.000000	74.415937
3566.000000	74.485548
3565.000000	74.550783
3564.000000	74.604683
3563.000000	74.657303
3562.000000	74.718138
3561.000000	74.785502
3560.000000	74.850081
3559.000000	74.904933
3558.000000	74.949533
3557.000000	74.987039
3556.000000	75.021346
3555.000000	75.056816
3554.000000	75.097810
3553.000000	75.144588
3552.000000	75.189055
3551.000000	75.218957
3550.000000	75.227785
3549.000000	75.223799
3548.000000	75.227995
3547.000000	75.259003
3546.000000	75.316702
3545.000000	75.384758
3544.000000	75.447993
3543.000000	75.502677
3542.000000	75.551754
3541.000000	75.597568
3540.000000	75.641347
3539.000000	75.684680
3538.000000	75.729108
3537.000000	75.772906
3536.000000	75.810077
3535.000000	75.834780
3534.000000	75.846732
3533.000000	75.852730
3532.000000	75.862387
3531.000000	75.881825
3530.000000	75.910426
3529.000000	75.944229
3528.000000	75.981197
3527.000000	76.021662
3526.000000	76.065987
3525.000000	76.114116
3524.000000	76.164671
3523.000000	76.211883
3522.000000	76.247392
3521.000000	76.268454
3520.000000	76.282806
3519.000000	76.302099
3518.000000	76.331775
3517.000000	76.368980
3516.000000	76.408985
3515.000000	76.449723
3514.000000	76.488569
3513.000000	76.519920
3512.000000	76.541023
3511.000000	76.556588
3510.000000	76.572582
3509.000000	76.587959
3508.000000	76.596287
3507.000000	76.594842
3506.000000	76.589646
3505.000000	76.592393
3504.000000	76.611487
3503.000000	76.644471
3502.000000	76.680274
3501.000000	76.709949
3500.000000	76.733975
3499.000000	76.757880
3498.000000	76.783710
3497.000000	76.807060
3496.000000	76.821525
3495.000000	76.824035
3494.000000	76.815641
3493.000000	76.799244
3492.000000	76.779030
3491.000000	76.760553
3490.000000	76.748580
3489.000000	76.745152
3488.000000	76.749228
3487.000000	76.756070
3486.000000	76.758411
3485.000000	76.751520
3484.000000	76.738259
3483.000000	76.727008
3482.000000	76.722112
3481.000000	76.718364
3480.000000	76.705943
3479.000000	76.679458
3478.000000	76.641352
3477.000000	76.599391
3476.000000	76.562094
3475.000000	76.533789
3474.000000	76.513135
3473.000000	76.496653
3472.000000	76.482883
3471.000000	76.471571
3470.000000	76.458876
3469.000000	76.436705
3468.000000	76.398383
3467.000000	76.342917
3466.000000	76.273744
3465.000000	76.196567
3464.000000	76.119534
3463.000000	76.051263
3462.000000	75.994797
3461.000000	75.945011
3460.000000	75.893682
3459.000000	75.836206
3458.000000	75.772835
3457.000000	75.705327
3456.000000	75.635217
3455.000000	75.563213
3454.000000	75.488237
3453.000000	75.408454
3452.000000	75.323542
3451.000000	75.234931
3450.000000	75.144048
3449.000000	75.052333
3448.000000	74.962385
3447.000000	74.875142
3446.000000	74.786590
3445.000000	74.691318
3444.000000	74.589119
3443.000000	74.484867
3442.000000	74.381754
3441.000000	74.278332
3440.000000	74.173324
3439.000000	74.068941
3438.000000	73.966574
3437.000000	73.861908
3436.000000	73.748135
3435.000000	73.621924
3434.000000	73.484400
3433.000000	73.339267
3432.000000	73.190355
3431.000000	73.038993
3430.000000	72.882050
3429.000000	72.714439
3428.000000	72.535268
3427.000000	72.349125
3426.000000	72.161487
3425.000000	71.974937
3424.000000	71.790114
3423.000000	71.607552
3422.000000	71.426393
3421.000000	71.243161
3420.000000	71.053494
3419.000000	70.854364
3418.000000	70.644572
3417.000000	70.424854
3416.000000	70.198031
3415.000000	69.966738
3414.000000	69.730191
3413.000000	69.485616
3412.000000	69.232885
3411.000000	68.975468
3410.000000	68.715979
3409.000000	68.452913
3408.000000	68.183101
3407.000000	67.905084
3406.000000	67.619670
3405.000000	67.328734
3404.000000	67.033621
3403.000000	66.733158
3402.000000	66.421804
3401.000000	66.091946
3400.000000	65.739969
3399.000000	65.370180
3398.000000	64.992659
3397.000000	64.617206
3396.000000	64.248567
3395.000000	63.885821
3394.000000	63.523891
3393.000000	63.155397
3392.000000	62.772068
3391.000000	62.366537
3390.000000	61.936230
3389.000000	61.485603
3388.000000	61.023441
3387.000000	60.556683
3386.000000	60.087384
3385.000000	59.616045
3384.000000	59.144318
3383.000000	58.673463
3382.000000	58.201969
3381.000000	57.726546
3380.000000	57.244315
3379.000000	56.752466
3378.000000	56.247728
3377.000000	55.728209
3376.000000	55.194898
3375.000000	54.650771
3374.000000	54.099449
3373.000000	53.545232
3372.000000	52.992378
3371.000000	52.441770
3370.000000	51.890170
3369.000000	51.333450
3368.000000	50.769662
3367.000000	50.198537
3366.000000	49.620002
3365.000000	49.034931
3364.000000	48.445194
3363.000000	47.851601
3362.000000	47.253378
3361.000000	46.650329
3360.000000	46.044007
3359.000000	45.436197
3358.000000	44.828214
3357.000000	44.222514
3356.000000	43.622179
3355.000000	43.028078
3354.000000	42.438625
3353.000000	41.852504
3352.000000	41.268939
3351.000000	40.685095
3350.000000	40.096665
3349.000000	39.502379
3348.000000	38.905574
3347.000000	38.310406
3346.000000	37.719182
3345.000000	37.133761
3344.000000	36.556061
3343.000000	35.986223
3342.000000	35.422815
3341.000000	34.865773
3340.000000	34.316370
3339.000000	33.773777
3338.000000	33.234782
3337.000000	32.697416
3336.000000	32.162522
3335.000000	31.631314
3334.000000	31.104279
3333.000000	30.583046
3332.000000	30.069863
3331.000000	29.564996
3330.000000	29.067199
3329.000000	28.576714
3328.000000	28.095480
3327.000000	27.623861
3326.000000	27.160464
3325.000000	26.704835
3324.000000	26.257068
3323.000000	25.815693
3322.000000	25.378858
3321.000000	24.947465
3320.000000	24.524343
3319.000000	24.110187
3318.000000	23.704251
3317.000000	23.307461
3316.000000	22.921706
3315.000000	22.546716
3314.000000	22.180698
3313.000000	21.823810
3312.000000	21.477293
3311.000000	21.140049
3310.000000	20.810334
3309.000000	20.489373
3308.000000	20.180532
3307.000000	19.885343
3306.000000	19.603605
3305.000000	19.336628
3304.000000	19.085216
3303.000000	18.846686
3302.000000	18.617232
3301.000000	18.396463
3300.000000	18.186438
3299.000000	17.987033
3298.000000	17.796772
3297.000000	17.616769
3296.000000	17.449095
3295.000000	17.293132
3294.000000	17.147023
3293.000000	17.012033
3292.000000	16.891214
3291.000000	16.783770
3290.000000	16.686031
3289.000000	16.596048
3288.000000	16.514067
3287.000000	16.439401
3286.000000	16.370500
3285.000000	16.308133
3284.000000	16.253786
3283.000000	16.206235
3282.000000	16.163067
3281.000000	16.124264
3280.000000	16.091237
3279.000000	16.063216
3278.000000	16.038443
3277.000000	16.017608
3276.000000	16.002066
3275.000000	15.990231
3274.000000	15.979472
3273.000000	15.970613
3272.000000	15.966825
3271.000000	15.968767
3270.000000	15.974426
3269.000000	15.982488
3268.000000	15.992386
3267.000000	16.002413
3266.000000	16.011285
3265.000000	16.020696
3264.000000	16.033107
3263.000000	16.048073
3262.000000	16.063983
3261.000000	16.081314
3260.000000	16.101005
3259.000000	16.121350
3258.000000	16.140111
3257.000000	16.158405
3256.000000	16.178738
3255.000000	16.200749
3254.000000	16.222324
3253.000000	16.243587
3252.000000	16.266099
3251.000000	16.289543
3250.000000	16.312786
3249.000000	16.337079
3248.000000	16.364685
3247.000000	16.395330
3246.000000	16.426978
3245.000000	16.458866
3244.000000	16.490860
3243.000000	16.521288
3242.000000	16.548734
3241.000000	16.574539
3240.000000	16.600684
3239.000000	16.626436
3238.000000	16.650079
3237.000000	16.672335
3236.000000	16.695387
3235.000000	16.719996
3234.000000	16.746230
3233.000000	16.775132
3232.000000	16.806573
3231.000000	16.837348
3230.000000	16.864428
3229.000000	16.888379
3228.000000	16.910986
3227.000000	16.931681
3226.000000	16.949321
3225.000000	16.965424
3224.000000	16.982086
3223.000000	16.998688
3222.000000	17.013770
3221.000000	17.028311
3220.000000	17.043882
3219.000000	17.059300
3218.000000	17.072397
3217.000000	17.083364
3216.000000	17.093289
3215.000000	17.101254
3214.000000	17.105872
3213.000000	17.108150
3212.000000	17.109628
3211.000000	17.109377
3210.000000	17.105911
3209.000000	17.100202
3208.000000	17.094054
3207.000000	17.087104
3206.000000	17.078203
3205.000000	17.068043
3204.000000	17.057409
3203.000000	17.044829
3202.000000	17.028779
3201.000000	17.010302
3200.000000	16.990898
3199.000000	16.969605
3198.000000	16.945073
3197.000000	16.918373
3196.000000	16.890965
3195.000000	16.862055
3194.000000	16.830682
3193.000000	16.798285
3192.000000	16.766387
3191.000000	16.733763
3190.000000	16.698910
3189.000000	16.662993
3188.000000	16.627594
3187.000000	16.591825
3186.000000	16.554570
3185.000000	16.517275
3184.000000	16.481501
3183.000000	16.445996
3182.000000	16.409165
3181.000000	16.372232
3180.000000	16.336900
3179.000000	16.302194
3178.000000	16.266646
3177.000000	16.231468
3176.000000	16.198477
3175.000000	16.166998
3174.000000	16.135857
3173.000000	16.106262
3172.000000	16.079671
3171.000000	16.055059
3170.000000	16.031093
3169.000000	16.008889
3168.000000	15.989852
3167.000000	15.972882
3166.000000	15.956648
3165.000000	15.942188
3164.000000	15.930565
3163.000000	15.920372
3162.000000	15.910276
3161.000000	15.901803
3160.000000	15.896700
3159.000000	15.893936
3158.000000	15.892160
3157.000000	15.892516
3156.000000	15.896366
3155.000000	15.902697
3154.000000	15.910640
3153.000000	15.922074
3152.000000	15.938508
3151.000000	15.957934
3150.000000	15.977602
3149.000000	15.997637
3148.000000	16.019289
3147.000000	16.042028
3146.000000	16.065335
3145.000000	16.090819
3144.000000	16.119571
3143.000000	16.149945
3142.000000	16.180649
3141.000000	16.213756
3140.000000	16.251690
3139.000000	16.293533
3138.000000	16.337119
3137.000000	16.382187
3136.000000	16.428796
3135.000000	16.475202
3134.000000	16.520162
3133.000000	16.565419
3132.000000	16.613115
3131.000000	16.663078
3130.000000	16.714950
3129.000000	16.770228
3128.000000	16.829714
3127.000000	16.891324
3126.000000	16.953001
3125.000000	17.015403
3124.000000	17.079292
3123.000000	17.143142
3122.000000	17.205940
3121.000000	17.269680
3120.000000	17.336380
3119.000000	17.405192
3118.000000	17.475158
3117.000000	17.547964
3116.000000	17.625080
3115.000000	17.704792
3114.000000	17.784712
3113.000000	17.865020
3112.000000	17.946650
3111.000000	18.028918
3110.000000	18.111454
3109.000000	18.195877
3108.000000	18.282990
3107.000000	18.370725
3106.000000	18.457286
3105.000000	18.543953
3104.000000	18.632458
3103.000000	18.722166
3102.000000	18.812383
3101.000000	18.904586
3100.000000	18.999904
3099.000000	19.096763
3098.000000	19.193684
3097.000000	19.291770
3096.000000	19.391908
3095.000000	19.492226
3094.000000	19.590918
3093.000000	19.689243
3092.000000	19.789164
3091.000000	19.890382
3090.000000	19.992041
3089.000000	20.094938
3088.000000	20.199589
3087.000000	20.304550
3086.000000	20.408982
3085.000000	20.514556
3084.000000	20.622418
3083.000000	20.730690
3082.000000	20.837499
3081.000000	20.944006
3080.000000	21.052115
3079.000000	21.161444
3078.000000	21.270987
3077.000000	21.381411
3076.000000	21.493322
3075.000000	21.605527
3074.000000	21.717172
3073.000000	21.829394
3072.000000	21.942720
3071.000000	22.055209
3070.000000	22.165534
3069.000000	22.275495
3068.000000	22.387147
3067.000000	22.499641
3066.000000	22.611267
3065.000000	22.722488
3064.000000	22.834503
3063.000000	22.946870
3062.000000	23.058874
3061.000000	23.171333
3060.000000	23.284959
3059.000000	23.398809
3058.000000	23.512172
3057.000000	23.625939
3056.000000	23.740173
3055.000000	23.852662
3054.000000	23.961962
3053.000000	24.069909
3052.000000	24.179044
3051.000000	24.289461
3050.000000	24.400043
3049.000000	24.510766
3048.000000	24.621874
3047.000000	24.732726
3046.000000	24.843292
3045.000000	24.954915
3044.000000	25.067937
3043.000000	25.180544
3042.000000	25.291530
3041.000000	25.401865
3040.000000	25.512033
3039.000000	25.620203
3038.000000	25.725148
3037.000000	25.828801
3036.000000	25.933920
3035.000000	26.041147
3034.000000	26.150053
3033.000000	26.260896
3032.000000	26.373303
3031.000000	26.485202
3030.000000	26.595018
3029.000000	26.703260
3028.000000	26.810588
3027.000000	26.916376
3026.000000	27.020652
3025.000000	27.125122
3024.000000	27.230590
3023.000000	27.335520
3022.000000	27.438872
3021.000000	27.542136
3020.000000	27.646809
3019.000000	27.751922
3018.000000	27.856017
3017.000000	27.959436
3016.000000	28.062866
3015.000000	28.165627
3014.000000	28.267351
3013.000000	28.369457
3012.000000	28.473023
3011.000000	28.576970
3010.000000	28.680013
3009.000000	28.782660
3008.000000	28.885671
3007.000000	28.988392
3006.000000	29.090266
3005.000000	29.192204
3004.000000	29.294852
3003.000000	29.397000
3002.000000	29.497263
3001.000000	29.595839
3000.000000	29.693423
2999.000000	29.790033
2998.000000	29.886105
2997.000000	29.982882
2996.000000	30.080615
2995.000000	30.178225
2994.000000	30.275806
2993.000000	30.375272
2992.000000	30.477179
2991.000000	30.579084
2990.000000	30.678550
2989.000000	30.775751
2988.000000	30.871670
2987.000000	30.965924
2986.000000	31.058075
2985.000000	31.149188
2984.000000	31.240417
2983.000000	31.331812
2982.000000	31.423965
2981.000000	31.518791
2980.000000	31.616942
2979.000000	31.716136
2978.000000	31.813815
2977.000000	31.909876
2976.000000	32.005323
2975.000000	32.099929
2974.000000	32.192979
2973.000000	32.284699
2972.000000	32.375488
2971.000000	32.465127
2970.000000	32.554193
2969.000000	32.644656
2968.000000	32.737633
2967.000000	32.832067
2966.000000	32.926831
2965.000000	33.022387
2964.000000	33.118959
2963.000000	33.214888
2962.000000	33.308357
2961.000000	33.399187
2960.000000	33.487606
2959.000000	33.573122
2958.000000	33.655870
2957.000000	33.737423
2956.000000	33.818943
2955.000000	33.900493
2954.000000	33.983134
2953.000000	34.069253
2952.000000	34.159189
2951.000000	34.249671
2950.000000	34.337465
2949.000000	34.422679
2948.000000	34.507018
2947.000000	34.590779
2946.000000	34.673496
2945.000000	34.755731
2944.000000	34.838246
2943.000000	34.920618
2942.000000	35.002376
2941.000000	35.084326
2940.000000	35.167357
2939.000000	35.251211
2938.000000	35.335617
2937.000000	35.421175
2936.000000	35.507734
2935.000000	35.593324
2934.000000	35.676198
2933.000000	35.756716
2932.000000	35.836049
2931.000000	35.914461
2930.000000	35.991975
2929.000000	36.069168
2928.000000	36.146016
2927.000000	36.221555
2926.000000	36.295871
2925.000000	36.370801
2924.000000	36.447437
2923.000000	36.524567
2922.000000	36.600793
2921.000000	36.676402
2920.000000	36.751958
2919.000000	36.826777
2918.000000	36.900100
2917.000000	36.972306
2916.000000	37.043812
2915.000000	37.114235
2914.000000	37.183605
2913.000000	37.252979
2912.000000	37.322940
2911.000000	37.392885
2910.000000	37.462558
2909.000000	37.532882
2908.000000	37.604258
2907.000000	37.675779
2906.000000	37.746823
2905.000000	37.818048
2904.000000	37.889852
2903.000000	37.961367
2902.000000	38.031743
2901.000000	38.101685
2900.000000	38.171420
2899.000000	38.240481
2898.000000	38.308724
2897.000000	38.376696
2896.000000	38.444123
2895.000000	38.509694
2894.000000	38.573269
2893.000000	38.636704
2892.000000	38.701548
2891.000000	38.767448
2890.000000	38.833675
2889.000000	38.900588
2888.000000	38.968483
2887.000000	39.036542
2886.000000	39.104066
2885.000000	39.171429
2884.000000	39.238684
2883.000000	39.304601
2882.000000	39.368180
2881.000000	39.429987
2880.000000	39.491092
2879.000000	39.552138
2878.000000	39.614533
2877.000000	39.680980
2876.000000	39.752962
2875.000000	39.828235
2874.000000	39.902095
2873.000000	39.970865
2872.000000	40.033848
2871.000000	40.092944
2870.000000	40.151225
2869.000000	40.210954
2868.000000	40.271976
2867.000000	40.332346
2866.000000	40.390869
2865.000000	40.448316
2864.000000	40.506327
2863.000000	40.566222
2862.000000	40.628892
2861.000000	40.694245
2860.000000	40.760382
2859.000000	40.824944
2858.000000	40.887817
2857.000000	40.951072
2856.000000	41.015812
2855.000000	41.080675
2854.000000	41.143936
2853.000000	41.205409
2852.000000	41.265736
2851.000000	41.325350
2850.000000	41.384732
2849.000000	41.444167
2848.000000	41.502807
2847.000000	41.559653
2846.000000	41.616031
2845.000000	41.675298
2844.000000	41.739616
2843.000000	41.808495
2842.000000	41.880684
2841.000000	41.954900
2840.000000	42.027883
2839.000000	42.094415
2838.000000	42.151540
2837.000000	42.201557
2836.000000	42.249347
2835.000000	42.298008
2834.000000	42.348260
2833.000000	42.400504
2832.000000	42.455462
2831.000000	42.513453
2830.000000	42.574523
2829.000000	42.638862
2828.000000	42.706031
2827.000000	42.774346
2826.000000	42.841972
2825.000000	42.908082
2824.000000	42.972313
2823.000000	43.033980
2822.000000	43.092810
2821.000000	43.149688
2820.000000	43.205854
2819.000000	43.262022
2818.000000	43.318931
2817.000000	43.377773
2816.000000	43.439184
2815.000000	43.502574
2814.000000	43.567187
2813.000000	43.632934
2812.000000	43.699287
2811.000000	43.764189
2810.000000	43.825164
2809.000000	43.881129
2808.000000	43.932515
2807.000000	43.980378
2806.000000	44.026168
2805.000000	44.071625
2804.000000	44.117988
2803.000000	44.165637
2802.000000	44.214900
2801.000000	44.266422
2800.000000	44.320066
2799.000000	44.374259
2798.000000	44.427277
2797.000000	44.478642
2796.000000	44.528653
2795.000000	44.577282
2794.000000	44.624350
2793.000000	44.670199
2792.000000	44.715424
2791.000000	44.760288
2790.000000	44.804939
2789.000000	44.849775
2788.000000	44.895282
2787.000000	44.942027
2786.000000	44.991060
2785.000000	45.043408
2784.000000	45.098611
2783.000000	45.154438
2782.000000	45.208568
2781.000000	45.259955
2780.000000	45.308292
2779.000000	45.353276
2778.000000	45.395090
2777.000000	45.434671
2776.000000	45.472719
2775.000000	45.508962
2774.000000	45.543019
2773.000000	45.575324
2772.000000	45.606388
2771.000000	45.635860
2770.000000	45.662932
2769.000000	45.686989
2768.000000	45.707293
2767.000000	45.722596
2766.000000	45.732024
2765.000000	45.735937
2764.000000	45.735380
2763.000000	45.731391
2762.000000	45.725240
2761.000000	45.718652
2760.000000	45.712939
2759.000000	45.708245
2758.000000	45.704289
2757.000000	45.701140
2756.000000	45.698606
2755.000000	45.695545
2754.000000	45.690507
2753.000000	45.682699
2752.000000	45.671647
2751.000000	45.656607
2750.000000	45.637058
2749.000000	45.613255
2748.000000	45.585740
2747.000000	45.554513
2746.000000	45.519276
2745.000000	45.480084
2744.000000	45.437068
2743.000000	45.390169
2742.000000	45.339633
2741.000000	45.286325
2740.000000	45.231421
2739.000000	45.176403
2738.000000	45.123805
2737.000000	45.077364
2736.000000	45.040805
2735.000000	45.016966
2734.000000	45.008523
2733.000000	45.017884
2732.000000	45.045893
2731.000000	45.091398
2730.000000	45.152239
2729.000000	45.226451
2728.000000	45.311489
2727.000000	45.403591
2726.000000	45.499266
2725.000000	45.596500
2724.000000	45.694526
2723.000000	45.792901
2722.000000	45.891333
2721.000000	45.989899
2720.000000	46.088436
2719.000000	46.186154
2718.000000	46.282204
2717.000000	46.375984
2716.000000	46.466321
2715.000000	46.551079
2714.000000	46.628034
2713.000000	46.695995
2712.000000	46.754862
2711.000000	46.804894
2710.000000	46.846852
2709.000000	46.882155
2708.000000	46.912388
2707.000000	46.938957
2706.000000	46.962996
2705.000000	46.985458
2704.000000	47.006669
2703.000000	47.026153
2702.000000	47.043335
2701.000000	47.057740
2700.000000	47.068611
2699.000000	47.075012
2698.000000	47.076817
2697.000000	47.075213
2696.000000	47.071663
2695.000000	47.067040
2694.000000	47.062031
2693.000000	47.057584
2692.000000	47.054361
2691.000000	47.052150
2690.000000	47.050347
2689.000000	47.048547
2688.000000	47.046218
2687.000000	47.042473
2686.000000	47.036792
2685.000000	47.029601
2684.000000	47.021734
2683.000000	47.013756
2682.000000	47.006211
2681.000000	46.999837
2680.000000	46.994953
2679.000000	46.991094
2678.000000	46.987791
2677.000000	46.985272
2676.000000	46.984019
2675.000000	46.984097
2674.000000	46.985357
2673.000000	46.988018
2672.000000	46.992620
2671.000000	47.000030
2670.000000	47.011695
2669.000000	47.029126
2668.000000	47.052730
2667.000000	47.081289
2666.000000	47.112858
2665.000000	47.145570
2664.000000	47.177333
2663.000000	47.205785
2662.000000	47.229152
2661.000000	47.246770
2660.000000	47.258628
2659.000000	47.265218
2658.000000	47.268139
2657.000000	47.270137
2656.000000	47.273813
2655.000000	47.280546
2654.000000	47.290923
2653.000000	47.305330
2652.000000	47.323548
2651.000000	47.344452
2650.000000	47.366809
2649.000000	47.389949
2648.000000	47.413653
2647.000000	47.438101
2646.000000	47.464472
2645.000000	47.495153
2644.000000	47.532420
2643.000000	47.577647
2642.000000	47.631772
2641.000000	47.695503
2640.000000	47.768489
2639.000000	47.848303
2638.000000	47.931309
2637.000000	48.014130
2636.000000	48.093960
2635.000000	48.168201
2634.000000	48.234537
2633.000000	48.291456
2632.000000	48.338525
2631.000000	48.376673
2630.000000	48.408175
2629.000000	48.436297
2628.000000	48.464140
2627.000000	48.493662
2626.000000	48.525846
2625.000000	48.560766
2624.000000	48.597346
2623.000000	48.633423
2622.000000	48.666581
2621.000000	48.694902
2620.000000	48.716593
2619.000000	48.729767
2618.000000	48.733208
2617.000000	48.727205
2616.000000	48.713650
2615.000000	48.695176
2614.000000	48.674574
2613.000000	48.654365
2612.000000	48.635923
2611.000000	48.619283
2610.000000	48.603704
2609.000000	48.588322
2608.000000	48.572182
2607.000000	48.554271
2606.000000	48.534192
2605.000000	48.512672
2604.000000	48.491263
2603.000000	48.471974
2602.000000	48.457646
2601.000000	48.451737
2600.000000	48.457252
2599.000000	48.475837
2598.000000	48.507679
2597.000000	48.552224
2596.000000	48.607805
2595.000000	48.671533
2594.000000	48.740052
2593.000000	48.810057
2592.000000	48.878774
2591.000000	48.944128
2590.000000	49.005310
2589.000000	49.062994
2588.000000	49.118631
2587.000000	49.173813
2586.000000	49.230232
2585.000000	49.289702
2584.000000	49.353655
2583.000000	49.422540
2582.000000	49.495894
2581.000000	49.572689
2580.000000	49.651614
2579.000000	49.731478
2578.000000	49.811424
2577.000000	49.890761
2576.000000	49.968508
2575.000000	50.043550
2574.000000	50.115390
2573.000000	50.184436
2572.000000	50.251250
2571.000000	50.315834
2570.000000	50.377781
2569.000000	50.436639
2568.000000	50.492102
2567.000000	50.543859
2566.000000	50.591655
2565.000000	50.635429
2564.000000	50.674796
2563.000000	50.708929
2562.000000	50.736756
2561.000000	50.757213
2560.000000	50.769275
2559.000000	50.771498
2558.000000	50.762777
2557.000000	50.743233
2556.000000	50.714554
2555.000000	50.680039
2554.000000	50.644308
2553.000000	50.613209
2552.000000	50.593049
2551.000000	50.589430
2550.000000	50.605905
2549.000000	50.643635
2548.000000	50.701105
2547.000000	50.774637
2546.000000	50.859745
2545.000000	50.951482
2544.000000	51.045073
2543.000000	51.136214
2542.000000	51.221690
2541.000000	51.299816
2540.000000	51.370047
2539.000000	51.432597
2538.000000	51.488610
2537.000000	51.540471
2536.000000	51.591187
2535.000000	51.643423
2534.000000	51.698814
2533.000000	51.757997
2532.000000	51.820684
2531.000000	51.885370
2530.000000	51.949426
2529.000000	52.009731
2528.000000	52.063530
2527.000000	52.109063
2526.000000	52.145723
2525.000000	52.174329
2524.000000	52.196998
2523.000000	52.216652
2522.000000	52.236625
2521.000000	52.260251
2520.000000	52.290382
2519.000000	52.328512
2518.000000	52.374212
2517.000000	52.425262
2516.000000	52.478374
2515.000000	52.529746
2514.000000	52.575638
2513.000000	52.613073
2512.000000	52.640613
2511.000000	52.658519
2510.000000	52.668682
2509.000000	52.674446
2508.000000	52.680034
2507.000000	52.689670
2506.000000	52.706558
2505.000000	52.732460
2504.000000	52.767522
2503.000000	52.810169
2502.000000	52.857022
2501.000000	52.903647
2500.000000	52.945720
2499.000000	52.980029
2498.000000	53.004797
2497.000000	53.019810
2496.000000	53.026341
2495.000000	53.027011
2494.000000	53.025533
2493.000000	53.026073
2492.000000	53.032471
2491.000000	53.047267
2490.000000	53.071214
2489.000000	53.103246
2488.000000	53.140736
2487.000000	53.179758
2486.000000	53.215955
2485.000000	53.245772
2484.000000	53.267261
2483.000000	53.279894
2482.000000	53.284274
2481.000000	53.282350
2480.000000	53.277528
2479.000000	53.273992
2478.000000	53.275326
2477.000000	53.283733
2476.000000	53.299832
2475.000000	53.322857
2474.000000	53.350876
2473.000000	53.381308
2472.000000	53.411177
2471.000000	53.437325
2470.000000	53.457048
2469.000000	53.469216
2468.000000	53.474749
2467.000000	53.475811
2466.000000	53.474734
2465.000000	53.473771
2464.000000	53.475397
2463.000000	53.481748
2462.000000	53.493668
2461.000000	53.510429
2460.000000	53.530431
2459.000000	53.551794
2458.000000	53.572603
2457.000000	53.591213
2456.000000	53.606700
2455.000000	53.618988
2454.000000	53.628544
2453.000000	53.636208
2452.000000	53.643169
2451.000000	53.650711
2450.000000	53.659719
2449.000000	53.670492
2448.000000	53.682835
2447.000000	53.696192
2446.000000	53.709834
2445.000000	53.723235
2444.000000	53.736253
2443.000000	53.748916
2442.000000	53.761279
2441.000000	53.773670
2440.000000	53.786823
2439.000000	53.801347
2438.000000	53.817199
2437.000000	53.833883
2436.000000	53.850902
2435.000000	53.867646
2434.000000	53.883106
2433.000000	53.896197
2432.000000	53.906389
2431.000000	53.913854
2430.000000	53.919269
2429.000000	53.924015
2428.000000	53.930294
2427.000000	53.940365
2426.000000	53.955358
2425.000000	53.975037
2424.000000	53.998421
2423.000000	54.024141
2422.000000	54.050248
2421.000000	54.074285
2420.000000	54.094036
2419.000000	54.108166
2418.000000	54.116445
2417.000000	54.119744
2416.000000	54.120099
2415.000000	54.120309
2414.000000	54.123280
2413.000000	54.131511
2412.000000	54.146794
2411.000000	54.169682
2410.000000	54.199039
2409.000000	54.232229
2408.000000	54.265798
2407.000000	54.296268
2406.000000	54.320731
2405.000000	54.337532
2404.000000	54.346642
2403.000000	54.349524
2402.000000	54.348661
2401.000000	54.347399
2400.000000	54.349550
2399.000000	54.358458
2398.000000	54.376032
2397.000000	54.402501
2396.000000	54.436535
2395.000000	54.475302
2394.000000	54.514925
2393.000000	54.551471
2392.000000	54.581984
2391.000000	54.604731
2390.000000	54.619371
2389.000000	54.627296
2388.000000	54.631843
2387.000000	54.637242
2386.000000	54.647407
2385.000000	54.665546
2384.000000	54.693769
2383.000000	54.732736
2382.000000	54.781358
2381.000000	54.837411
2380.000000	54.898258
2379.000000	54.960507
2378.000000	55.020282
2377.000000	55.074558
2376.000000	55.122322
2375.000000	55.163700
2374.000000	55.199283
2373.000000	55.230383
2372.000000	55.260138
2371.000000	55.292450
2370.000000	55.329553
2369.000000	55.371684
2368.000000	55.418773
2367.000000	55.470030
2366.000000	55.522302
2365.000000	55.571272
2364.000000	55.616607
2363.000000	55.657381
2362.000000	55.691652
2361.000000	55.722191
2360.000000	55.751344
2359.000000	55.782707
2358.000000	55.818364
2357.000000	55.856297
2356.000000	55.899510
2355.000000	55.944942
2354.000000	55.989711
2353.000000	56.030890
2352.000000	56.073770
2351.000000	56.125591
2350.000000	56.177279
2349.000000	56.219553
2348.000000	56.251079
2347.000000	56.283326
2346.000000	56.330039
2345.000000	56.385261
2344.000000	56.440315
2343.000000	56.482030
2342.000000	56.516383
2341.000000	56.552251
2340.000000	56.591652
2339.000000	56.634532
2338.000000	56.676277
2337.000000	56.717183
2336.000000	56.754575
2335.000000	56.792139
2334.000000	56.827738
2333.000000	56.864930
2332.000000	56.899664
2331.000000	56.939717
2330.000000	56.978282
2329.000000	57.021515
2328.000000	57.065046
2327.000000	57.112530
2326.000000	57.162537
2325.000000	57.212269
2324.000000	57.262588
2323.000000	57.311036
2322.000000	57.357082
2321.000000	57.398754
2320.000000	57.434890
2319.000000	57.470064
2318.000000	57.503339
2317.000000	57.539023
2316.000000	57.573185
2315.000000	57.610993
2314.000000	57.648444
2313.000000	57.689148
2312.000000	57.728168
2311.000000	57.769102
2310.000000	57.808093
2309.000000	57.847433
2308.000000	57.884503
2307.000000	57.922723
2306.000000	57.960491
2305.000000	57.998961
2304.000000	58.035858
2303.000000	58.073477
2302.000000	58.110425
2301.000000	58.148427
2300.000000	58.185782
2299.000000	58.224657
2298.000000	58.263067
2297.000000	58.301163
2296.000000	58.337300
2295.000000	58.373397
2294.000000	58.409828
2293.000000	58.446972
2292.000000	58.484283
2291.000000	58.521689
2290.000000	58.558723
2289.000000	58.594307
2288.000000	58.628433
2287.000000	58.661366
2286.000000	58.693392
2285.000000	58.723896
2284.000000	58.753693
2283.000000	58.784095
2282.000000	58.816077
2281.000000	58.849352
2280.000000	58.884135
2279.000000	58.921033
2278.000000	58.959633
2277.000000	58.998418
2276.000000	59.036035
2275.000000	59.072389
2274.000000	59.106926
2273.000000	59.138890
2272.000000	59.168286
2271.000000	59.196337
2270.000000	59.223842
2269.000000	59.251016
2268.000000	59.278735
2267.000000	59.308558
2266.000000	59.340708
2265.000000	59.373971
2264.000000	59.407364
2263.000000	59.440774
2262.000000	59.473606
2261.000000	59.504025
2260.000000	59.530950
2259.000000	59.554260
2258.000000	59.574007
2257.000000	59.589906
2256.000000	59.602595
2255.000000	59.613597
2254.000000	59.623433
2253.000000	59.631719
2252.000000	59.638265
2251.000000	59.643684
2250.000000	59.647424
2249.000000	59.647924
2248.000000	59.643831
2247.000000	59.634769
2246.000000	59.619832
2245.000000	59.597499
2244.000000	59.567070
2243.000000	59.528886
2242.000000	59.483135
2241.000000	59.430186
2240.000000	59.371915
2239.000000	59.311283
2238.000000	59.250529
2237.000000	59.191263
2236.000000	59.136154
2235.000000	59.088495
2234.000000	59.050118
2233.000000	59.020946
2232.000000	59.000692
2231.000000	58.988978
2230.000000	58.983923
2229.000000	58.982436
2228.000000	58.982364
2227.000000	58.983091
2226.000000	58.983815
2225.000000	58.983324
2224.000000	58.981592
2223.000000	58.979944
2222.000000	58.979152
2221.000000	58.978920
2220.000000	58.979465
2219.000000	58.981824
2218.000000	58.986125
2217.000000	58.991124
2216.000000	58.995907
2215.000000	59.000566
2214.000000	59.004808
2213.000000	59.007506
2212.000000	59.008083
2211.000000	59.006960
2210.000000	59.004387
2209.000000	59.000366
2208.000000	58.995980
2207.000000	58.993211
2206.000000	58.993096
2205.000000	58.995439
2204.000000	59.000428
2203.000000	59.008754
2202.000000	59.019874
2201.000000	59.031769
2200.000000	59.042833
2199.000000	59.052398
2198.000000	59.059295
2197.000000	59.061760
2196.000000	59.059330
2195.000000	59.053263
2194.000000	59.044748
2193.000000	59.034316
2192.000000	59.023234
2191.000000	59.013620
2190.000000	59.006552
2189.000000	59.001542
2188.000000	58.998185
2187.000000	58.996694
2186.000000	58.996402
2185.000000	58.995444
2184.000000	58.992453
2183.000000	58.987343
2182.000000	58.980266
2181.000000	58.971500
2180.000000	58.962625
2179.000000	58.956186
2178.000000	58.953810
2177.000000	58.955973
2176.000000	58.963697
2175.000000	58.978501
2174.000000	59.000420
2173.000000	59.027592
2172.000000	59.058121
2171.000000	59.090728
2170.000000	59.123464
2169.000000	59.153991
2168.000000	59.181686
2167.000000	59.207756
2166.000000	59.232878
2165.000000	59.256648
2164.000000	59.279687
2163.000000	59.304206
2162.000000	59.331755
2161.000000	59.362182
2160.000000	59.395209
2159.000000	59.431110
2158.000000	59.469197
2157.000000	59.507567
2156.000000	59.545047
2155.000000	59.581761
2154.000000	59.617342
2153.000000	59.650457
2152.000000	59.680721
2151.000000	59.709131
2150.000000	59.736135
2149.000000	59.761249
2148.000000	59.785058
2147.000000	59.809486
2146.000000	59.835565
2145.000000	59.862709
2144.000000	59.890655
2143.000000	59.920394
2142.000000	59.952446
2141.000000	59.986155
2140.000000	60.021323
2139.000000	60.058605
2138.000000	60.097697
2137.000000	60.137016
2136.000000	60.175658
2135.000000	60.213808
2134.000000	60.250860
2133.000000	60.285219
2132.000000	60.316523
2131.000000	60.346112
2130.000000	60.374894
2129.000000	60.402956
2128.000000	60.431524
2127.000000	60.462908
2126.000000	60.497898
2125.000000	60.535196
2124.000000	60.573726
2123.000000	60.613259
2122.000000	60.652580
2121.000000	60.689330
2120.000000	60.722234
2119.000000	60.751421
2118.000000	60.776512
2117.000000	60.797127
2116.000000	60.815633
2115.000000	60.836555
2114.000000	60.862591
2113.000000	60.893482
2112.000000	60.928927
2111.000000	60.969590
2110.000000	61.014624
2109.000000	61.061087
2108.000000	61.106536
2107.000000	61.149598
2106.000000	61.187548
2105.000000	61.216483
2104.000000	61.235099
2103.000000	61.245489
2102.000000	61.249839
2101.000000	61.249094
2100.000000	61.245469
2099.000000	61.243120
2098.000000	61.244666
2097.000000	61.250209
2096.000000	61.259437
2095.000000	61.271741
2094.000000	61.283815
2093.000000	61.290516
2092.000000	61.289518
2091.000000	61.282512
2090.000000	61.271337
2089.000000	61.256090
2088.000000	61.237967
2087.000000	61.220819
2086.000000	61.208445
2085.000000	61.203104
2084.000000	61.207466
2083.000000	61.224731
2082.000000	61.255300
2081.000000	61.295826
2080.000000	61.342389
2079.000000	61.392501
2078.000000	61.442494
2077.000000	61.487372
2076.000000	61.524542
2075.000000	61.555394
2074.000000	61.582617
2073.000000	61.607556
2072.000000	61.633112
2071.000000	61.664314
2070.000000	61.703818
2069.000000	61.749604
2068.000000	61.799452
2067.000000	61.855323
2066.000000	61.920632
2065.000000	61.994846
2064.000000	62.072945
2063.000000	62.149087
2062.000000	62.218888
2061.000000	62.280328
2060.000000	62.334706
2059.000000	62.385669
2058.000000	62.436317
2057.000000	62.488380
2056.000000	62.543987
2055.000000	62.605419
2054.000000	62.672788
2053.000000	62.743561
2052.000000	62.815887
2051.000000	62.889099
2050.000000	62.960438
2049.000000	63.025221
2048.000000	63.082218
2047.000000	63.134176
2046.000000	63.182448
2045.000000	63.225572
2044.000000	63.264699
2043.000000	63.306089
2042.000000	63.356054
2041.000000	63.416145
2040.000000	63.484391
2039.000000	63.558142
2038.000000	63.634081
2037.000000	63.708609
2036.000000	63.780504
2035.000000	63.850886
2034.000000	63.920174
2033.000000	63.987985
2032.000000	64.055620
2031.000000	64.125692
2030.000000	64.198706
2029.000000	64.272613
2028.000000	64.347343
2027.000000	64.423840
2026.000000	64.501024
2025.000000	64.574918
2024.000000	64.644553
2023.000000	64.711898
2022.000000	64.775695
2021.000000	64.831184
2020.000000	64.877990
2019.000000	64.924172
2018.000000	64.980280
2017.000000	65.051693
2016.000000	65.137418
2015.000000	65.232883
2014.000000	65.331549
2013.000000	65.426900
2012.000000	65.515501
2011.000000	65.596800
2010.000000	65.670707
2009.000000	65.737735
2008.000000	65.801620
2007.000000	65.866881
2006.000000	65.936166
2005.000000	66.009906
2004.000000	66.090461
2003.000000	66.181089
2002.000000	66.280350
2001.000000	66.384758
2000.000000	66.490371
1999.000000	66.595994
1998.000000	66.698338
1997.000000	66.789029
1996.000000	66.858902
1995.000000	66.904892
1994.000000	66.932733
1993.000000	66.956108
1992.000000	66.990345
1991.000000	67.042943
1990.000000	67.112335
1989.000000	67.196382
1988.000000	67.296780
1987.000000	67.410917
1986.000000	67.526628
1985.000000	67.631137
1984.000000	67.720857
1983.000000	67.797143
1982.000000	67.856580
1981.000000	67.896552
1980.000000	67.921236
1979.000000	67.941602
1978.000000	67.964706
1977.000000	67.993400
1976.000000	68.033335
1975.000000	68.091483
1974.000000	68.167284
1973.000000	68.252920
1972.000000	68.340718
1971.000000	68.422308
1970.000000	68.484633
1969.000000	68.519454
1968.000000	68.536880
1967.000000	68.555994
1966.000000	68.582273
1965.000000	68.607351
1964.000000	68.629310
1963.000000	68.657055
1962.000000	68.697028
1961.000000	68.748241
1960.000000	68.810829
1959.000000	68.886264
1958.000000	68.967424
1957.000000	69.041905
1956.000000	69.105888
1955.000000	69.162778
1954.000000	69.210364
1953.000000	69.239974
1952.000000	69.253721
1951.000000	69.261738
1950.000000	69.268647
1949.000000	69.275828
1948.000000	69.291656
1947.000000	69.325406
1946.000000	69.370774
1945.000000	69.411316
1944.000000	69.445563
1943.000000	69.489777
1942.000000	69.550704
1941.000000	69.613113
1940.000000	69.663329
1939.000000	69.702405
1938.000000	69.731811
1937.000000	69.747288
1936.000000	69.752351
1935.000000	69.761886
1934.000000	69.786344
1933.000000	69.822398
1932.000000	69.868235
1931.000000	69.923678
1930.000000	69.983308
1929.000000	70.039417
1928.000000	70.085466
1927.000000	70.119656
1926.000000	70.128918
1925.000000	70.108267
1924.000000	70.080009
1923.000000	70.078694
1922.000000	70.112523
1921.000000	70.160412
1920.000000	70.204717
1919.000000	70.247254
1918.000000	70.289461
1917.000000	70.325374
1916.000000	70.353315
1915.000000	70.384240
1914.000000	70.421970
1913.000000	70.449591
1912.000000	70.453835
1911.000000	70.444920
1910.000000	70.445724
1909.000000	70.468245
1908.000000	70.507684
1907.000000	70.561779
1906.000000	70.622187
1905.000000	70.678177
1904.000000	70.723641
1903.000000	70.759074
1902.000000	70.787777
1901.000000	70.810110
1900.000000	70.823413
1899.000000	70.830152
1898.000000	70.829371
1897.000000	70.822414
1896.000000	70.823306
1895.000000	70.850208
1894.000000	70.902121
1893.000000	70.955588
1892.000000	70.988881
1891.000000	71.001900
1890.000000	71.007777
1889.000000	71.011900
1888.000000	71.009767
1887.000000	71.002131
1886.000000	70.996292
1885.000000	70.995435
1884.000000	71.000695
1883.000000	71.014664
1882.000000	71.040355
1881.000000	71.076319
1880.000000	71.117408
1879.000000	71.163011
1878.000000	71.209410
1877.000000	71.244944
1876.000000	71.264588
1875.000000	71.273866
1874.000000	71.275628
1873.000000	71.265495
1872.000000	71.237599
1871.000000	71.187632
1870.000000	71.119738
1869.000000	71.062665
1868.000000	71.053539
1867.000000	71.101495
1866.000000	71.187712
1865.000000	71.281524
1864.000000	71.354818
1863.000000	71.394305
1862.000000	71.401033
1861.000000	71.382432
1860.000000	71.348870
1859.000000	71.313940
1858.000000	71.288042
1857.000000	71.273987
1856.000000	71.272068
1855.000000	71.286144
1854.000000	71.316678
1853.000000	71.358966
1852.000000	71.393996
1851.000000	71.413205
1850.000000	71.416073
1849.000000	71.401927
1848.000000	71.374686
1847.000000	71.346053
1846.000000	71.318882
1845.000000	71.274600
1844.000000	71.210350
1843.000000	71.155234
1842.000000	71.130145
1841.000000	71.137630
1840.000000	71.171284
1839.000000	71.217482
1838.000000	71.254698
1837.000000	71.274889
1836.000000	71.283716
1835.000000	71.285324
1834.000000	71.273459
1833.000000	71.232584
1832.000000	71.145678
1831.000000	71.026574
1830.000000	70.918662
1829.000000	70.850635
1828.000000	70.818920
1827.000000	70.814945
1826.000000	70.831265
1825.000000	70.854718
1824.000000	70.876414
1823.000000	70.895412
1822.000000	70.907439
1821.000000	70.895930
1820.000000	70.844933
1819.000000	70.759518
1818.000000	70.655565
1817.000000	70.555241
1816.000000	70.475814
1815.000000	70.415754
1814.000000	70.364872
1813.000000	70.315450
1812.000000	70.281824
1811.000000	70.278164
1810.000000	70.291737
1809.000000	70.303362
1808.000000	70.307216
1807.000000	70.301709
1806.000000	70.275504
1805.000000	70.213704
1804.000000	70.116192
1803.000000	69.996670
1802.000000	69.886707
1801.000000	69.810672
1800.000000	69.778624
1799.000000	69.777844
1798.000000	69.791539
1797.000000	69.816599
1796.000000	69.858215
1795.000000	69.908179
1794.000000	69.932059
1793.000000	69.887124
1792.000000	69.793057
1791.000000	69.706972
1790.000000	69.650908
1789.000000	69.616174
1788.000000	69.590311
1787.000000	69.560692
1786.000000	69.519729
1785.000000	69.474545
1784.000000	69.433932
1783.000000	69.386373
1782.000000	69.332716
1781.000000	69.275416
1780.000000	69.224701
1779.000000	69.181711
1778.000000	69.130939
1777.000000	69.055386
1776.000000	68.954862
1775.000000	68.855036
1774.000000	68.769664
1773.000000	68.677134
1772.000000	68.576454
1771.000000	68.488241
1770.000000	68.407134
1769.000000	68.338953
1768.000000	68.308787
1767.000000	68.313001
1766.000000	68.317973
1765.000000	68.298319
1764.000000	68.257702
1763.000000	68.197019
1762.000000	68.114848
1761.000000	68.013278
1760.000000	67.912018
1759.000000	67.821949
1758.000000	67.745716
1757.000000	67.674800
1756.000000	67.598793
1755.000000	67.516692
1754.000000	67.424348
1753.000000	67.316019
1752.000000	67.180237
1751.000000	67.030004
1750.000000	66.889246
1749.000000	66.775905
1748.000000	66.702204
1747.000000	66.663864
1746.000000	66.629912
1745.000000	66.564448
1744.000000	66.485964
1743.000000	66.431965
1742.000000	66.386132
1741.000000	66.292016
1740.000000	66.146760
1739.000000	65.999191
1738.000000	65.869361
1737.000000	65.744884
1736.000000	65.621769
1735.000000	65.457973
1734.000000	65.249086
1733.000000	65.063606
1732.000000	64.914801
1731.000000	64.791325
1730.000000	64.690135
1729.000000	64.582970
1728.000000	64.440153
1727.000000	64.266598
1726.000000	64.069257
1725.000000	63.834493
1724.000000	63.593384
1723.000000	63.405617
1722.000000	63.276962
1721.000000	63.146352
1720.000000	62.950568
1719.000000	62.671616
1718.000000	62.348873
1717.000000	62.060700
1716.000000	61.836873
1715.000000	61.644731
1714.000000	61.445838
1713.000000	61.221028
1712.000000	60.974414
1711.000000	60.726142
1710.000000	60.494427
1709.000000	60.277150
1708.000000	60.049710
1707.000000	59.803249
1706.000000	59.558918
1705.000000	59.355652
1704.000000	59.216259
1703.000000	59.154733
1702.000000	59.121275
1701.000000	58.882505
1700.000000	58.345904
1699.000000	57.740972
1698.000000	57.227891
1697.000000	56.856548
1696.000000	56.608616
1695.000000	56.406906
1694.000000	56.203599
1693.000000	55.980830
1692.000000	55.755125
1691.000000	55.535068
1690.000000	55.297938
1689.000000	55.035438
1688.000000	54.770260
1687.000000	54.550642
1686.000000	54.340621
1685.000000	54.000110
1684.000000	53.543347
1683.000000	53.134494
1682.000000	52.799618
1681.000000	52.516886
1680.000000	52.308082
1679.000000	52.180333
1678.000000	52.100105
1677.000000	52.001531
1676.000000	51.817624
1675.000000	51.549235
1674.000000	51.265744
1673.000000	50.989321
1672.000000	50.715598
1671.000000	50.425118
1670.000000	50.093409
1669.000000	49.735393
1668.000000	49.407643
1667.000000	49.154353
1666.000000	48.965206
1665.000000	48.786684
1664.000000	48.571000
1663.000000	48.317158
1662.000000	48.068346
1661.000000	47.836742
1660.000000	47.613968
1659.000000	47.412600
1658.000000	47.228308
1657.000000	47.029399
1656.000000	46.808994
1655.000000	46.571580
1654.000000	46.234107
1653.000000	45.800479
1652.000000	45.472504
1651.000000	45.268493
1650.000000	45.080108
1649.000000	44.853702
1648.000000	44.589346
1647.000000	44.329328
1646.000000	44.118530
1645.000000	43.937815
1644.000000	43.753084
1643.000000	43.557930
1642.000000	43.366169
1641.000000	43.174185
1640.000000	42.968444
1639.000000	42.759211
1638.000000	42.555974
1637.000000	42.340945
1636.000000	42.090603
1635.000000	41.847070
1634.000000	41.640318
1633.000000	41.451556
1632.000000	41.278570
1631.000000	41.129399
1630.000000	40.984689
1629.000000	40.813630
1628.000000	40.625186
1627.000000	40.457217
1626.000000	40.321222
1625.000000	40.178017
1624.000000	39.996196
1623.000000	39.802480
1622.000000	39.640271
1621.000000	39.500889
1620.000000	39.361712
1619.000000	39.232274
1618.000000	39.120490
1617.000000	39.011573
1616.000000	38.907877
1615.000000	38.830014
1614.000000	38.775485
1613.000000	38.729746
1612.000000	38.683964
1611.000000	38.633400
1610.000000	38.579967
1609.000000	38.522177
1608.000000	38.460683
1607.000000	38.402932
1606.000000	38.355111
1605.000000	38.305342
1604.000000	38.247173
1603.000000	38.202019
1602.000000	38.189197
1601.000000	38.199267
1600.000000	38.215898
1599.000000	38.240010
1598.000000	38.272996
1597.000000	38.299539
1596.000000	38.308884
1595.000000	38.310718
1594.000000	38.313900
1593.000000	38.307255
1592.000000	38.281381
1591.000000	38.249922
1590.000000	38.231525
1589.000000	38.225847
1588.000000	38.226644
1587.000000	38.241800
1586.000000	38.278354
1585.000000	38.327173
1584.000000	38.368024
1583.000000	38.402583
1582.000000	38.438828
1581.000000	38.456738
1580.000000	38.424218
1579.000000	38.348087
1578.000000	38.266457
1577.000000	38.198461
1576.000000	38.147080
1575.000000	38.124897
1574.000000	38.126676
1573.000000	38.136717
1572.000000	38.155712
1571.000000	38.174358
1570.000000	38.178671
1569.000000	38.173173
1568.000000	38.158229
1567.000000	38.146250
1566.000000	38.145172
1565.000000	38.144549
1564.000000	38.129183
1563.000000	38.124731
1562.000000	38.184168
1561.000000	38.288944
1560.000000	38.277376
1559.000000	38.229610
1558.000000	38.326260
1557.000000	38.440557
1556.000000	38.522384
1555.000000	38.640507
1554.000000	38.816249
1553.000000	38.981859
1552.000000	39.093295
1551.000000	39.188995
1550.000000	39.321346
1549.000000	39.488385
1548.000000	39.649270
1547.000000	39.789022
1546.000000	39.918651
1545.000000	40.053610
1544.000000	40.204878
1543.000000	40.372902
1542.000000	40.538116
1541.000000	40.721830
1540.000000	41.000795
1539.000000	41.359568
1538.000000	41.683423
1537.000000	41.923399
1536.000000	42.114997
1535.000000	42.310604
1534.000000	42.541688
1533.000000	42.806879
1532.000000	43.073181
1531.000000	43.332517
1530.000000	43.604603
1529.000000	43.889458
1528.000000	44.182008
1527.000000	44.502275
1526.000000	44.862176
1525.000000	45.217421
1524.000000	45.524492
1523.000000	45.823547
1522.000000	46.207446
1521.000000	46.686382
1520.000000	47.135401
1519.000000	47.481785
1518.000000	47.793574
1517.000000	48.163940
1516.000000	48.598095
1515.000000	49.034594
1514.000000	49.453245
1513.000000	49.859965
1512.000000	50.241252
1511.000000	50.566526
1510.000000	50.827180
1509.000000	51.048735
1508.000000	51.347320
1507.000000	51.917378
1506.000000	52.681536
1505.000000	53.316282
1504.000000	53.735519
1503.000000	54.064556
1502.000000	54.422158
1501.000000	54.823523
1500.000000	55.210768
1499.000000	55.557156
1498.000000	55.905704
1497.000000	56.309563
1496.000000	56.769924
1495.000000	57.230458
1494.000000	57.640557
1493.000000	57.982695
1492.000000	58.255870
1491.000000	58.481382
1490.000000	58.728570
1489.000000	59.038421
1488.000000	59.382840
1487.000000	59.730793
1486.000000	60.063295
1485.000000	60.359350
1484.000000	60.601728
1483.000000	60.818013
1482.000000	61.044601
1481.000000	61.283195
1480.000000	61.511922
1479.000000	61.719160
1478.000000	61.886235
1477.000000	61.975619
1476.000000	61.986650
1475.000000	61.959291
1474.000000	61.922204
1473.000000	61.869604
1472.000000	61.809111
1471.000000	61.744816
1470.000000	61.649046
1469.000000	61.498271
1468.000000	61.293911
1467.000000	61.022742
1466.000000	60.629165
1465.000000	60.070699
1464.000000	59.420248
1463.000000	58.813059
1462.000000	58.280772
1461.000000	57.759650
1460.000000	57.196415
1459.000000	56.572417
1458.000000	55.837065
1457.000000	54.961364
1456.000000	54.091433
1455.000000	53.335456
1454.000000	52.597029
1453.000000	51.744696
1452.000000	50.761355
1451.000000	49.694526
1450.000000	48.514579
1449.000000	47.118301
1448.000000	45.515214
1447.000000	43.855805
1446.000000	42.225090
1445.000000	40.565052
1444.000000	38.825405
1443.000000	37.017765
1442.000000	35.144858
1441.000000	33.232454
1440.000000	31.368816
1439.000000	29.556509
1438.000000	27.551501
1437.000000	25.135275
1436.000000	22.637966
1435.000000	20.601769
1434.000000	19.037542
1433.000000	17.672292
1432.000000	16.414356
1431.000000	15.335621
1430.000000	14.461853
1429.000000	13.777689
1428.000000	13.358125
1427.000000	13.264383
1426.000000	13.429924
1425.000000	13.784051
1424.000000	14.358098
1423.000000	15.147093
1422.000000	16.031398
1421.000000	16.965140
1420.000000	18.067895
1419.000000	19.403724
1418.000000	20.761550
1417.000000	21.956088
1416.000000	23.076114
1415.000000	24.243804
1414.000000	25.438152
1413.000000	26.609039
1412.000000	27.794685
1411.000000	29.039581
1410.000000	30.296108
1409.000000	31.506955
1408.000000	32.699736
1407.000000	33.921764
1406.000000	35.176041
1405.000000	36.451775
1404.000000	37.737973
1403.000000	38.984278
1402.000000	40.140446
1401.000000	41.238606
1400.000000	42.362532
1399.000000	43.525013
1398.000000	44.644409
1397.000000	45.702357
1396.000000	46.802071
1395.000000	48.014582
1394.000000	49.267045
1393.000000	50.450400
1392.000000	51.551651
1391.000000	52.606798
1390.000000	53.630953
1389.000000	54.636912
1388.000000	55.648700
1387.000000	56.650361
1386.000000	57.569340
1385.000000	58.363619
1384.000000	59.054019
1383.000000	59.659266
1382.000000	60.165338
1381.000000	60.559572
1380.000000	60.839284
1379.000000	60.983328
1378.000000	60.950468
1377.000000	60.695707
1376.000000	60.158962
1375.000000	59.279558
1374.000000	58.069396
1373.000000	56.634540
1372.000000	55.099562
1371.000000	53.552908
1370.000000	52.099343
1369.000000	50.912941
1368.000000	50.185839
1367.000000	50.009373
1366.000000	50.346451
1365.000000	51.117099
1364.000000	52.263934
1363.000000	53.728279
1362.000000	55.375432
1361.000000	57.013942
1360.000000	58.499449
1359.000000	59.763485
1358.000000	60.775044
1357.000000	61.514461
1356.000000	61.964978
1355.000000	62.114754
1354.000000	61.965221
1353.000000	61.522977
1352.000000	60.791523
1351.000000	59.764495
1350.000000	58.442584
1349.000000	56.843280
1348.000000	54.985621
1347.000000	52.886829
1346.000000	50.571527
1345.000000	48.083699
1344.000000	45.490099
1343.000000	42.853588
1342.000000	40.205506
1341.000000	37.571341
1340.000000	35.041450
1339.000000	32.782331
1338.000000	30.936544
1337.000000	29.530339
1336.000000	28.498523
1335.000000	27.743657
1334.000000	27.144287
1333.000000	26.561566
1332.000000	25.872595
1331.000000	24.995729
1330.000000	23.887854
1329.000000	22.537651
1328.000000	20.977271
1327.000000	19.284571
1326.000000	17.555304
1325.000000	15.877710
1324.000000	14.339320
1323.000000	13.024434
1322.000000	11.975830
1321.000000	11.177162
1320.000000	10.587065
1319.000000	10.160721
1318.000000	9.840505
1317.000000	9.565061
1316.000000	9.303984
1315.000000	9.065557
1314.000000	8.858224
1313.000000	8.675235
1312.000000	8.517678
1311.000000	8.398416
1310.000000	8.320521
1309.000000	8.277938
1308.000000	8.284984
1307.000000	8.375684
1306.000000	8.567693
1305.000000	8.855950
1304.000000	9.238844
1303.000000	9.720431
1302.000000	10.285710
1301.000000	10.900089
1300.000000	11.541297
1299.000000	12.204201
1298.000000	12.877228
1297.000000	13.541786
1296.000000	14.193017
1295.000000	14.838635
1294.000000	15.475772
1293.000000	16.090998
1292.000000	16.680383
1291.000000	17.249183
1290.000000	17.790170
1289.000000	18.283088
1288.000000	18.713168
1287.000000	19.069804
1286.000000	19.334736
1285.000000	19.491998
1284.000000	19.555855
1283.000000	19.575192
1282.000000	19.608363
1281.000000	19.705191
1280.000000	19.904703
1279.000000	20.224433
1278.000000	20.646206
1277.000000	21.130867
1276.000000	21.648217
1275.000000	22.183357
1274.000000	22.723014
1273.000000	23.254534
1272.000000	23.777716
1271.000000	24.298422
1270.000000	24.811882
1269.000000	25.305937
1268.000000	25.777398
1267.000000	26.230338
1266.000000	26.662505
1265.000000	27.067659
1264.000000	27.448940
1263.000000	27.818103
1262.000000	28.182015
1261.000000	28.543235
1260.000000	28.909540
1259.000000	29.289141
1258.000000	29.679066
1257.000000	30.069458
1256.000000	30.456177
1255.000000	30.838330
1254.000000	31.208345
1253.000000	31.556320
1252.000000	31.881269
1251.000000	32.189187
1250.000000	32.483664
1249.000000	32.767044
1248.000000	33.047816
1247.000000	33.337175
1246.000000	33.639876
1245.000000	33.955385
1244.000000	34.284304
1243.000000	34.625242
1242.000000	34.968433
1241.000000	35.300758
1240.000000	35.615196
1239.000000	35.909612
1238.000000	36.181081
1237.000000	36.428740
1236.000000	36.659674
1235.000000	36.885709
1234.000000	37.115359
1233.000000	37.354025
1232.000000	37.607988
1231.000000	37.881296
1230.000000	38.170166
1229.000000	38.465694
1228.000000	38.760370
1227.000000	39.048085
1226.000000	39.321657
1225.000000	39.576123
1224.000000	39.812524
1223.000000	40.035362
1222.000000	40.248999
1221.000000	40.459393
1220.000000	40.676027
1219.000000	40.907287
1218.000000	41.155521
1217.000000	41.418574
1216.000000	41.692772
1215.000000	41.971591
1214.000000	42.245373
1213.000000	42.506206
1212.000000	42.751361
1211.000000	42.980528
1210.000000	43.193949
1209.000000	43.395398
1208.000000	43.593554
1207.000000	43.797564
1206.000000	44.012705
1205.000000	44.241419
1204.000000	44.484464
1203.000000	44.738555
1202.000000	44.995727
1201.000000	45.247382
1200.000000	45.487482
1199.000000	45.711665
1198.000000	45.916799
1197.000000	46.103182
1196.000000	46.273514
1195.000000	46.429519
1194.000000	46.570181
1193.000000	46.691698
1192.000000	46.787484
1191.000000	46.846152
1190.000000	46.856203
1189.000000	46.814474
1188.000000	46.730559
1187.000000	46.626294
1186.000000	46.530593
1185.000000	46.472407
1184.000000	46.471993
1183.000000	46.535405
1182.000000	46.655596
1181.000000	46.822407
1180.000000	47.029558
1179.000000	47.272822
1178.000000	47.546453
1177.000000	47.839700
1176.000000	48.137362
1175.000000	48.421964
1174.000000	48.679140
1173.000000	48.902359
1172.000000	49.092963
1171.000000	49.257908
1170.000000	49.409298
1169.000000	49.562951
1168.000000	49.732919
1167.000000	49.927459
1166.000000	50.149845
1165.000000	50.399545
1164.000000	50.669603
1163.000000	50.945564
1162.000000	51.210603
1161.000000	51.451379
1160.000000	51.658576
1159.000000	51.827732
1158.000000	51.963084
1157.000000	52.078684
1156.000000	52.192289
1155.000000	52.319661
1154.000000	52.474239
1153.000000	52.665633
1152.000000	52.894281
1151.000000	53.149779
1150.000000	53.416834
1149.000000	53.679952
1148.000000	53.921766
1147.000000	54.123989
1146.000000	54.276275
1145.000000	54.381178
1144.000000	54.450140
1143.000000	54.498108
1142.000000	54.544391
1141.000000	54.611207
1140.000000	54.715568
1139.000000	54.863864
1138.000000	55.054249
1137.000000	55.278690
1136.000000	55.520160
1135.000000	55.754242
1134.000000	55.958751
1133.000000	56.120665
1132.000000	56.234101
1131.000000	56.299699
1130.000000	56.328552
1129.000000	56.342274
1128.000000	56.364638
1127.000000	56.415862
1126.000000	56.512547
1125.000000	56.664609
1124.000000	56.867618
1123.000000	57.102800
1122.000000	57.347153
1121.000000	57.579980
1120.000000	57.781438
1119.000000	57.934618
1118.000000	58.034867
1117.000000	58.091984
1116.000000	58.122529
1115.000000	58.144653
1114.000000	58.180698
1113.000000	58.253904
1112.000000	58.377295
1111.000000	58.548821
1110.000000	58.758327
1109.000000	58.991947
1108.000000	59.229390
1107.000000	59.446340
1106.000000	59.625209
1105.000000	59.759977
1104.000000	59.850665
1103.000000	59.902382
1102.000000	59.930534
1101.000000	59.958426
1100.000000	60.005633
1099.000000	60.081973
1098.000000	60.193692
1097.000000	60.343774
1096.000000	60.524089
1095.000000	60.715798
1094.000000	60.900890
1093.000000	61.067784
1092.000000	61.206600
1091.000000	61.310299
1090.000000	61.383756
1089.000000	61.443064
1088.000000	61.503544
1087.000000	61.575434
1086.000000	61.670185
1085.000000	61.798881
1084.000000	61.960728
1083.000000	62.141023
1082.000000	62.322963
1081.000000	62.493834
1080.000000	62.640473
1079.000000	62.750718
1078.000000	62.824419
1077.000000	62.873157
1076.000000	62.908254
1075.000000	62.937111
1074.000000	62.969363
1073.000000	63.014824
1072.000000	63.070196
1071.000000	63.117212
1070.000000	63.135043
1069.000000	63.103251
1068.000000	62.997648
1067.000000	62.794045
1066.000000	62.485430
1065.000000	62.090173
1064.000000	61.643406
1063.000000	61.193408
1062.000000	60.800602
1061.000000	60.524845
1060.000000	60.401841
1059.000000	60.436676
1058.000000	60.610240
1057.000000	60.888786
1056.000000	61.227885
1055.000000	61.578663
1054.000000	61.905487
1053.000000	62.190016
1052.000000	62.423820
1051.000000	62.606115
1050.000000	62.751634
1049.000000	62.887637
1048.000000	63.037991
1047.000000	63.215573
1046.000000	63.427867
1045.000000	63.676861
1044.000000	63.949983
1043.000000	64.221972
1042.000000	64.469933
1041.000000	64.679969
1040.000000	64.841247
1039.000000	64.946706
1038.000000	65.004623
1037.000000	65.039160
1036.000000	65.076004
1035.000000	65.136209
1034.000000	65.240799
1033.000000	65.406952
1032.000000	65.634202
1031.000000	65.903482
1030.000000	66.190262
1029.000000	66.470960
1028.000000	66.717600
1027.000000	66.902383
1026.000000	67.013625
1025.000000	67.060347
1024.000000	67.060468
1023.000000	67.036346
1022.000000	67.020585
1021.000000	67.048973
1020.000000	67.142640
1019.000000	67.303153
1018.000000	67.523021
1017.000000	67.787540
1016.000000	68.067143
1015.000000	68.321970
1014.000000	68.521439
1013.000000	68.652106
1012.000000	68.710016
1011.000000	68.700223
1010.000000	68.647342
1009.000000	68.591179
1008.000000	68.567265
1007.000000	68.598499
1006.000000	68.700932
1005.000000	68.880690
1004.000000	69.122206
1003.000000	69.391441
1002.000000	69.653499
1001.000000	69.880329
1000.000000	70.045157
999.000000	70.128032
998.000000	70.131867
997.000000	70.082899
996.000000	70.012592
995.000000	69.950267
994.000000	69.928758
993.000000	69.978875
992.000000	70.111255
991.000000	70.312609
990.000000	70.559124
989.000000	70.823283
988.000000	71.069609
987.000000	71.260589
986.000000	71.375462
985.000000	71.415683
984.000000	71.393828
983.000000	71.329379
982.000000	71.256167
981.000000	71.215495
980.000000	71.236427
979.000000	71.328788
978.000000	71.492587
977.000000	71.717832
976.000000	71.975062
975.000000	72.220846
974.000000	72.419710
973.000000	72.552979
972.000000	72.610608
971.000000	72.592046
970.000000	72.517905
969.000000	72.426818
968.000000	72.354905
967.000000	72.327885
966.000000	72.366976
965.000000	72.485301
964.000000	72.672826
963.000000	72.898255
962.000000	73.127365
961.000000	73.331709
960.000000	73.482263
959.000000	73.554856
958.000000	73.547808
957.000000	73.483659
956.000000	73.392030
955.000000	73.301557
954.000000	73.245954
953.000000	73.256960
952.000000	73.345489
951.000000	73.498127
950.000000	73.693208
949.000000	73.906246
948.000000	74.103235
947.000000	74.246606
946.000000	74.316382
945.000000	74.314500
944.000000	74.251883
943.000000	74.145923
942.000000	74.029814
941.000000	73.945458
940.000000	73.920845
939.000000	73.963699
938.000000	74.072071
937.000000	74.235399
936.000000	74.423706
935.000000	74.594672
934.000000	74.716410
933.000000	74.775326
932.000000	74.763754
931.000000	74.680721
930.000000	74.545899
929.000000	74.397398
928.000000	74.270410
927.000000	74.187869
926.000000	74.167608
925.000000	74.218591
924.000000	74.326192
923.000000	74.454684
922.000000	74.568764
921.000000	74.642230
920.000000	74.650343
919.000000	74.573939
918.000000	74.417138
917.000000	74.205259
916.000000	73.966538
915.000000	73.726295
914.000000	73.515051
913.000000	73.361436
912.000000	73.271493
911.000000	73.226832
910.000000	73.201500
909.000000	73.168212
908.000000	73.091685
907.000000	72.935556
906.000000	72.684118
905.000000	72.345869
904.000000	71.936760
903.000000	71.476431
902.000000	70.995285
901.000000	70.528994
900.000000	70.099273
899.000000	69.708424
898.000000	69.350164
897.000000	69.009285
896.000000	68.653805
895.000000	68.242785
894.000000	67.745967
893.000000	67.151017
892.000000	66.454149
891.000000	65.661790
890.000000	64.798834
889.000000	63.898666
888.000000	62.986920
887.000000	62.077740
886.000000	61.180891
885.000000	60.298042
884.000000	59.412373
883.000000	58.494629
882.000000	57.517371
881.000000	56.460113
880.000000	55.308438
879.000000	54.058681
878.000000	52.726539
877.000000	51.340896
876.000000	49.932689
875.000000	48.531808
874.000000	47.166055
873.000000	45.855305
872.000000	44.607181
871.000000	43.420142
870.000000	42.285507
869.000000	41.189876
868.000000	40.119074
867.000000	39.065064
866.000000	38.028235
865.000000	37.013612
864.000000	36.032496
863.000000	35.101069
862.000000	34.234015
861.000000	33.440914
860.000000	32.726904
859.000000	32.095210
858.000000	31.539868
857.000000	31.043036
856.000000	30.585658
855.000000	30.154275
854.000000	29.740767
853.000000	29.339721
852.000000	28.953337
851.000000	28.595548
850.000000	28.282851
849.000000	28.028532
848.000000	27.845461
847.000000	27.747170
846.000000	27.742977
845.000000	27.830758
844.000000	28.003079
843.000000	28.252514
842.000000	28.567752
841.000000	28.934514
840.000000	29.341743
839.000000	29.789765
838.000000	30.286163
837.000000	30.836694
836.000000	31.449003
835.000000	32.135352
834.000000	32.904540
833.000000	33.739207
832.000000	34.579500
831.000000	35.281487
830.000000	35.564938
829.000000	35.012989
828.000000	33.263802
827.000000	30.366575
826.000000	26.967992
825.000000	24.053043
824.000000	22.386607
823.000000	22.144526
822.000000	23.011826
821.000000	24.541910
820.000000	26.377321
819.000000	28.260889
818.000000	30.021418
817.000000	31.584584
816.000000	32.967676
815.000000	34.206946
814.000000	35.317581
813.000000	36.307983
812.000000	37.198679
811.000000	38.006091
810.000000	38.737944
809.000000	39.411806
808.000000	40.056736
807.000000	40.694842
806.000000	41.334394
805.000000	41.983821
804.000000	42.650482
803.000000	43.321415
802.000000	43.966277
801.000000	44.562529
800.000000	45.105036
799.000000	45.593735
798.000000	46.031004
797.000000	46.434022
796.000000	46.831359
795.000000	47.245453
794.000000	47.688869
793.000000	48.173084
792.000000	48.704295
791.000000	49.270420
790.000000	49.845372
789.000000	50.405415
788.000000	50.931512
787.000000	51.403155
786.000000	51.807280
785.000000	52.152159
784.000000	52.461820
783.000000	52.759465
782.000000	53.065763
781.000000	53.404089
780.000000	53.792652
779.000000	54.232210
778.000000	54.709688
777.000000	55.207978
776.000000	55.703385
775.000000	56.162197
774.000000	56.555415
773.000000	56.875137
772.000000	57.130037
771.000000	57.333970
770.000000	57.508163
769.000000	57.685269
768.000000	57.896339
767.000000	58.156982
766.000000	58.470599
765.000000	58.835045
764.000000	59.235201
763.000000	59.637905
762.000000	60.007009
761.000000	60.320357
760.000000	60.566866
759.000000	60.740829
758.000000	60.851125
757.000000	60.927154
756.000000	61.004659
755.000000	61.110927
754.000000	61.267594
753.000000	61.492581
752.000000	61.787206
751.000000	62.129127
750.000000	62.487266
749.000000	62.835507
748.000000	63.147422
747.000000	63.394289
746.000000	63.563074
745.000000	63.667408
744.000000	63.732628
743.000000	63.781273
742.000000	63.839537
741.000000	63.940411
740.000000	64.105119
739.000000	64.329563
738.000000	64.596502
737.000000	64.888238
736.000000	65.178616
735.000000	65.429029
734.000000	65.608263
733.000000	65.708688
732.000000	65.735934
731.000000	65.698822
730.000000	65.619270
729.000000	65.536147
728.000000	65.484922
727.000000	65.482429
726.000000	65.536402
725.000000	65.653280
724.000000	65.824689
723.000000	66.020809
722.000000	66.211030
721.000000	66.381175
720.000000	66.523020
719.000000	66.625478
718.000000	66.690808
717.000000	66.744856
716.000000	66.817922
715.000000	66.927081
714.000000	67.085180
713.000000	67.307939
712.000000	67.597102
711.000000	67.928780
710.000000	68.271607
709.000000	68.603242
708.000000	68.901768
707.000000	69.141399
706.000000	69.312927
705.000000	69.434871
704.000000	69.532826
703.000000	69.621925
702.000000	69.718676
701.000000	69.849400
700.000000	70.030119
699.000000	70.253379
698.000000	70.504807
697.000000	70.775690
696.000000	71.047263
695.000000	71.284324
694.000000	71.462028
693.000000	71.583819
692.000000	71.662048
691.000000	71.703873
690.000000	71.729245
689.000000	71.778934
688.000000	71.883200
687.000000	72.038022
686.000000	72.229632
685.000000	72.456608
684.000000	72.709079
683.000000	72.953207
682.000000	73.159580
681.000000	73.324659
680.000000	73.449292
679.000000	73.524043
678.000000	73.556368
677.000000	73.581855
676.000000	73.631318
675.000000	73.715015
674.000000	73.842141
673.000000	74.028575
672.000000	74.275106
671.000000	74.564767
670.000000	74.887908
669.000000	75.234021
668.000000	75.526949
667.000000	75.643116
666.000000	75.585506
665.000000	75.481286
664.000000	75.417151
663.000000	75.414205
662.000000	75.471254
661.000000	75.590191
660.000000	75.771739
659.000000	76.003957
658.000000	76.266530
657.000000	76.535964
656.000000	76.780574
655.000000	76.969267
654.000000	77.089690
653.000000	77.151951
652.000000	77.175574
651.000000	77.181534
650.000000	77.196413
649.000000	77.247809
648.000000	77.349207
647.000000	77.498834
646.000000	77.693738
645.000000	77.932715
644.000000	78.197780
643.000000	78.448720
642.000000	78.648662
641.000000	78.785248
640.000000	78.860509
639.000000	78.879753
638.000000	78.861442
637.000000	78.840534
636.000000	78.850917
635.000000	78.913200
634.000000	79.040964
633.000000	79.240823
632.000000	79.499222
631.000000	79.782086
630.000000	80.056163
629.000000	80.298712
628.000000	80.485998
627.000000	80.596366
626.000000	80.636500
625.000000	80.642463
624.000000	80.643853
623.000000	80.650249
622.000000	80.677034
621.000000	80.755147
620.000000	80.902118
619.000000	81.107041
618.000000	81.352327
617.000000	81.627452
616.000000	81.907788
615.000000	82.148206
614.000000	82.314903
613.000000	82.404445
612.000000	82.420986
611.000000	82.364440
610.000000	82.251073
609.000000	82.112408
608.000000	81.960151
607.000000	81.766133
606.000000	81.482387
605.000000	81.038790
604.000000	80.296099
603.000000	79.034823
602.000000	76.984196
601.000000	73.903460
600.000000	69.714289
599.000000	64.678669
598.000000	59.455861
597.000000	54.898768
596.000000	51.737353
595.000000	50.341514
594.000000	50.639360
593.000000	52.218077
592.000000	54.568798
591.000000	57.236075
590.000000	59.870356
589.000000	62.286487
588.000000	64.439660
587.000000	66.348343
586.000000	68.034340
585.000000	69.517782
584.000000	70.811650
583.000000	71.924709
582.000000	72.879810
581.000000	73.723624
580.000000	74.497124
579.000000	75.202330
578.000000	75.832635
577.000000	76.406933
576.000000	76.949283
575.000000	77.455752
574.000000	77.907133
573.000000	78.305611
572.000000	78.664491
571.000000	78.983965
570.000000	79.265525
569.000000	79.527472
568.000000	79.784134
567.000000	80.026180
566.000000	80.240871
565.000000	80.434056
564.000000	80.611881
563.000000	80.768655
562.000000	80.908197
561.000000	81.053862
560.000000	81.219919
559.000000	81.396369
558.000000	81.577516
557.000000	81.777163
556.000000	81.998534
555.000000	82.216985
554.000000	82.411292
553.000000	82.582189
552.000000	82.725004
551.000000	82.817956
550.000000	82.859565
549.000000	82.881417
548.000000	82.907620
547.000000	82.939066
546.000000	82.990488
545.000000	83.098255
544.000000	83.272231
543.000000	83.482247
542.000000	83.705435
541.000000	83.948469
540.000000	84.202647
539.000000	84.421962
538.000000	84.569991
537.000000	84.652612
536.000000	84.681432
535.000000	84.650118
534.000000	84.571828
533.000000	84.499885
532.000000	84.476800
531.000000	84.503628
530.000000	84.579714
529.000000	84.723735
528.000000	84.933992
527.000000	85.172015
526.000000	85.406828
525.000000	85.626060
524.000000	85.786733
523.000000	85.806030
522.000000	85.632043
521.000000	85.277592
520.000000	84.772482
519.000000	84.132879
518.000000	83.409038
517.000000	82.719230
516.000000	82.184319
515.000000	81.863632
514.000000	81.773342
513.000000	81.914916
512.000000	82.235482
511.000000	82.604795
510.000000	82.876263
509.000000	82.951122
508.000000	82.750578
507.000000	82.202638
506.000000	81.292325
505.000000	80.063742
504.000000	78.563586
503.000000	76.881238
502.000000	75.276138
501.000000	74.105205
500.000000	73.567099
499.000000	73.623603
498.000000	74.139208
497.000000	74.955946
496.000000	75.872624
495.000000	76.673406
494.000000	77.226623
493.000000	77.538876
492.000000	77.692242
491.000000	77.780500
490.000000	77.903057
489.000000	78.156117
488.000000	78.576092
487.000000	79.134150
486.000000	79.802476
485.000000	80.583930
484.000000	81.450505
483.000000	82.313053
482.000000	83.092604
481.000000	83.765166
480.000000	84.305903
479.000000	84.660688
478.000000	84.810397
477.000000	84.817166
476.000000	84.760413
475.000000	84.674027
474.000000	84.599027
473.000000	84.640239
472.000000	84.884864
471.000000	85.287397
470.000000	85.740618
469.000000	86.205489
468.000000	86.667063
467.000000	87.048999
466.000000	87.253487
465.000000	87.255991
464.000000	87.077245
463.000000	86.739600
462.000000	86.321758
461.000000	85.960887
460.000000	85.739160
459.000000	85.644072
458.000000	85.679676
457.000000	85.910499
456.000000	86.297652
455.000000	86.683322
454.000000	86.963426
453.000000	87.135651
452.000000	87.200462
451.000000	87.086689
450.000000	86.727004
449.000000	86.152473
448.000000	85.445167
447.000000	84.659023
446.000000	83.823693
445.000000	82.961725
444.000000	82.031983
443.000000	80.913250
442.000000	79.505670
441.000000	77.817920
440.000000	75.902998
439.000000	73.796437
438.000000	71.579122
437.000000	69.481785
436.000000	67.844246
435.000000	66.920392
434.000000	66.733941
433.000000	67.165629
432.000000	68.109250
431.000000	69.438753
430.000000	70.988046
429.000000	72.645186
428.000000	74.352100
427.000000	76.012785
426.000000	77.530791
425.000000	78.930510
424.000000	80.259790
423.000000	81.429328
422.000000	82.309735
421.000000	82.929343
420.000000	83.383158
419.000000	83.773911
418.000000	84.252844
417.000000	84.815211
416.000000	85.359204
415.000000	85.787604
414.000000	86.077146
413.000000	86.365587
412.000000	86.770490
411.000000	87.202772
410.000000	87.557553
409.000000	87.905838
408.000000	88.298187
407.000000	88.579191
406.000000	88.606247
405.000000	88.565014
404.000000	88.542991
403.000000	88.360160
402.000000	87.846862
401.000000	87.147693
400.000000	86.476661
