PE IR       SUBTECH     SPECTRUM    ASCII       PEDS        4.00        
   -1
23ms174_nitrito.asc
24/08/30
17:23:21.00
24/08/30
17:23:21.00
Administrator
Sample 1073 By Administrator Date Friday, August 30 2024
400.000000
#HDR
-1
-1
#GR
cm-1
%T
1.0
0.0
4000.000000
-1.000000
3601
8
88.220581
12.874698
#DATA
4000.000000	71.204507
3999.000000	71.243282
3998.000000	71.280838
3997.000000	71.318774
3996.000000	71.358398
3995.000000	71.400077
3994.000000	71.443287
3993.000000	71.487246
3992.000000	71.531422
3991.000000	71.575138
3990.000000	71.617043
3989.000000	71.655945
3988.000000	71.692384
3987.000000	71.728654
3986.000000	71.767044
3985.000000	71.808261
3984.000000	71.851546
3983.000000	71.895500
3982.000000	71.938530
3981.000000	71.979263
3980.000000	72.016933
3979.000000	72.051998
3978.000000	72.086244
3977.000000	72.121656
3976.000000	72.159313
3975.000000	72.198974
3974.000000	72.239737
3973.000000	72.280664
3972.000000	72.320803
3971.000000	72.359585
3970.000000	72.396550
3969.000000	72.431044
3968.000000	72.462954
3967.000000	72.493401
3966.000000	72.524511
3965.000000	72.558433
3964.000000	72.596181
3963.000000	72.636693
3962.000000	72.677477
3961.000000	72.715670
3960.000000	72.749679
3959.000000	72.781055
3958.000000	72.812866
3957.000000	72.846757
3956.000000	72.882564
3955.000000	72.920013
3954.000000	72.959569
3953.000000	73.000920
3952.000000	73.041901
3951.000000	73.079759
3950.000000	73.112831
3949.000000	73.141851
3948.000000	73.170203
3947.000000	73.201533
3946.000000	73.237872
3945.000000	73.280666
3944.000000	73.330417
3943.000000	73.382482
3942.000000	73.428137
3941.000000	73.462442
3940.000000	73.489323
3939.000000	73.518631
3938.000000	73.555590
3937.000000	73.595562
3936.000000	73.631414
3935.000000	73.663402
3934.000000	73.700165
3933.000000	73.747147
3932.000000	73.799334
3931.000000	73.847272
3930.000000	73.886461
3929.000000	73.921437
3928.000000	73.958712
3927.000000	74.001317
3926.000000	74.048880
3925.000000	74.096207
3924.000000	74.134761
3923.000000	74.160529
3922.000000	74.179211
3921.000000	74.201142
3920.000000	74.230950
3919.000000	74.265165
3918.000000	74.300623
3917.000000	74.339225
3916.000000	74.382508
3915.000000	74.426476
3914.000000	74.468076
3913.000000	74.509265
3912.000000	74.551749
3911.000000	74.593920
3910.000000	74.633118
3909.000000	74.670365
3908.000000	74.710399
3907.000000	74.754604
3906.000000	74.798682
3905.000000	74.836017
3904.000000	74.862793
3903.000000	74.883117
3902.000000	74.906716
3901.000000	74.943085
3900.000000	74.994573
3899.000000	75.050515
3898.000000	75.096402
3897.000000	75.130088
3896.000000	75.161762
3895.000000	75.202149
3894.000000	75.251376
3893.000000	75.300495
3892.000000	75.340795
3891.000000	75.370970
3890.000000	75.391269
3889.000000	75.401251
3888.000000	75.411892
3887.000000	75.446344
3886.000000	75.512495
3885.000000	75.584591
3884.000000	75.631086
3883.000000	75.653659
3882.000000	75.679106
3881.000000	75.721899
3880.000000	75.768141
3879.000000	75.797820
3878.000000	75.811365
3877.000000	75.829048
3876.000000	75.872091
3875.000000	75.942266
3874.000000	76.013442
3873.000000	76.053472
3872.000000	76.060677
3871.000000	76.069761
3870.000000	76.110069
3869.000000	76.167694
3868.000000	76.209012
3867.000000	76.231103
3866.000000	76.264923
3865.000000	76.324663
3864.000000	76.381846
3863.000000	76.406959
3862.000000	76.408977
3861.000000	76.417495
3860.000000	76.450576
3859.000000	76.509036
3858.000000	76.586346
3857.000000	76.671582
3856.000000	76.750300
3855.000000	76.814316
3854.000000	76.863623
3853.000000	76.898819
3852.000000	76.920633
3851.000000	76.931753
3850.000000	76.940053
3849.000000	76.954923
3848.000000	76.974738
3847.000000	76.993369
3846.000000	77.012206
3845.000000	77.037656
3844.000000	77.074077
3843.000000	77.119988
3842.000000	77.168140
3841.000000	77.215105
3840.000000	77.263771
3839.000000	77.315281
3838.000000	77.367127
3837.000000	77.416000
3836.000000	77.459718
3835.000000	77.496624
3834.000000	77.526084
3833.000000	77.551611
3832.000000	77.577247
3831.000000	77.601973
3830.000000	77.624664
3829.000000	77.648850
3828.000000	77.681227
3827.000000	77.727222
3826.000000	77.780609
3825.000000	77.825669
3824.000000	77.856171
3823.000000	77.889841
3822.000000	77.949679
3821.000000	78.026387
3820.000000	78.083549
3819.000000	78.104822
3818.000000	78.112412
3817.000000	78.142259
3816.000000	78.202176
3815.000000	78.259499
3814.000000	78.287251
3813.000000	78.297914
3812.000000	78.319489
3811.000000	78.359769
3810.000000	78.403300
3809.000000	78.435967
3808.000000	78.466941
3807.000000	78.514116
3806.000000	78.573212
3805.000000	78.624697
3804.000000	78.663197
3803.000000	78.708897
3802.000000	78.775604
3801.000000	78.840816
3800.000000	78.873907
3799.000000	78.880169
3798.000000	78.890876
3797.000000	78.924315
3796.000000	78.967945
3795.000000	78.998784
3794.000000	79.013892
3793.000000	79.030105
3792.000000	79.060055
3791.000000	79.100407
3790.000000	79.141400
3789.000000	79.179763
3788.000000	79.219353
3787.000000	79.263100
3786.000000	79.309490
3785.000000	79.354832
3784.000000	79.395443
3783.000000	79.429550
3782.000000	79.461626
3781.000000	79.500592
3780.000000	79.549121
3779.000000	79.598227
3778.000000	79.637764
3777.000000	79.668451
3776.000000	79.700686
3775.000000	79.742938
3774.000000	79.790989
3773.000000	79.831793
3772.000000	79.861702
3771.000000	79.893891
3770.000000	79.937677
3769.000000	79.984463
3768.000000	80.023716
3767.000000	80.059965
3766.000000	80.106399
3765.000000	80.162515
3764.000000	80.210922
3763.000000	80.240744
3762.000000	80.264450
3761.000000	80.303547
3760.000000	80.358050
3759.000000	80.408738
3758.000000	80.450189
3757.000000	80.494022
3756.000000	80.544898
3755.000000	80.595627
3754.000000	80.643304
3753.000000	80.694691
3752.000000	80.748810
3751.000000	80.795733
3750.000000	80.843033
3749.000000	80.906423
3748.000000	80.974976
3747.000000	81.023577
3746.000000	81.053432
3745.000000	81.092527
3744.000000	81.146216
3743.000000	81.186795
3742.000000	81.202142
3741.000000	81.212282
3740.000000	81.235168
3739.000000	81.262878
3738.000000	81.284900
3737.000000	81.315635
3736.000000	81.375788
3735.000000	81.451094
3734.000000	81.508873
3733.000000	81.547045
3732.000000	81.585276
3731.000000	81.627649
3730.000000	81.660154
3729.000000	81.676868
3728.000000	81.694288
3727.000000	81.730662
3726.000000	81.779986
3725.000000	81.821899
3724.000000	81.853739
3723.000000	81.889331
3722.000000	81.933056
3721.000000	81.977972
3720.000000	82.018374
3719.000000	82.056952
3718.000000	82.100905
3717.000000	82.150786
3716.000000	82.198753
3715.000000	82.239546
3714.000000	82.278921
3713.000000	82.326339
3712.000000	82.379419
3711.000000	82.426922
3710.000000	82.467633
3709.000000	82.509672
3708.000000	82.557120
3707.000000	82.606265
3706.000000	82.650310
3705.000000	82.685916
3704.000000	82.716089
3703.000000	82.745986
3702.000000	82.776703
3701.000000	82.806657
3700.000000	82.835705
3699.000000	82.865705
3698.000000	82.902091
3697.000000	82.948701
3696.000000	82.997908
3695.000000	83.037870
3694.000000	83.070034
3693.000000	83.110161
3692.000000	83.166453
3691.000000	83.225876
3690.000000	83.269008
3689.000000	83.296872
3688.000000	83.327224
3687.000000	83.362665
3686.000000	83.390629
3685.000000	83.407182
3684.000000	83.418614
3683.000000	83.428620
3682.000000	83.438338
3681.000000	83.454405
3680.000000	83.485246
3679.000000	83.521518
3678.000000	83.542297
3677.000000	83.552298
3676.000000	83.579831
3675.000000	83.629471
3674.000000	83.670119
3673.000000	83.679786
3672.000000	83.673475
3671.000000	83.685183
3670.000000	83.714972
3669.000000	83.727707
3668.000000	83.712653
3667.000000	83.690716
3666.000000	83.676009
3665.000000	83.666392
3664.000000	83.653117
3663.000000	83.634457
3662.000000	83.617403
3661.000000	83.606030
3660.000000	83.595741
3659.000000	83.577279
3658.000000	83.548040
3657.000000	83.517574
3656.000000	83.496701
3655.000000	83.484792
3654.000000	83.470217
3653.000000	83.446736
3652.000000	83.422175
3651.000000	83.401587
3650.000000	83.367756
3649.000000	83.305244
3648.000000	83.238383
3647.000000	83.196186
3646.000000	83.169532
3645.000000	83.133172
3644.000000	83.079595
3643.000000	83.019129
3642.000000	82.959400
3641.000000	82.896635
3640.000000	82.828195
3639.000000	82.761060
3638.000000	82.699828
3637.000000	82.637131
3636.000000	82.565586
3635.000000	82.493272
3634.000000	82.432170
3633.000000	82.376553
3632.000000	82.306786
3631.000000	82.216357
3630.000000	82.125065
3629.000000	82.051364
3628.000000	81.989246
3627.000000	81.929167
3626.000000	81.870213
3625.000000	81.814964
3624.000000	81.762878
3623.000000	81.706519
3622.000000	81.638092
3621.000000	81.559261
3620.000000	81.475971
3619.000000	81.389490
3618.000000	81.300839
3617.000000	81.213318
3616.000000	81.128208
3615.000000	81.045921
3614.000000	80.964435
3613.000000	80.877773
3612.000000	80.783070
3611.000000	80.686476
3610.000000	80.600911
3609.000000	80.536104
3608.000000	80.485295
3607.000000	80.431675
3606.000000	80.366753
3605.000000	80.293914
3604.000000	80.220238
3603.000000	80.147182
3602.000000	80.070817
3601.000000	79.990366
3600.000000	79.908548
3599.000000	79.826425
3598.000000	79.744530
3597.000000	79.663890
3596.000000	79.585922
3595.000000	79.511691
3594.000000	79.440218
3593.000000	79.370663
3592.000000	79.302582
3591.000000	79.234193
3590.000000	79.165984
3589.000000	79.102975
3588.000000	79.045997
3587.000000	78.987923
3586.000000	78.924749
3585.000000	78.860912
3584.000000	78.801768
3583.000000	78.746809
3582.000000	78.690567
3581.000000	78.628390
3580.000000	78.560419
3579.000000	78.489341
3578.000000	78.416733
3577.000000	78.343112
3576.000000	78.269234
3575.000000	78.197054
3574.000000	78.128378
3573.000000	78.063595
3572.000000	78.001102
3571.000000	77.935666
3570.000000	77.861539
3569.000000	77.781210
3568.000000	77.703310
3567.000000	77.631394
3566.000000	77.563096
3565.000000	77.498663
3564.000000	77.440490
3563.000000	77.388424
3562.000000	77.336430
3561.000000	77.276172
3560.000000	77.204084
3559.000000	77.123055
3558.000000	77.038582
3557.000000	76.955266
3556.000000	76.876034
3555.000000	76.801637
3554.000000	76.730528
3553.000000	76.659487
3552.000000	76.585472
3551.000000	76.506275
3550.000000	76.420553
3549.000000	76.330846
3548.000000	76.243052
3547.000000	76.160530
3546.000000	76.080474
3545.000000	75.999340
3544.000000	75.918356
3543.000000	75.840640
3542.000000	75.765532
3541.000000	75.689506
3540.000000	75.610690
3539.000000	75.529154
3538.000000	75.445194
3537.000000	75.359160
3536.000000	75.273326
3535.000000	75.191403
3534.000000	75.115984
3533.000000	75.047984
3532.000000	74.986042
3531.000000	74.925591
3530.000000	74.859763
3529.000000	74.785274
3528.000000	74.706328
3527.000000	74.630485
3526.000000	74.562480
3525.000000	74.503347
3524.000000	74.451589
3523.000000	74.402625
3522.000000	74.350273
3521.000000	74.291686
3520.000000	74.229506
3519.000000	74.166937
3518.000000	74.103860
3517.000000	74.039550
3516.000000	73.976694
3515.000000	73.919148
3514.000000	73.866324
3513.000000	73.813618
3512.000000	73.757527
3511.000000	73.696964
3510.000000	73.630739
3509.000000	73.558540
3508.000000	73.483637
3507.000000	73.411521
3506.000000	73.345732
3505.000000	73.286151
3504.000000	73.229401
3503.000000	73.170048
3502.000000	73.103657
3501.000000	73.030418
3500.000000	72.954771
3499.000000	72.879903
3498.000000	72.804618
3497.000000	72.726482
3496.000000	72.646331
3495.000000	72.567544
3494.000000	72.492021
3493.000000	72.418983
3492.000000	72.346662
3491.000000	72.272632
3490.000000	72.193593
3489.000000	72.107979
3488.000000	72.017987
3487.000000	71.927190
3486.000000	71.837750
3485.000000	71.751138
3484.000000	71.669208
3483.000000	71.591801
3482.000000	71.514430
3481.000000	71.431624
3480.000000	71.341446
3479.000000	71.245283
3478.000000	71.145163
3477.000000	71.043732
3476.000000	70.944695
3475.000000	70.850306
3474.000000	70.759904
3473.000000	70.672071
3472.000000	70.586339
3471.000000	70.500908
3470.000000	70.410699
3469.000000	70.311017
3468.000000	70.202283
3467.000000	70.088922
3466.000000	69.975390
3465.000000	69.864991
3464.000000	69.760226
3463.000000	69.660822
3462.000000	69.562340
3461.000000	69.459547
3460.000000	69.350480
3459.000000	69.236121
3458.000000	69.118053
3457.000000	68.998369
3456.000000	68.880672
3455.000000	68.767641
3454.000000	68.658580
3453.000000	68.551077
3452.000000	68.443264
3451.000000	68.333144
3450.000000	68.217391
3449.000000	68.093593
3448.000000	67.963070
3447.000000	67.829680
3446.000000	67.697090
3445.000000	67.568344
3444.000000	67.445318
3443.000000	67.326204
3442.000000	67.205159
3441.000000	67.077092
3440.000000	66.942035
3439.000000	66.803087
3438.000000	66.661854
3437.000000	66.518161
3436.000000	66.372986
3435.000000	66.228003
3434.000000	66.082921
3433.000000	65.935825
3432.000000	65.784722
3431.000000	65.627581
3430.000000	65.462009
3429.000000	65.287534
3428.000000	65.107627
3427.000000	64.927217
3426.000000	64.749154
3425.000000	64.573893
3424.000000	64.400571
3423.000000	64.226260
3422.000000	64.045578
3421.000000	63.854086
3420.000000	63.651984
3419.000000	63.443029
3418.000000	63.231121
3417.000000	63.019217
3416.000000	62.809323
3415.000000	62.600769
3414.000000	62.389304
3413.000000	62.170275
3412.000000	61.941706
3411.000000	61.703371
3410.000000	61.454888
3409.000000	61.196907
3408.000000	60.932942
3407.000000	60.667431
3406.000000	60.402818
3405.000000	60.139349
3404.000000	59.875627
3403.000000	59.607632
3402.000000	59.328840
3401.000000	59.034081
3400.000000	58.723124
3399.000000	58.399739
3398.000000	58.068927
3397.000000	57.735689
3396.000000	57.403610
3395.000000	57.072203
3394.000000	56.736124
3393.000000	56.388862
3392.000000	56.026736
3391.000000	55.649241
3390.000000	55.258710
3389.000000	54.860097
3388.000000	54.458720
3387.000000	54.056088
3386.000000	53.649164
3385.000000	53.234755
3384.000000	52.811735
3383.000000	52.378990
3382.000000	51.934391
3381.000000	51.477454
3380.000000	51.010773
3379.000000	50.537110
3378.000000	50.057397
3377.000000	49.572458
3376.000000	49.083399
3375.000000	48.589298
3374.000000	48.086942
3373.000000	47.574229
3372.000000	47.051780
3371.000000	46.520014
3370.000000	45.978450
3369.000000	45.428428
3368.000000	44.873484
3367.000000	44.315725
3366.000000	43.754127
3365.000000	43.187518
3364.000000	42.615816
3363.000000	42.037853
3362.000000	41.451794
3361.000000	40.858654
3360.000000	40.262511
3359.000000	39.666132
3358.000000	39.069241
3357.000000	38.471735
3356.000000	37.874450
3355.000000	37.276355
3354.000000	36.674699
3353.000000	36.069028
3352.000000	35.462029
3351.000000	34.855908
3350.000000	34.251345
3349.000000	33.650205
3348.000000	33.055229
3347.000000	32.466170
3346.000000	31.880110
3345.000000	31.296034
3344.000000	30.715462
3343.000000	30.138618
3342.000000	29.564072
3341.000000	28.992986
3340.000000	28.429580
3339.000000	27.876677
3338.000000	27.334376
3337.000000	26.802736
3336.000000	26.282024
3335.000000	25.770122
3334.000000	25.263855
3333.000000	24.763609
3332.000000	24.272433
3331.000000	23.791264
3330.000000	23.318818
3329.000000	22.855616
3328.000000	22.404430
3327.000000	21.966182
3326.000000	21.539949
3325.000000	21.126365
3324.000000	20.726419
3323.000000	20.338146
3322.000000	19.958348
3321.000000	19.587489
3320.000000	19.228931
3319.000000	18.883289
3318.000000	18.548928
3317.000000	18.226141
3316.000000	17.916420
3315.000000	17.618320
3314.000000	17.328201
3313.000000	17.045224
3312.000000	16.770995
3311.000000	16.505279
3310.000000	16.247208
3309.000000	15.999178
3308.000000	15.765584
3307.000000	15.547922
3306.000000	15.345132
3305.000000	15.157747
3304.000000	14.985813
3303.000000	14.824959
3302.000000	14.669244
3301.000000	14.517175
3300.000000	14.371014
3299.000000	14.231224
3298.000000	14.096992
3297.000000	13.970579
3296.000000	13.855181
3295.000000	13.749809
3294.000000	13.650901
3293.000000	13.558486
3292.000000	13.475785
3291.000000	13.403011
3290.000000	13.337359
3289.000000	13.277646
3288.000000	13.224514
3287.000000	13.176785
3286.000000	13.132013
3285.000000	13.090531
3284.000000	13.054040
3283.000000	13.021606
3282.000000	12.991308
3281.000000	12.964324
3280.000000	12.943137
3279.000000	12.926681
3278.000000	12.912079
3277.000000	12.899800
3276.000000	12.892037
3275.000000	12.887415
3274.000000	12.882276
3273.000000	12.876706
3272.000000	12.874698
3271.000000	12.878826
3270.000000	12.888993
3269.000000	12.905086
3268.000000	12.926313
3267.000000	12.949053
3266.000000	12.969599
3265.000000	12.988464
3264.000000	13.008351
3263.000000	13.029238
3262.000000	13.049588
3261.000000	13.070403
3260.000000	13.093741
3259.000000	13.118682
3258.000000	13.143101
3257.000000	13.168122
3256.000000	13.196292
3255.000000	13.226859
3254.000000	13.257067
3253.000000	13.286716
3252.000000	13.317105
3251.000000	13.347082
3250.000000	13.374730
3249.000000	13.401753
3248.000000	13.431777
3247.000000	13.465272
3246.000000	13.500059
3245.000000	13.535394
3244.000000	13.571590
3243.000000	13.607019
3242.000000	13.639837
3241.000000	13.671405
3240.000000	13.704179
3239.000000	13.737375
3238.000000	13.768458
3237.000000	13.797373
3236.000000	13.825783
3235.000000	13.853870
3234.000000	13.881618
3233.000000	13.911306
3232.000000	13.944602
3231.000000	13.978935
3230.000000	14.010635
3229.000000	14.039882
3228.000000	14.068787
3227.000000	14.096695
3226.000000	14.121567
3225.000000	14.144158
3224.000000	14.166455
3223.000000	14.187739
3222.000000	14.206168
3221.000000	14.222650
3220.000000	14.239201
3219.000000	14.255076
3218.000000	14.268478
3217.000000	14.280162
3216.000000	14.291480
3215.000000	14.300816
3214.000000	14.305924
3213.000000	14.308134
3212.000000	14.310122
3211.000000	14.311363
3210.000000	14.309769
3209.000000	14.305833
3208.000000	14.301203
3207.000000	14.294914
3206.000000	14.284995
3205.000000	14.272348
3204.000000	14.259023
3203.000000	14.244506
3202.000000	14.227343
3201.000000	14.208502
3200.000000	14.189474
3199.000000	14.168788
3198.000000	14.144283
3197.000000	14.116915
3196.000000	14.088674
3195.000000	14.058877
3194.000000	14.026187
3193.000000	13.992204
3192.000000	13.959239
3191.000000	13.926473
3190.000000	13.892156
3189.000000	13.857325
3188.000000	13.823553
3187.000000	13.789215
3186.000000	13.751919
3185.000000	13.712711
3184.000000	13.674094
3183.000000	13.635977
3182.000000	13.597322
3181.000000	13.559527
3180.000000	13.524254
3179.000000	13.489971
3178.000000	13.454410
3177.000000	13.418445
3176.000000	13.383904
3175.000000	13.349884
3174.000000	13.315043
3173.000000	13.281204
3172.000000	13.250820
3171.000000	13.223032
3170.000000	13.195837
3169.000000	13.169880
3168.000000	13.146477
3167.000000	13.124207
3166.000000	13.101374
3165.000000	13.079486
3164.000000	13.060681
3163.000000	13.044118
3162.000000	13.028415
3161.000000	13.015206
3160.000000	13.006367
3159.000000	13.000112
3158.000000	12.993557
3157.000000	12.986642
3156.000000	12.980299
3155.000000	12.973661
3154.000000	12.967105
3153.000000	12.965274
3152.000000	12.972507
3151.000000	12.987480
3150.000000	13.005884
3149.000000	13.025937
3148.000000	13.047675
3147.000000	13.069575
3146.000000	13.090375
3145.000000	13.112004
3144.000000	13.136635
3143.000000	13.163091
3142.000000	13.189763
3141.000000	13.218913
3140.000000	13.254142
3139.000000	13.295483
3138.000000	13.340665
3137.000000	13.388817
3136.000000	13.439447
3135.000000	13.490208
3134.000000	13.539395
3133.000000	13.589070
3132.000000	13.642274
3131.000000	13.699317
3130.000000	13.759619
3129.000000	13.824279
3128.000000	13.893562
3127.000000	13.964346
3126.000000	14.033522
3125.000000	14.101673
3124.000000	14.170374
3123.000000	14.239047
3122.000000	14.307777
3121.000000	14.380100
3120.000000	14.459156
3119.000000	14.543408
3118.000000	14.629826
3117.000000	14.718611
3116.000000	14.811271
3115.000000	14.906762
3114.000000	15.003048
3113.000000	15.100238
3112.000000	15.198811
3111.000000	15.297413
3110.000000	15.395789
3109.000000	15.497072
3108.000000	15.603700
3107.000000	15.713456
3106.000000	15.822796
3105.000000	15.931631
3104.000000	16.041538
3103.000000	16.152188
3102.000000	16.263174
3101.000000	16.376711
3100.000000	16.494984
3099.000000	16.616646
3098.000000	16.739173
3097.000000	16.862357
3096.000000	16.986474
3095.000000	17.109765
3094.000000	17.231080
3093.000000	17.352806
3092.000000	17.478065
3091.000000	17.606972
3090.000000	17.738228
3089.000000	17.871673
3088.000000	18.006526
3087.000000	18.140039
3086.000000	18.271081
3085.000000	18.402689
3084.000000	18.537946
3083.000000	18.675828
3082.000000	18.814110
3081.000000	18.953520
3080.000000	19.095900
3079.000000	19.240698
3078.000000	19.386504
3077.000000	19.533708
3076.000000	19.682525
3075.000000	19.830877
3074.000000	19.977239
3073.000000	20.123309
3072.000000	20.270929
3071.000000	20.418785
3070.000000	20.565134
3069.000000	20.711341
3068.000000	20.859590
3067.000000	21.009327
3066.000000	21.158957
3065.000000	21.309024
3064.000000	21.460718
3063.000000	21.613329
3062.000000	21.765884
3061.000000	21.919163
3060.000000	22.073456
3059.000000	22.226550
3058.000000	22.376628
3057.000000	22.525095
3056.000000	22.674002
3055.000000	22.822956
3054.000000	22.971187
3053.000000	23.120379
3052.000000	23.272523
3051.000000	23.426810
3050.000000	23.581105
3049.000000	23.734481
3048.000000	23.886101
3047.000000	24.034059
3046.000000	24.178125
3045.000000	24.321631
3044.000000	24.468114
3043.000000	24.617935
3042.000000	24.770092
3041.000000	24.924693
3040.000000	25.080986
3039.000000	25.235368
3038.000000	25.384555
3037.000000	25.529160
3036.000000	25.672100
3035.000000	25.815407
3034.000000	25.960536
3033.000000	26.109203
3032.000000	26.261116
3031.000000	26.412948
3030.000000	26.561981
3029.000000	26.708817
3028.000000	26.854608
3027.000000	26.998337
3026.000000	27.139412
3025.000000	27.280347
3024.000000	27.423836
3023.000000	27.569185
3022.000000	27.714160
3021.000000	27.858337
3020.000000	28.002015
3019.000000	28.143822
3018.000000	28.282315
3017.000000	28.418397
3016.000000	28.553931
3015.000000	28.689645
3014.000000	28.826455
3013.000000	28.966746
3012.000000	29.111740
3011.000000	29.259314
3010.000000	29.406448
3009.000000	29.552140
3008.000000	29.696026
3007.000000	29.836583
3006.000000	29.973207
3005.000000	30.108262
3004.000000	30.244628
3003.000000	30.382507
3002.000000	30.520489
3001.000000	30.657943
3000.000000	30.794530
2999.000000	30.929322
2998.000000	31.062428
2997.000000	31.195634
2996.000000	31.329647
2995.000000	31.462808
2994.000000	31.594476
2993.000000	31.727369
2992.000000	31.864111
2991.000000	32.003416
2990.000000	32.141981
2989.000000	32.278293
2988.000000	32.412336
2987.000000	32.543620
2986.000000	32.672100
2985.000000	32.799543
2984.000000	32.927685
2983.000000	33.056382
2982.000000	33.185490
2981.000000	33.316599
2980.000000	33.450590
2979.000000	33.585117
2978.000000	33.717012
2977.000000	33.845990
2976.000000	33.974053
2975.000000	34.102771
2974.000000	34.233162
2973.000000	34.366554
2972.000000	34.503247
2971.000000	34.641448
2970.000000	34.779458
2969.000000	34.917682
2968.000000	35.056879
2967.000000	35.196226
2966.000000	35.335082
2965.000000	35.474923
2964.000000	35.617322
2963.000000	35.761398
2962.000000	35.905211
2961.000000	36.047969
2960.000000	36.188804
2959.000000	36.325237
2958.000000	36.455000
2957.000000	36.578088
2956.000000	36.695262
2955.000000	36.806513
2954.000000	36.912979
2953.000000	37.018088
2952.000000	37.124435
2951.000000	37.231017
2950.000000	37.335874
2949.000000	37.439685
2948.000000	37.544770
2947.000000	37.652446
2946.000000	37.763575
2945.000000	37.879997
2944.000000	38.002703
2943.000000	38.129792
2942.000000	38.258368
2941.000000	38.387431
2940.000000	38.517236
2939.000000	38.647460
2938.000000	38.778263
2937.000000	38.911667
2936.000000	39.049708
2935.000000	39.192316
2934.000000	39.338812
2933.000000	39.489980
2932.000000	39.646585
2931.000000	39.807429
2930.000000	39.971331
2929.000000	40.139809
2928.000000	40.315834
2927.000000	40.501198
2926.000000	40.696976
2925.000000	40.904984
2924.000000	41.126151
2923.000000	41.358661
2922.000000	41.599179
2921.000000	41.844150
2920.000000	42.086630
2919.000000	42.312231
2918.000000	42.500772
2917.000000	42.632262
2916.000000	42.693626
2915.000000	42.684240
2914.000000	42.619169
2913.000000	42.525686
2912.000000	42.432313
2911.000000	42.358192
2910.000000	42.311029
2909.000000	42.291508
2908.000000	42.296731
2907.000000	42.321863
2906.000000	42.361929
2905.000000	42.413188
2904.000000	42.472435
2903.000000	42.535713
2902.000000	42.600362
2901.000000	42.665671
2900.000000	42.731750
2899.000000	42.798119
2898.000000	42.864131
2897.000000	42.929945
2896.000000	42.995373
2895.000000	43.059381
2894.000000	43.121855
2893.000000	43.184455
2892.000000	43.248109
2891.000000	43.311124
2890.000000	43.371320
2889.000000	43.428678
2888.000000	43.484322
2887.000000	43.538364
2886.000000	43.590553
2885.000000	43.641774
2884.000000	43.692913
2883.000000	43.743168
2882.000000	43.791129
2881.000000	43.836694
2880.000000	43.880507
2879.000000	43.922812
2878.000000	43.964569
2877.000000	44.008567
2876.000000	44.057348
2875.000000	44.110500
2874.000000	44.165595
2873.000000	44.221136
2872.000000	44.277410
2871.000000	44.335599
2870.000000	44.397699
2869.000000	44.466616
2868.000000	44.544679
2867.000000	44.632502
2866.000000	44.730317
2865.000000	44.839174
2864.000000	44.959523
2863.000000	45.089687
2862.000000	45.227178
2861.000000	45.370696
2860.000000	45.519788
2859.000000	45.674273
2858.000000	45.835908
2857.000000	46.009818
2856.000000	46.202900
2855.000000	46.421528
2854.000000	46.670431
2853.000000	46.949339
2852.000000	47.245048
2851.000000	47.525281
2850.000000	47.745810
2849.000000	47.870047
2848.000000	47.888191
2847.000000	47.822584
2846.000000	47.715643
2845.000000	47.609648
2844.000000	47.531557
2843.000000	47.489680
2842.000000	47.480512
2841.000000	47.497055
2840.000000	47.531716
2839.000000	47.576974
2838.000000	47.627749
2837.000000	47.682996
2836.000000	47.743717
2835.000000	47.809843
2834.000000	47.879849
2833.000000	47.952324
2832.000000	48.026338
2831.000000	48.100632
2830.000000	48.174106
2829.000000	48.246798
2828.000000	48.319349
2827.000000	48.392025
2826.000000	48.465114
2825.000000	48.539540
2824.000000	48.615870
2823.000000	48.693251
2822.000000	48.770352
2821.000000	48.846712
2820.000000	48.922196
2819.000000	48.996084
2818.000000	49.067992
2817.000000	49.139088
2816.000000	49.211134
2815.000000	49.284771
2814.000000	49.359739
2813.000000	49.436003
2812.000000	49.513396
2811.000000	49.590705
2810.000000	49.666446
2809.000000	49.740315
2808.000000	49.812986
2807.000000	49.885040
2806.000000	49.957071
2805.000000	50.030132
2804.000000	50.104849
2803.000000	50.180439
2802.000000	50.255579
2801.000000	50.329741
2800.000000	50.402815
2799.000000	50.474204
2798.000000	50.543550
2797.000000	50.611852
2796.000000	50.680646
2795.000000	50.750435
2794.000000	50.820864
2793.000000	50.891824
2792.000000	50.963211
2791.000000	51.034036
2790.000000	51.103029
2789.000000	51.169908
2788.000000	51.235198
2787.000000	51.299279
2786.000000	51.362637
2785.000000	51.426509
2784.000000	51.492012
2783.000000	51.558780
2782.000000	51.625349
2781.000000	51.690593
2780.000000	51.753952
2779.000000	51.814897
2778.000000	51.873415
2777.000000	51.930709
2776.000000	51.988390
2775.000000	52.047139
2774.000000	52.106896
2773.000000	52.167750
2772.000000	52.229483
2771.000000	52.290729
2770.000000	52.349883
2769.000000	52.406741
2768.000000	52.462387
2767.000000	52.517818
2766.000000	52.573655
2765.000000	52.630772
2764.000000	52.689897
2763.000000	52.750587
2762.000000	52.811506
2761.000000	52.871529
2760.000000	52.929829
2759.000000	52.985413
2758.000000	53.037850
2757.000000	53.088325
2756.000000	53.138939
2755.000000	53.190986
2754.000000	53.244595
2753.000000	53.299565
2752.000000	53.355342
2751.000000	53.410427
2750.000000	53.463059
2749.000000	53.512664
2748.000000	53.559964
2747.000000	53.605937
2746.000000	53.651617
2745.000000	53.698539
2744.000000	53.747996
2743.000000	53.799619
2742.000000	53.851482
2741.000000	53.901681
2740.000000	53.949223
2739.000000	53.993755
2738.000000	54.035597
2737.000000	54.076087
2736.000000	54.117010
2735.000000	54.159466
2734.000000	54.203681
2733.000000	54.249520
2732.000000	54.296326
2731.000000	54.342544
2730.000000	54.386503
2729.000000	54.427602
2728.000000	54.466216
2727.000000	54.502968
2726.000000	54.539003
2725.000000	54.576417
2724.000000	54.617016
2723.000000	54.660561
2722.000000	54.705038
2721.000000	54.748488
2720.000000	54.789753
2719.000000	54.827991
2718.000000	54.862947
2717.000000	54.895949
2716.000000	54.929472
2715.000000	54.965369
2714.000000	55.004021
2713.000000	55.044847
2712.000000	55.086511
2711.000000	55.126695
2710.000000	55.163025
2709.000000	55.194682
2708.000000	55.222590
2707.000000	55.248233
2706.000000	55.273024
2705.000000	55.298553
2704.000000	55.325969
2703.000000	55.354752
2702.000000	55.382927
2701.000000	55.408602
2700.000000	55.430760
2699.000000	55.448774
2698.000000	55.462440
2697.000000	55.472862
2696.000000	55.482259
2695.000000	55.492506
2694.000000	55.504257
2693.000000	55.517219
2692.000000	55.530399
2691.000000	55.542005
2690.000000	55.550249
2689.000000	55.554662
2688.000000	55.556151
2687.000000	55.555981
2686.000000	55.555359
2685.000000	55.555744
2684.000000	55.558330
2683.000000	55.562843
2682.000000	55.567640
2681.000000	55.571081
2680.000000	55.572264
2679.000000	55.570781
2678.000000	55.566935
2677.000000	55.562411
2676.000000	55.559774
2675.000000	55.560881
2674.000000	55.566172
2673.000000	55.575322
2672.000000	55.587631
2671.000000	55.602007
2670.000000	55.617603
2669.000000	55.634812
2668.000000	55.655284
2667.000000	55.680717
2666.000000	55.712306
2665.000000	55.751000
2664.000000	55.797078
2663.000000	55.849499
2662.000000	55.906041
2661.000000	55.964350
2660.000000	56.022640
2659.000000	56.079767
2658.000000	56.135832
2657.000000	56.192469
2656.000000	56.251651
2655.000000	56.314029
2654.000000	56.378701
2653.000000	56.444283
2652.000000	56.509339
2651.000000	56.572133
2650.000000	56.631238
2649.000000	56.686723
2648.000000	56.740024
2647.000000	56.792581
2646.000000	56.845248
2645.000000	56.898664
2644.000000	56.953074
2643.000000	57.007396
2642.000000	57.059417
2641.000000	57.107301
2640.000000	57.150379
2639.000000	57.188831
2638.000000	57.223554
2637.000000	57.256514
2636.000000	57.290151
2635.000000	57.325667
2634.000000	57.362380
2633.000000	57.398663
2632.000000	57.432880
2631.000000	57.463638
2630.000000	57.490143
2629.000000	57.512939
2628.000000	57.533639
2627.000000	57.553694
2626.000000	57.573939
2625.000000	57.594960
2624.000000	57.616950
2623.000000	57.638891
2622.000000	57.658801
2621.000000	57.675313
2620.000000	57.688469
2619.000000	57.699091
2618.000000	57.708204
2617.000000	57.717158
2616.000000	57.727424
2615.000000	57.739651
2614.000000	57.753277
2613.000000	57.766964
2612.000000	57.778764
2611.000000	57.786302
2610.000000	57.787882
2609.000000	57.783920
2608.000000	57.776653
2607.000000	57.768182
2606.000000	57.759489
2605.000000	57.750778
2604.000000	57.741564
2603.000000	57.730243
2602.000000	57.714497
2601.000000	57.692949
2600.000000	57.665929
2599.000000	57.634899
2598.000000	57.602167
2597.000000	57.571005
2596.000000	57.544801
2595.000000	57.525495
2594.000000	57.513278
2593.000000	57.507677
2592.000000	57.508375
2591.000000	57.514895
2590.000000	57.526916
2589.000000	57.545311
2588.000000	57.571765
2587.000000	57.607736
2586.000000	57.653787
2585.000000	57.709837
2584.000000	57.775066
2583.000000	57.846915
2582.000000	57.921732
2581.000000	57.996512
2580.000000	58.069885
2579.000000	58.141900
2578.000000	58.213532
2577.000000	58.286728
2576.000000	58.363561
2575.000000	58.444730
2574.000000	58.529313
2573.000000	58.615761
2572.000000	58.702568
2571.000000	58.788096
2570.000000	58.871038
2569.000000	58.951620
2568.000000	59.031623
2567.000000	59.113005
2566.000000	59.196923
2565.000000	59.283838
2564.000000	59.373308
2563.000000	59.463290
2562.000000	59.550687
2561.000000	59.633319
2560.000000	59.711034
2559.000000	59.784818
2558.000000	59.855889
2557.000000	59.925785
2556.000000	59.996149
2555.000000	60.067665
2554.000000	60.139483
2553.000000	60.210101
2552.000000	60.278051
2551.000000	60.341694
2550.000000	60.399749
2549.000000	60.452531
2548.000000	60.502132
2547.000000	60.550818
2546.000000	60.599809
2545.000000	60.649718
2544.000000	60.700521
2543.000000	60.750607
2542.000000	60.796936
2541.000000	60.836971
2540.000000	60.870195
2539.000000	60.897185
2538.000000	60.918619
2537.000000	60.935656
2536.000000	60.949725
2535.000000	60.961162
2534.000000	60.968164
2533.000000	60.968057
2532.000000	60.958962
2531.000000	60.939619
2530.000000	60.909549
2529.000000	60.870052
2528.000000	60.824601
2527.000000	60.777453
2526.000000	60.732044
2525.000000	60.691128
2524.000000	60.656981
2523.000000	60.630648
2522.000000	60.611810
2521.000000	60.600419
2520.000000	60.597490
2519.000000	60.604339
2518.000000	60.621977
2517.000000	60.651286
2516.000000	60.693302
2515.000000	60.747604
2514.000000	60.811625
2513.000000	60.882182
2512.000000	60.956517
2511.000000	61.032326
2510.000000	61.107514
2509.000000	61.181264
2508.000000	61.254703
2507.000000	61.329392
2506.000000	61.405950
2505.000000	61.484172
2504.000000	61.563336
2503.000000	61.641476
2502.000000	61.715480
2501.000000	61.783041
2500.000000	61.844252
2499.000000	61.900753
2498.000000	61.954133
2497.000000	62.006093
2496.000000	62.058707
2495.000000	62.113185
2494.000000	62.168616
2493.000000	62.222591
2492.000000	62.272894
2491.000000	62.318060
2490.000000	62.357562
2489.000000	62.392609
2488.000000	62.426014
2487.000000	62.460481
2486.000000	62.497110
2485.000000	62.535734
2484.000000	62.575593
2483.000000	62.614841
2482.000000	62.650811
2481.000000	62.681863
2480.000000	62.708534
2479.000000	62.732468
2478.000000	62.755171
2477.000000	62.778490
2476.000000	62.804665
2475.000000	62.834491
2474.000000	62.866242
2473.000000	62.897302
2472.000000	62.926050
2471.000000	62.951542
2470.000000	62.972891
2469.000000	62.990511
2468.000000	63.007067
2467.000000	63.025784
2466.000000	63.048224
2465.000000	63.074243
2464.000000	63.102849
2463.000000	63.131884
2462.000000	63.158099
2461.000000	63.179276
2460.000000	63.195963
2459.000000	63.210433
2458.000000	63.224850
2457.000000	63.241227
2456.000000	63.261634
2455.000000	63.286650
2454.000000	63.314221
2453.000000	63.341196
2452.000000	63.365478
2451.000000	63.386091
2450.000000	63.402550
2449.000000	63.415815
2448.000000	63.428955
2447.000000	63.445254
2446.000000	63.465877
2445.000000	63.490017
2444.000000	63.516190
2443.000000	63.542269
2442.000000	63.565465
2441.000000	63.584080
2440.000000	63.598986
2439.000000	63.612479
2438.000000	63.626461
2437.000000	63.642426
2436.000000	63.661797
2435.000000	63.684640
2434.000000	63.708701
2433.000000	63.730971
2432.000000	63.749698
2431.000000	63.764255
2430.000000	63.774534
2429.000000	63.782113
2428.000000	63.791036
2427.000000	63.805696
2426.000000	63.827981
2425.000000	63.856999
2424.000000	63.890282
2423.000000	63.924242
2422.000000	63.954869
2421.000000	63.979901
2420.000000	64.000220
2419.000000	64.018310
2418.000000	64.036162
2417.000000	64.055300
2416.000000	64.077249
2415.000000	64.102298
2414.000000	64.128663
2413.000000	64.154165
2412.000000	64.177943
2411.000000	64.199752
2410.000000	64.218993
2409.000000	64.235925
2408.000000	64.252706
2407.000000	64.271730
2406.000000	64.293589
2405.000000	64.317554
2404.000000	64.342787
2403.000000	64.367959
2402.000000	64.391108
2401.000000	64.411454
2400.000000	64.430474
2399.000000	64.450070
2398.000000	64.470814
2397.000000	64.492989
2396.000000	64.517650
2395.000000	64.545116
2394.000000	64.573718
2393.000000	64.601679
2392.000000	64.628969
2391.000000	64.656229
2390.000000	64.683505
2389.000000	64.711160
2388.000000	64.741196
2387.000000	64.775143
2386.000000	64.812463
2385.000000	64.852469
2384.000000	64.895280
2383.000000	64.941214
2382.000000	64.988964
2381.000000	65.037378
2380.000000	65.087464
2379.000000	65.139682
2378.000000	65.192879
2377.000000	65.246469
2376.000000	65.301752
2375.000000	65.359016
2374.000000	65.415842
2373.000000	65.470355
2372.000000	65.523984
2371.000000	65.578322
2370.000000	65.630971
2369.000000	65.680589
2368.000000	65.729434
2367.000000	65.779254
2366.000000	65.828422
2365.000000	65.876245
2364.000000	65.927515
2363.000000	65.981019
2362.000000	66.031633
2361.000000	66.081141
2360.000000	66.131918
2359.000000	66.188109
2358.000000	66.244786
2357.000000	66.296192
2356.000000	66.342428
2355.000000	66.380169
2354.000000	66.412737
2353.000000	66.446541
2352.000000	66.495935
2351.000000	66.564681
2350.000000	66.634540
2349.000000	66.692012
2348.000000	66.735491
2347.000000	66.785033
2346.000000	66.848665
2345.000000	66.914137
2344.000000	66.969435
2343.000000	67.008246
2342.000000	67.042229
2341.000000	67.075014
2340.000000	67.108029
2339.000000	67.142536
2338.000000	67.183861
2337.000000	67.235356
2336.000000	67.298461
2335.000000	67.368591
2334.000000	67.442209
2333.000000	67.511294
2332.000000	67.572595
2331.000000	67.627629
2330.000000	67.677220
2329.000000	67.729549
2328.000000	67.782215
2327.000000	67.838429
2326.000000	67.895459
2325.000000	67.951041
2324.000000	68.006081
2323.000000	68.056526
2322.000000	68.103847
2321.000000	68.144251
2320.000000	68.182451
2319.000000	68.221669
2318.000000	68.265559
2317.000000	68.313612
2316.000000	68.364707
2315.000000	68.418436
2314.000000	68.471778
2313.000000	68.522206
2312.000000	68.567812
2311.000000	68.610984
2310.000000	68.652716
2309.000000	68.694131
2308.000000	68.736745
2307.000000	68.783561
2306.000000	68.835668
2305.000000	68.890857
2304.000000	68.947051
2303.000000	69.002152
2302.000000	69.053863
2301.000000	69.100301
2300.000000	69.142681
2299.000000	69.185635
2298.000000	69.231581
2297.000000	69.281054
2296.000000	69.332874
2295.000000	69.386818
2294.000000	69.440175
2293.000000	69.489665
2292.000000	69.533722
2291.000000	69.573965
2290.000000	69.612393
2289.000000	69.650571
2288.000000	69.691036
2287.000000	69.736209
2286.000000	69.785923
2285.000000	69.837080
2284.000000	69.887252
2283.000000	69.934993
2282.000000	69.978731
2281.000000	70.017037
2280.000000	70.051710
2279.000000	70.086838
2278.000000	70.125379
2277.000000	70.167752
2276.000000	70.213548
2275.000000	70.261623
2274.000000	70.308321
2273.000000	70.349379
2272.000000	70.383508
2271.000000	70.412805
2270.000000	70.439688
2269.000000	70.466213
2268.000000	70.495653
2267.000000	70.530992
2266.000000	70.571210
2265.000000	70.611903
2264.000000	70.649091
2263.000000	70.681076
2262.000000	70.706713
2261.000000	70.725857
2260.000000	70.741731
2259.000000	70.759186
2258.000000	70.780926
2257.000000	70.806291
2256.000000	70.834125
2255.000000	70.862822
2254.000000	70.888609
2253.000000	70.907145
2252.000000	70.917594
2251.000000	70.922955
2250.000000	70.926424
2249.000000	70.929881
2248.000000	70.935573
2247.000000	70.945528
2246.000000	70.958187
2245.000000	70.969130
2244.000000	70.974790
2243.000000	70.973827
2242.000000	70.965565
2241.000000	70.950545
2240.000000	70.932392
2239.000000	70.916015
2238.000000	70.903565
2237.000000	70.894016
2236.000000	70.885911
2235.000000	70.877485
2234.000000	70.865099
2233.000000	70.845231
2232.000000	70.818348
2231.000000	70.788223
2230.000000	70.757799
2229.000000	70.728478
2228.000000	70.702415
2227.000000	70.681593
2226.000000	70.664447
2225.000000	70.646502
2224.000000	70.624670
2223.000000	70.598542
2222.000000	70.568213
2221.000000	70.534297
2220.000000	70.499970
2219.000000	70.469720
2218.000000	70.445513
2217.000000	70.426368
2216.000000	70.411051
2215.000000	70.398331
2214.000000	70.385186
2213.000000	70.368264
2212.000000	70.347536
2211.000000	70.325943
2210.000000	70.305808
2209.000000	70.288321
2208.000000	70.275648
2207.000000	70.269948
2206.000000	70.270024
2205.000000	70.271917
2204.000000	70.272918
2203.000000	70.272460
2202.000000	70.269827
2201.000000	70.264485
2200.000000	70.258692
2199.000000	70.256551
2198.000000	70.259997
2197.000000	70.268158
2196.000000	70.280047
2195.000000	70.294811
2194.000000	70.309662
2193.000000	70.320970
2192.000000	70.327936
2191.000000	70.332556
2190.000000	70.336359
2189.000000	70.340009
2188.000000	70.345619
2187.000000	70.355827
2186.000000	70.370192
2185.000000	70.385275
2184.000000	70.398215
2183.000000	70.407702
2182.000000	70.412137
2181.000000	70.410442
2180.000000	70.404839
2179.000000	70.399803
2178.000000	70.398001
2177.000000	70.399558
2176.000000	70.404410
2175.000000	70.412038
2174.000000	70.419349
2173.000000	70.422203
2172.000000	70.419423
2171.000000	70.412816
2170.000000	70.403937
2169.000000	70.394100
2168.000000	70.386716
2167.000000	70.385660
2166.000000	70.390992
2165.000000	70.399068
2164.000000	70.406613
2163.000000	70.411880
2162.000000	70.412793
2161.000000	70.407963
2160.000000	70.399804
2159.000000	70.393313
2158.000000	70.391537
2157.000000	70.394701
2156.000000	70.402726
2155.000000	70.414879
2154.000000	70.427255
2153.000000	70.434537
2152.000000	70.434929
2151.000000	70.430630
2150.000000	70.424078
2149.000000	70.417148
2148.000000	70.413245
2147.000000	70.415903
2146.000000	70.424797
2145.000000	70.435663
2144.000000	70.444456
2143.000000	70.449117
2142.000000	70.447873
2141.000000	70.439991
2140.000000	70.428604
2139.000000	70.419423
2138.000000	70.416033
2137.000000	70.418695
2136.000000	70.426710
2135.000000	70.438461
2134.000000	70.449550
2133.000000	70.454954
2132.000000	70.453773
2131.000000	70.449265
2130.000000	70.444696
2129.000000	70.442353
2128.000000	70.445408
2127.000000	70.456341
2126.000000	70.473126
2125.000000	70.490285
2124.000000	70.503906
2123.000000	70.513119
2122.000000	70.517800
2121.000000	70.518693
2120.000000	70.519744
2119.000000	70.526175
2118.000000	70.539668
2117.000000	70.558258
2116.000000	70.580219
2115.000000	70.604419
2114.000000	70.627591
2113.000000	70.645929
2112.000000	70.660107
2111.000000	70.675116
2110.000000	70.694990
2109.000000	70.721048
2108.000000	70.754405
2107.000000	70.795770
2106.000000	70.842092
2105.000000	70.887808
2104.000000	70.930247
2103.000000	70.970584
2102.000000	71.010605
2101.000000	71.051545
2100.000000	71.096716
2099.000000	71.149904
2098.000000	71.210403
2097.000000	71.274087
2096.000000	71.337953
2095.000000	71.400557
2094.000000	71.458931
2093.000000	71.510140
2092.000000	71.556405
2091.000000	71.604070
2090.000000	71.656800
2089.000000	71.713362
2088.000000	71.771626
2087.000000	71.829923
2086.000000	71.884319
2085.000000	71.929620
2084.000000	71.964671
2083.000000	71.992754
2082.000000	72.016852
2081.000000	72.038024
2080.000000	72.058549
2079.000000	72.081103
2078.000000	72.103744
2077.000000	72.121521
2076.000000	72.131302
2075.000000	72.133904
2074.000000	72.130336
2073.000000	72.120602
2072.000000	72.108751
2071.000000	72.101283
2070.000000	72.099922
2069.000000	72.099903
2068.000000	72.096943
2067.000000	72.091522
2066.000000	72.085328
2065.000000	72.078474
2064.000000	72.071868
2063.000000	72.068430
2062.000000	72.070312
2061.000000	72.077865
2060.000000	72.091538
2059.000000	72.111874
2058.000000	72.136779
2057.000000	72.162546
2056.000000	72.187748
2055.000000	72.214094
2054.000000	72.243038
2053.000000	72.274644
2052.000000	72.311104
2051.000000	72.356175
2050.000000	72.409473
2049.000000	72.466880
2048.000000	72.527225
2047.000000	72.592026
2046.000000	72.659772
2045.000000	72.726247
2044.000000	72.791409
2043.000000	72.860569
2042.000000	72.937776
2041.000000	73.022706
2040.000000	73.113854
2039.000000	73.210133
2038.000000	73.308734
2037.000000	73.406238
2036.000000	73.503174
2035.000000	73.603133
2034.000000	73.707485
2033.000000	73.815321
2032.000000	73.926423
2031.000000	74.041946
2030.000000	74.159289
2029.000000	74.273974
2028.000000	74.385214
2027.000000	74.495699
2026.000000	74.606932
2025.000000	74.717491
2024.000000	74.830235
2023.000000	74.949663
2022.000000	75.072747
2021.000000	75.189518
2020.000000	75.294230
2019.000000	75.390520
2018.000000	75.484850
2017.000000	75.581030
2016.000000	75.681033
2015.000000	75.785710
2014.000000	75.892758
2013.000000	75.998158
2012.000000	76.099594
2011.000000	76.196414
2010.000000	76.286368
2009.000000	76.368360
2008.000000	76.445629
2007.000000	76.522999
2006.000000	76.602986
2005.000000	76.683541
2004.000000	76.765718
2003.000000	76.849269
2002.000000	76.930410
2001.000000	77.004749
2000.000000	77.069542
1999.000000	77.130756
1998.000000	77.195804
1997.000000	77.264513
1996.000000	77.330356
1995.000000	77.389081
1994.000000	77.442676
1993.000000	77.496995
1992.000000	77.555849
1991.000000	77.615410
1990.000000	77.666861
1989.000000	77.708399
1988.000000	77.749321
1987.000000	77.797027
1986.000000	77.849091
1985.000000	77.900215
1984.000000	77.952718
1983.000000	78.008023
1982.000000	78.060790
1981.000000	78.105388
1980.000000	78.141953
1979.000000	78.176916
1978.000000	78.211774
1977.000000	78.244443
1976.000000	78.277650
1975.000000	78.317817
1974.000000	78.365697
1973.000000	78.416211
1972.000000	78.465577
1971.000000	78.510193
1970.000000	78.541910
1969.000000	78.556396
1968.000000	78.564502
1967.000000	78.583195
1966.000000	78.615130
1965.000000	78.650431
1964.000000	78.685943
1963.000000	78.725680
1962.000000	78.766331
1961.000000	78.798299
1960.000000	78.821046
1959.000000	78.842363
1958.000000	78.862660
1957.000000	78.877968
1956.000000	78.892151
1955.000000	78.915364
1954.000000	78.946600
1953.000000	78.976050
1952.000000	79.005141
1951.000000	79.037544
1950.000000	79.068842
1949.000000	79.095730
1948.000000	79.123834
1947.000000	79.155704
1946.000000	79.177319
1945.000000	79.175899
1944.000000	79.163741
1943.000000	79.166408
1942.000000	79.190499
1941.000000	79.217857
1940.000000	79.235676
1939.000000	79.250853
1938.000000	79.267128
1937.000000	79.276147
1936.000000	79.276095
1935.000000	79.280695
1934.000000	79.295868
1933.000000	79.313097
1932.000000	79.331777
1931.000000	79.350552
1930.000000	79.368405
1929.000000	79.382171
1928.000000	79.394653
1927.000000	79.409024
1926.000000	79.409508
1925.000000	79.394232
1924.000000	79.386851
1923.000000	79.407688
1922.000000	79.442394
1921.000000	79.455653
1920.000000	79.443952
1919.000000	79.434094
1918.000000	79.432468
1917.000000	79.422189
1916.000000	79.396136
1915.000000	79.375571
1914.000000	79.378754
1913.000000	79.393791
1912.000000	79.402115
1911.000000	79.397617
1910.000000	79.388019
1909.000000	79.370873
1908.000000	79.343116
1907.000000	79.316138
1906.000000	79.293326
1905.000000	79.276458
1904.000000	79.267650
1903.000000	79.266869
1902.000000	79.276566
1901.000000	79.291243
1900.000000	79.301945
1899.000000	79.305540
1898.000000	79.294112
1897.000000	79.267263
1896.000000	79.242731
1895.000000	79.242977
1894.000000	79.268293
1893.000000	79.293972
1892.000000	79.303053
1891.000000	79.302948
1890.000000	79.304463
1889.000000	79.305210
1888.000000	79.295422
1887.000000	79.276383
1886.000000	79.261500
1885.000000	79.259272
1884.000000	79.268291
1883.000000	79.282900
1882.000000	79.301646
1881.000000	79.318081
1880.000000	79.321814
1879.000000	79.316195
1878.000000	79.305393
1877.000000	79.288008
1876.000000	79.276786
1875.000000	79.292684
1874.000000	79.337368
1873.000000	79.387800
1872.000000	79.421779
1871.000000	79.437525
1870.000000	79.433951
1869.000000	79.401681
1868.000000	79.345598
1867.000000	79.284048
1866.000000	79.234788
1865.000000	79.207690
1864.000000	79.200265
1863.000000	79.202407
1862.000000	79.205088
1861.000000	79.201881
1860.000000	79.188184
1859.000000	79.164356
1858.000000	79.136729
1857.000000	79.108796
1856.000000	79.085625
1855.000000	79.069129
1854.000000	79.065970
1853.000000	79.074724
1852.000000	79.073052
1851.000000	79.063718
1850.000000	79.065695
1849.000000	79.081231
1848.000000	79.088444
1847.000000	79.071589
1846.000000	79.044804
1845.000000	79.023493
1844.000000	79.000875
1843.000000	78.958142
1842.000000	78.890003
1841.000000	78.813192
1840.000000	78.753750
1839.000000	78.712686
1838.000000	78.663528
1837.000000	78.605831
1836.000000	78.570088
1835.000000	78.573017
1834.000000	78.599385
1833.000000	78.612708
1832.000000	78.597672
1831.000000	78.574103
1830.000000	78.544017
1829.000000	78.482668
1828.000000	78.372469
1827.000000	78.244631
1826.000000	78.150338
1825.000000	78.097361
1824.000000	78.061902
1823.000000	78.025372
1822.000000	77.985688
1821.000000	77.937746
1820.000000	77.876244
1819.000000	77.807712
1818.000000	77.739410
1817.000000	77.688486
1816.000000	77.660647
1815.000000	77.643427
1814.000000	77.619496
1813.000000	77.573465
1812.000000	77.515558
1811.000000	77.454205
1810.000000	77.382174
1809.000000	77.304887
1808.000000	77.239694
1807.000000	77.197223
1806.000000	77.164448
1805.000000	77.126839
1804.000000	77.076773
1803.000000	77.019363
1802.000000	76.968056
1801.000000	76.919977
1800.000000	76.875509
1799.000000	76.834716
1798.000000	76.800247
1797.000000	76.783916
1796.000000	76.782482
1795.000000	76.778179
1794.000000	76.750533
1793.000000	76.675016
1792.000000	76.562798
1791.000000	76.452283
1790.000000	76.358239
1789.000000	76.273416
1788.000000	76.191612
1787.000000	76.118328
1786.000000	76.064630
1785.000000	76.047433
1784.000000	76.044062
1783.000000	76.014531
1782.000000	75.960169
1781.000000	75.889409
1780.000000	75.822618
1779.000000	75.773860
1778.000000	75.759000
1777.000000	75.793312
1776.000000	75.860108
1775.000000	75.932756
1774.000000	75.988828
1773.000000	75.973478
1772.000000	75.847429
1771.000000	75.639903
1770.000000	75.392732
1769.000000	75.175458
1768.000000	75.057300
1767.000000	75.030843
1766.000000	75.023607
1765.000000	74.982421
1764.000000	74.918812
1763.000000	74.867864
1762.000000	74.826166
1761.000000	74.757255
1760.000000	74.646023
1759.000000	74.501274
1758.000000	74.376508
1757.000000	74.311721
1756.000000	74.297087
1755.000000	74.296835
1754.000000	74.277339
1753.000000	74.230800
1752.000000	74.165633
1751.000000	74.078499
1750.000000	73.948034
1749.000000	73.790883
1748.000000	73.643805
1747.000000	73.532233
1746.000000	73.445688
1745.000000	73.359198
1744.000000	73.289305
1743.000000	73.246716
1742.000000	73.186827
1741.000000	73.082227
1740.000000	72.982036
1739.000000	72.930158
1738.000000	72.903828
1737.000000	72.854825
1736.000000	72.801550
1735.000000	72.749877
1734.000000	72.613760
1733.000000	72.339685
1732.000000	71.966623
1731.000000	71.598828
1730.000000	71.318777
1729.000000	71.116977
1728.000000	70.942903
1727.000000	70.783867
1726.000000	70.631967
1725.000000	70.460027
1724.000000	70.292729
1723.000000	70.170450
1722.000000	70.093823
1721.000000	70.032710
1720.000000	69.980249
1719.000000	69.910798
1718.000000	69.715695
1717.000000	69.356427
1716.000000	68.923684
1715.000000	68.518778
1714.000000	68.183950
1713.000000	67.899320
1712.000000	67.635942
1711.000000	67.394979
1710.000000	67.191325
1709.000000	67.000186
1708.000000	66.779819
1707.000000	66.537692
1706.000000	66.310482
1705.000000	66.129665
1704.000000	65.982875
1703.000000	65.825507
1702.000000	65.677709
1701.000000	65.534338
1700.000000	65.310037
1699.000000	64.983442
1698.000000	64.565090
1697.000000	64.107009
1696.000000	63.671016
1695.000000	63.238325
1694.000000	62.786600
1693.000000	62.343981
1692.000000	61.957964
1691.000000	61.626617
1690.000000	61.340697
1689.000000	61.126831
1688.000000	61.003360
1687.000000	60.930986
1686.000000	60.794010
1685.000000	60.423678
1684.000000	59.816052
1683.000000	59.190083
1682.000000	58.649055
1681.000000	58.193572
1680.000000	57.834673
1679.000000	57.551158
1678.000000	57.291269
1677.000000	57.007813
1676.000000	56.686831
1675.000000	56.349092
1674.000000	56.017079
1673.000000	55.671940
1672.000000	55.315326
1671.000000	54.942963
1670.000000	54.523118
1669.000000	54.067986
1668.000000	53.640233
1667.000000	53.289629
1666.000000	52.995801
1665.000000	52.701993
1664.000000	52.366528
1663.000000	51.977398
1662.000000	51.570512
1661.000000	51.172648
1660.000000	50.808743
1659.000000	50.529816
1658.000000	50.364753
1657.000000	50.290703
1656.000000	50.258712
1655.000000	50.230291
1654.000000	50.020390
1653.000000	49.532626
1652.000000	48.971715
1651.000000	48.463280
1650.000000	48.043461
1649.000000	47.718367
1648.000000	47.397504
1647.000000	47.020844
1646.000000	46.626549
1645.000000	46.245568
1644.000000	45.875805
1643.000000	45.539985
1642.000000	45.268019
1641.000000	45.051117
1640.000000	44.878964
1639.000000	44.751782
1638.000000	44.640948
1637.000000	44.460697
1636.000000	44.147953
1635.000000	43.786186
1634.000000	43.452081
1633.000000	43.151174
1632.000000	42.897291
1631.000000	42.699256
1630.000000	42.537019
1629.000000	42.379387
1628.000000	42.222366
1627.000000	42.086959
1626.000000	41.972814
1625.000000	41.843916
1624.000000	41.678039
1623.000000	41.503059
1622.000000	41.369674
1621.000000	41.291843
1620.000000	41.267398
1619.000000	41.295256
1618.000000	41.328787
1617.000000	41.283296
1616.000000	41.138002
1615.000000	40.964058
1614.000000	40.826956
1613.000000	40.746995
1612.000000	40.713050
1611.000000	40.706684
1610.000000	40.717922
1609.000000	40.737109
1608.000000	40.760628
1607.000000	40.796627
1606.000000	40.852350
1605.000000	40.909012
1604.000000	40.950647
1603.000000	40.991201
1602.000000	41.044051
1601.000000	41.103542
1600.000000	41.166261
1599.000000	41.246120
1598.000000	41.346723
1597.000000	41.447250
1596.000000	41.532738
1595.000000	41.611444
1594.000000	41.691748
1593.000000	41.764758
1592.000000	41.826559
1591.000000	41.892794
1590.000000	41.976720
1589.000000	42.068713
1588.000000	42.159166
1587.000000	42.252019
1586.000000	42.351214
1585.000000	42.446174
1584.000000	42.520888
1583.000000	42.592910
1582.000000	42.694554
1581.000000	42.833293
1580.000000	43.001362
1579.000000	43.202649
1578.000000	43.418289
1577.000000	43.573210
1576.000000	43.613118
1575.000000	43.575292
1574.000000	43.529609
1573.000000	43.516181
1572.000000	43.553985
1571.000000	43.627119
1570.000000	43.699050
1569.000000	43.750679
1568.000000	43.782105
1567.000000	43.818116
1566.000000	43.893587
1565.000000	44.026827
1564.000000	44.209158
1563.000000	44.449775
1562.000000	44.737315
1561.000000	45.061299
1560.000000	45.289704
1559.000000	45.328192
1558.000000	45.335130
1557.000000	45.313582
1556.000000	45.248326
1555.000000	45.247166
1554.000000	45.333371
1553.000000	45.430601
1552.000000	45.499190
1551.000000	45.599701
1550.000000	45.784185
1549.000000	46.037275
1548.000000	46.306176
1547.000000	46.585515
1546.000000	46.916410
1545.000000	47.307768
1544.000000	47.737333
1543.000000	48.191479
1542.000000	48.634247
1541.000000	48.981380
1540.000000	49.226035
1539.000000	49.445931
1538.000000	49.617522
1537.000000	49.733373
1536.000000	49.875243
1535.000000	50.108264
1534.000000	50.431527
1533.000000	50.780246
1532.000000	51.114298
1531.000000	51.442665
1530.000000	51.792462
1529.000000	52.179916
1528.000000	52.603533
1527.000000	53.073596
1526.000000	53.596583
1525.000000	54.123807
1524.000000	54.602601
1523.000000	55.040853
1522.000000	55.474052
1521.000000	55.898096
1520.000000	56.244515
1519.000000	56.498407
1518.000000	56.741252
1517.000000	57.041552
1516.000000	57.391193
1515.000000	57.739496
1514.000000	58.069182
1513.000000	58.410717
1512.000000	58.794462
1511.000000	59.224069
1510.000000	59.682922
1509.000000	60.162013
1508.000000	60.617977
1507.000000	61.040019
1506.000000	61.487925
1505.000000	61.832557
1504.000000	62.003100
1503.000000	62.164217
1502.000000	62.442708
1501.000000	62.843728
1500.000000	63.309290
1499.000000	63.796416
1498.000000	64.263629
1497.000000	64.682894
1496.000000	65.069353
1495.000000	65.419426
1494.000000	65.710913
1493.000000	65.952870
1492.000000	66.192379
1491.000000	66.458401
1490.000000	66.719773
1489.000000	66.938048
1488.000000	67.131964
1487.000000	67.325591
1486.000000	67.508773
1485.000000	67.652580
1484.000000	67.732129
1483.000000	67.769660
1482.000000	67.774865
1481.000000	67.728180
1480.000000	67.623128
1479.000000	67.477140
1478.000000	67.286515
1477.000000	67.029166
1476.000000	66.702734
1475.000000	66.268191
1474.000000	65.586652
1473.000000	64.504297
1472.000000	63.110198
1471.000000	61.641777
1470.000000	60.164833
1469.000000	58.614168
1468.000000	56.934759
1467.000000	55.037562
1466.000000	52.763152
1465.000000	50.055114
1464.000000	47.171450
1463.000000	44.454191
1462.000000	41.980285
1461.000000	39.673370
1460.000000	37.478176
1459.000000	35.303582
1458.000000	32.956215
1457.000000	30.514652
1456.000000	28.509810
1455.000000	27.225854
1454.000000	26.466945
1453.000000	26.035812
1452.000000	25.908213
1451.000000	26.100493
1450.000000	26.578851
1449.000000	27.328877
1448.000000	28.368422
1447.000000	29.628466
1446.000000	30.976726
1445.000000	32.348050
1444.000000	33.767558
1443.000000	35.251233
1442.000000	36.752474
1441.000000	38.211340
1440.000000	39.602826
1439.000000	40.960373
1438.000000	42.366561
1437.000000	43.879459
1436.000000	45.389557
1435.000000	46.690965
1434.000000	47.745494
1433.000000	48.680595
1432.000000	49.580344
1431.000000	50.415883
1430.000000	51.129053
1429.000000	51.715345
1428.000000	52.186978
1427.000000	52.530741
1426.000000	52.769388
1425.000000	52.955869
1424.000000	53.134064
1423.000000	53.321271
1422.000000	53.512978
1421.000000	53.713315
1420.000000	53.929720
1419.000000	54.165927
1418.000000	54.430053
1417.000000	54.748650
1416.000000	55.157968
1415.000000	55.667463
1414.000000	56.252659
1413.000000	56.887985
1412.000000	57.567278
1411.000000	58.287946
1410.000000	59.028418
1409.000000	59.763805
1408.000000	60.476004
1407.000000	61.139544
1406.000000	61.756503
1405.000000	62.357598
1404.000000	62.951967
1403.000000	63.505994
1402.000000	63.993721
1401.000000	64.443185
1400.000000	64.887142
1399.000000	65.314555
1398.000000	65.689037
1397.000000	65.999425
1396.000000	66.257683
1395.000000	66.475001
1394.000000	66.663519
1393.000000	66.817384
1392.000000	66.917337
1391.000000	66.947761
1390.000000	66.880404
1389.000000	66.645904
1388.000000	66.157564
1387.000000	65.429522
1386.000000	64.667097
1385.000000	64.156129
1384.000000	64.084806
1383.000000	64.464881
1382.000000	65.126747
1381.000000	65.817726
1380.000000	66.345963
1379.000000	66.652218
1378.000000	66.776381
1377.000000	66.776954
1376.000000	66.683302
1375.000000	66.519993
1374.000000	66.343457
1373.000000	66.202014
1372.000000	66.083592
1371.000000	65.946458
1370.000000	65.781318
1369.000000	65.598073
1368.000000	65.395823
1367.000000	65.167552
1366.000000	64.908011
1365.000000	64.609016
1364.000000	64.253843
1363.000000	63.848223
1362.000000	63.441158
1361.000000	63.076240
1360.000000	62.749764
1359.000000	62.446051
1358.000000	62.178066
1357.000000	61.972770
1356.000000	61.843949
1355.000000	61.798105
1354.000000	61.838237
1353.000000	61.946849
1352.000000	62.077229
1351.000000	62.168672
1350.000000	62.177772
1349.000000	62.069164
1348.000000	61.800719
1347.000000	61.341284
1346.000000	60.683996
1345.000000	59.835671
1344.000000	58.802159
1343.000000	57.587907
1342.000000	56.197685
1341.000000	54.632467
1340.000000	52.904510
1339.000000	51.064142
1338.000000	49.166357
1337.000000	47.217457
1336.000000	45.186791
1335.000000	43.058710
1334.000000	40.850959
1333.000000	38.594075
1332.000000	36.327895
1331.000000	34.114782
1330.000000	32.023168
1329.000000	30.094096
1328.000000	28.342575
1327.000000	26.773093
1326.000000	25.371781
1325.000000	24.100940
1324.000000	22.924529
1323.000000	21.834735
1322.000000	20.835318
1321.000000	19.923123
1320.000000	19.113265
1319.000000	18.455867
1318.000000	18.009584
1317.000000	17.807919
1316.000000	17.860734
1315.000000	18.169978
1314.000000	18.713539
1313.000000	19.440150
1312.000000	20.296172
1311.000000	21.242905
1310.000000	22.252016
1309.000000	23.296710
1308.000000	24.360488
1307.000000	25.439419
1306.000000	26.526237
1305.000000	27.604715
1304.000000	28.662223
1303.000000	29.696530
1302.000000	30.706610
1301.000000	31.687406
1300.000000	32.635395
1299.000000	33.550695
1298.000000	34.428570
1297.000000	35.257569
1296.000000	36.032860
1295.000000	36.767245
1294.000000	37.487662
1293.000000	38.225591
1292.000000	39.011298
1291.000000	39.868295
1290.000000	40.806505
1289.000000	41.820060
1288.000000	42.891967
1287.000000	43.999635
1286.000000	45.116792
1285.000000	46.215267
1284.000000	47.268653
1283.000000	48.256030
1282.000000	49.162682
1281.000000	49.979161
1280.000000	50.699113
1279.000000	51.323249
1278.000000	51.864571
1277.000000	52.343062
1276.000000	52.780300
1275.000000	53.199928
1274.000000	53.628728
1273.000000	54.091007
1272.000000	54.601478
1271.000000	55.166785
1270.000000	55.789503
1269.000000	56.464498
1268.000000	57.174609
1267.000000	57.899128
1266.000000	58.625171
1265.000000	59.345037
1264.000000	60.046210
1263.000000	60.713020
1262.000000	61.335624
1261.000000	61.908450
1260.000000	62.420468
1259.000000	62.858468
1258.000000	63.221134
1257.000000	63.515433
1256.000000	63.745281
1255.000000	63.913715
1254.000000	64.029050
1253.000000	64.099763
1252.000000	64.120616
1251.000000	64.077100
1250.000000	63.960611
1249.000000	63.767099
1248.000000	63.491700
1247.000000	63.132726
1246.000000	62.699739
1245.000000	62.208080
1244.000000	61.664656
1243.000000	61.070529
1242.000000	60.427491
1241.000000	59.735303
1240.000000	58.990521
1239.000000	58.194816
1238.000000	57.364340
1237.000000	56.523948
1236.000000	55.698084
1235.000000	54.910803
1234.000000	54.186000
1233.000000	53.538996
1232.000000	52.972690
1231.000000	52.484716
1230.000000	52.071780
1229.000000	51.731890
1228.000000	51.464484
1227.000000	51.273997
1226.000000	51.170807
1225.000000	51.161424
1224.000000	51.245376
1223.000000	51.415117
1222.000000	51.656434
1221.000000	51.950805
1220.000000	52.278022
1219.000000	52.626044
1218.000000	52.994672
1217.000000	53.389622
1216.000000	53.816788
1215.000000	54.279554
1214.000000	54.779689
1213.000000	55.313790
1212.000000	55.869286
1211.000000	56.428406
1210.000000	56.975896
1209.000000	57.502965
1208.000000	58.007026
1207.000000	58.493631
1206.000000	58.977243
1205.000000	59.473317
1204.000000	59.987834
1203.000000	60.516599
1202.000000	61.051295
1201.000000	61.580205
1200.000000	62.087530
1199.000000	62.561389
1198.000000	63.003918
1197.000000	63.428559
1196.000000	63.848297
1195.000000	64.272561
1194.000000	64.710330
1193.000000	65.164890
1192.000000	65.625865
1191.000000	66.074033
1190.000000	66.495742
1189.000000	66.886915
1188.000000	67.247405
1187.000000	67.583469
1186.000000	67.912950
1185.000000	68.256635
1184.000000	68.621273
1183.000000	68.995691
1182.000000	69.362049
1181.000000	69.703345
1180.000000	70.006630
1179.000000	70.271556
1178.000000	70.514105
1177.000000	70.753418
1176.000000	70.996821
1175.000000	71.244880
1174.000000	71.502853
1173.000000	71.773635
1172.000000	72.045268
1171.000000	72.298134
1170.000000	72.522820
1169.000000	72.720815
1168.000000	72.892672
1167.000000	73.040815
1166.000000	73.179513
1165.000000	73.327023
1164.000000	73.488580
1163.000000	73.656636
1162.000000	73.824489
1161.000000	73.986471
1160.000000	74.129676
1159.000000	74.242372
1158.000000	74.329560
1157.000000	74.408571
1156.000000	74.491848
1155.000000	74.585142
1154.000000	74.696036
1153.000000	74.827145
1152.000000	74.963964
1151.000000	75.084157
1150.000000	75.178428
1149.000000	75.251465
1148.000000	75.307635
1147.000000	75.351584
1146.000000	75.398586
1145.000000	75.466760
1144.000000	75.559006
1143.000000	75.664157
1142.000000	75.772361
1141.000000	75.876294
1140.000000	75.962668
1139.000000	76.020299
1138.000000	76.055942
1137.000000	76.088951
1136.000000	76.132305
1135.000000	76.189944
1134.000000	76.266135
1133.000000	76.360507
1132.000000	76.456446
1131.000000	76.530332
1130.000000	76.571898
1129.000000	76.585088
1128.000000	76.574223
1127.000000	76.544790
1126.000000	76.513462
1125.000000	76.498315
1124.000000	76.499812
1123.000000	76.502423
1122.000000	76.491108
1121.000000	76.454165
1120.000000	76.374803
1119.000000	76.240252
1118.000000	76.058226
1117.000000	75.849920
1116.000000	75.629787
1115.000000	75.400641
1114.000000	75.163083
1113.000000	74.911905
1112.000000	74.624700
1111.000000	74.273570
1110.000000	73.845491
1109.000000	73.344196
1108.000000	72.778079
1107.000000	72.156642
1106.000000	71.496048
1105.000000	70.806386
1104.000000	70.076015
1103.000000	69.279156
1102.000000	68.389990
1101.000000	67.390305
1100.000000	66.265438
1099.000000	65.008914
1098.000000	63.633677
1097.000000	62.156503
1096.000000	60.585963
1095.000000	58.920214
1094.000000	57.151220
1093.000000	55.267374
1092.000000	53.252129
1091.000000	51.099552
1090.000000	48.823163
1089.000000	46.452133
1088.000000	44.028316
1087.000000	41.601306
1086.000000	39.218385
1085.000000	36.915608
1084.000000	34.722045
1083.000000	32.660536
1082.000000	30.744737
1081.000000	28.977462
1080.000000	27.361937
1079.000000	25.907995
1078.000000	24.612554
1077.000000	23.461472
1076.000000	22.442388
1075.000000	21.546180
1074.000000	20.758657
1073.000000	20.055902
1072.000000	19.423494
1071.000000	18.858647
1070.000000	18.354901
1069.000000	17.905295
1068.000000	17.512799
1067.000000	17.188805
1066.000000	16.935332
1065.000000	16.743362
1064.000000	16.612096
1063.000000	16.546250
1062.000000	16.541517
1061.000000	16.587160
1060.000000	16.681652
1059.000000	16.833801
1058.000000	17.043727
1057.000000	17.303585
1056.000000	17.613715
1055.000000	17.979320
1054.000000	18.396424
1053.000000	18.852293
1052.000000	19.342441
1051.000000	19.872108
1050.000000	20.439778
1049.000000	21.039493
1048.000000	21.673421
1047.000000	22.349480
1046.000000	23.068378
1045.000000	23.823492
1044.000000	24.613672
1043.000000	25.440345
1042.000000	26.297031
1041.000000	27.174643
1040.000000	28.072442
1039.000000	28.997002
1038.000000	29.950340
1037.000000	30.928427
1036.000000	31.928708
1035.000000	32.947743
1034.000000	33.976054
1033.000000	35.002484
1032.000000	36.022862
1031.000000	37.039370
1030.000000	38.053863
1029.000000	39.067141
1028.000000	40.081065
1027.000000	41.095947
1026.000000	42.106230
1025.000000	43.103015
1024.000000	44.078521
1023.000000	45.027825
1022.000000	45.950149
1021.000000	46.849172
1020.000000	47.731996
1019.000000	48.605021
1018.000000	49.470765
1017.000000	50.327437
1016.000000	51.167534
1015.000000	51.980722
1014.000000	52.759798
1013.000000	53.503993
1012.000000	54.217997
1011.000000	54.909472
1010.000000	55.589015
1009.000000	56.266011
1008.000000	56.941165
1007.000000	57.606917
1006.000000	58.253726
1005.000000	58.874360
1004.000000	59.463321
1003.000000	60.018968
1002.000000	60.549017
1001.000000	61.066976
1000.000000	61.582744
999.000000	62.099590
998.000000	62.617202
997.000000	63.131616
996.000000	63.631438
995.000000	64.103528
994.000000	64.544548
993.000000	64.960930
992.000000	65.360292
991.000000	65.749025
990.000000	66.136383
989.000000	66.530992
988.000000	66.931047
987.000000	67.326489
986.000000	67.708987
985.000000	68.073717
984.000000	68.414736
983.000000	68.728607
982.000000	69.023299
981.000000	69.313351
980.000000	69.606379
979.000000	69.902647
978.000000	70.203549
977.000000	70.510084
976.000000	70.813822
975.000000	71.100920
974.000000	71.366442
973.000000	71.614597
972.000000	71.848218
971.000000	72.068767
970.000000	72.284909
969.000000	72.508844
968.000000	72.742995
967.000000	72.980455
966.000000	73.216374
965.000000	73.447733
964.000000	73.664990
963.000000	73.856881
962.000000	74.024522
961.000000	74.180013
960.000000	74.331821
959.000000	74.483586
958.000000	74.642940
957.000000	74.817275
956.000000	75.000282
955.000000	75.174854
954.000000	75.330435
953.000000	75.466454
952.000000	75.582460
951.000000	75.679151
950.000000	75.768097
949.000000	75.866525
948.000000	75.980868
947.000000	76.105464
946.000000	76.235331
945.000000	76.366534
944.000000	76.487096
943.000000	76.582615
942.000000	76.652778
941.000000	76.710779
940.000000	76.767159
939.000000	76.826493
938.000000	76.895846
937.000000	76.980960
936.000000	77.073957
935.000000	77.157551
934.000000	77.222141
933.000000	77.268221
932.000000	77.295184
931.000000	77.302895
930.000000	77.301742
929.000000	77.306572
928.000000	77.319907
927.000000	77.332592
926.000000	77.339456
925.000000	77.339991
924.000000	77.327510
923.000000	77.293015
922.000000	77.239534
921.000000	77.179313
920.000000	77.117057
919.000000	77.048328
918.000000	76.971866
917.000000	76.888595
916.000000	76.791759
915.000000	76.672042
914.000000	76.532310
913.000000	76.384031
912.000000	76.229363
911.000000	76.061285
910.000000	75.877335
909.000000	75.679136
908.000000	75.460613
907.000000	75.211044
906.000000	74.931132
905.000000	74.632071
904.000000	74.319654
903.000000	73.992583
902.000000	73.651762
901.000000	73.298188
900.000000	72.921355
899.000000	72.503235
898.000000	72.036706
897.000000	71.526192
896.000000	70.976618
895.000000	70.392679
894.000000	69.785072
893.000000	69.164269
892.000000	68.524884
891.000000	67.848859
890.000000	67.122347
889.000000	66.339115
888.000000	65.494168
887.000000	64.585139
886.000000	63.621713
885.000000	62.621778
884.000000	61.594859
883.000000	60.539167
882.000000	59.448851
881.000000	58.316932
880.000000	57.133445
879.000000	55.889106
878.000000	54.585353
877.000000	53.233700
876.000000	51.847700
875.000000	50.439741
874.000000	49.020606
873.000000	47.597236
872.000000	46.169418
871.000000	44.732756
870.000000	43.285116
869.000000	41.828966
868.000000	40.370349
867.000000	38.917647
866.000000	37.480915
865.000000	36.070092
864.000000	34.693569
863.000000	33.355595
862.000000	32.055663
861.000000	30.793370
860.000000	29.571704
859.000000	28.398886
858.000000	27.287551
857.000000	26.258224
856.000000	25.343274
855.000000	24.574247
854.000000	23.971350
853.000000	23.538488
852.000000	23.262979
851.000000	23.116378
850.000000	23.054708
849.000000	23.035868
848.000000	23.032883
847.000000	23.032942
846.000000	23.034108
845.000000	23.044164
844.000000	23.079707
843.000000	23.155958
842.000000	23.279773
841.000000	23.456182
840.000000	23.691540
839.000000	23.987986
838.000000	24.340261
837.000000	24.742293
836.000000	25.193106
835.000000	25.689158
834.000000	26.220386
833.000000	26.778046
832.000000	27.361465
831.000000	27.976482
830.000000	28.630153
829.000000	29.329505
828.000000	30.078003
827.000000	30.870367
826.000000	31.697868
825.000000	32.556784
824.000000	33.446466
823.000000	34.360689
822.000000	35.287960
821.000000	36.218235
820.000000	37.140982
819.000000	38.041956
818.000000	38.910788
817.000000	39.748872
816.000000	40.561749
815.000000	41.348682
814.000000	42.105986
813.000000	42.834085
812.000000	43.535005
811.000000	44.207889
810.000000	44.856252
809.000000	45.494001
808.000000	46.136621
807.000000	46.791958
806.000000	47.463263
805.000000	48.152485
804.000000	48.852760
803.000000	49.545842
802.000000	50.216262
801.000000	50.862227
800.000000	51.489239
799.000000	52.103238
798.000000	52.714883
797.000000	53.338121
796.000000	53.975037
795.000000	54.610613
794.000000	55.228414
793.000000	55.821318
792.000000	56.384655
791.000000	56.913402
790.000000	57.413823
789.000000	57.905550
788.000000	58.404283
787.000000	58.911817
786.000000	59.424503
785.000000	59.936760
784.000000	60.432288
783.000000	60.887435
782.000000	61.293047
781.000000	61.662863
780.000000	62.016948
779.000000	62.369775
778.000000	62.735524
777.000000	63.126572
776.000000	63.537650
775.000000	63.944395
774.000000	64.325039
773.000000	64.672900
772.000000	64.987507
771.000000	65.271618
770.000000	65.542381
769.000000	65.827758
768.000000	66.142157
767.000000	66.476812
766.000000	66.816454
765.000000	67.148729
764.000000	67.454995
763.000000	67.713328
762.000000	67.922007
761.000000	68.105121
760.000000	68.287970
759.000000	68.481391
758.000000	68.692408
757.000000	68.928611
756.000000	69.182483
755.000000	69.428180
754.000000	69.644384
753.000000	69.827557
752.000000	69.979652
751.000000	70.102032
750.000000	70.208011
749.000000	70.322219
748.000000	70.456787
747.000000	70.601734
746.000000	70.743677
745.000000	70.876517
744.000000	70.989174
743.000000	71.064437
742.000000	71.100544
741.000000	71.117603
740.000000	71.135426
739.000000	71.161882
738.000000	71.206844
737.000000	71.284857
736.000000	71.394172
735.000000	71.512382
734.000000	71.623106
733.000000	71.729307
732.000000	71.834662
731.000000	71.934069
730.000000	72.032478
729.000000	72.150846
728.000000	72.304147
727.000000	72.490111
726.000000	72.703426
725.000000	72.941824
724.000000	73.191121
723.000000	73.426534
722.000000	73.638366
721.000000	73.837833
720.000000	74.032100
719.000000	74.217376
718.000000	74.402906
717.000000	74.613566
716.000000	74.855458
715.000000	75.101627
714.000000	75.323177
713.000000	75.513210
712.000000	75.673776
711.000000	75.806729
710.000000	75.931206
709.000000	76.082883
708.000000	76.279765
707.000000	76.507038
706.000000	76.741452
705.000000	76.969063
704.000000	77.171879
703.000000	77.324603
702.000000	77.425183
701.000000	77.506939
700.000000	77.605182
699.000000	77.735211
698.000000	77.905052
697.000000	78.119186
696.000000	78.353786
695.000000	78.555648
694.000000	78.690931
693.000000	78.771671
692.000000	78.822880
691.000000	78.860889
690.000000	78.914383
689.000000	79.029050
688.000000	79.219572
687.000000	79.440914
686.000000	79.637781
685.000000	79.788275
684.000000	79.882084
683.000000	79.906427
682.000000	79.883959
681.000000	79.883067
680.000000	79.956059
679.000000	80.096864
678.000000	80.280444
677.000000	80.485831
676.000000	80.667311
675.000000	80.773481
674.000000	80.796828
673.000000	80.787016
672.000000	80.813331
671.000000	80.929223
670.000000	81.168279
669.000000	81.519583
668.000000	81.844904
667.000000	81.983580
666.000000	81.954756
665.000000	81.843496
664.000000	81.708567
663.000000	81.584552
662.000000	81.507851
661.000000	81.517950
660.000000	81.629123
659.000000	81.820372
658.000000	82.046111
657.000000	82.243772
656.000000	82.353020
655.000000	82.358396
654.000000	82.289183
653.000000	82.193862
652.000000	82.131927
651.000000	82.160475
650.000000	82.299632
649.000000	82.511406
648.000000	82.727058
647.000000	82.885707
646.000000	82.948844
645.000000	82.908571
644.000000	82.796434
643.000000	82.678637
642.000000	82.628311
641.000000	82.685711
640.000000	82.842057
639.000000	83.051298
638.000000	83.246224
637.000000	83.360366
636.000000	83.359216
635.000000	83.259338
634.000000	83.119081
633.000000	83.006680
632.000000	82.971682
631.000000	83.035483
630.000000	83.186742
629.000000	83.377609
628.000000	83.538182
627.000000	83.610934
626.000000	83.580620
625.000000	83.479416
624.000000	83.364951
623.000000	83.296879
622.000000	83.319775
621.000000	83.443920
620.000000	83.633348
619.000000	83.818843
618.000000	83.933442
617.000000	83.944641
616.000000	83.862569
615.000000	83.732388
614.000000	83.618296
613.000000	83.576826
612.000000	83.630027
611.000000	83.759063
610.000000	83.919890
609.000000	84.059252
608.000000	84.126598
607.000000	84.095117
606.000000	83.982613
605.000000	83.845114
604.000000	83.739925
603.000000	83.696848
602.000000	83.716061
601.000000	83.770297
600.000000	83.803379
599.000000	83.749959
598.000000	83.574553
597.000000	83.291997
596.000000	82.957048
595.000000	82.649221
594.000000	82.456240
593.000000	82.438847
592.000000	82.596502
591.000000	82.868001
590.000000	83.167035
589.000000	83.420030
588.000000	83.582099
587.000000	83.647405
586.000000	83.657298
585.000000	83.680079
584.000000	83.763995
583.000000	83.913618
582.000000	84.104627
581.000000	84.300733
580.000000	84.455924
579.000000	84.526280
578.000000	84.499588
577.000000	84.407610
576.000000	84.305940
575.000000	84.246148
574.000000	84.257726
573.000000	84.338553
572.000000	84.453094
571.000000	84.546126
570.000000	84.571438
569.000000	84.510817
568.000000	84.373697
567.000000	84.195194
566.000000	84.032797
565.000000	83.942012
564.000000	83.944015
563.000000	84.019973
562.000000	84.127474
561.000000	84.216364
560.000000	84.239397
559.000000	84.172671
558.000000	84.037203
557.000000	83.889528
556.000000	83.784634
555.000000	83.753113
554.000000	83.803632
553.000000	83.921906
552.000000	84.063705
551.000000	84.168242
550.000000	84.194352
549.000000	84.140867
548.000000	84.035606
547.000000	83.923036
546.000000	83.859903
545.000000	83.891251
544.000000	84.017711
543.000000	84.193680
542.000000	84.356972
541.000000	84.454912
540.000000	84.452645
539.000000	84.346273
538.000000	84.179670
537.000000	84.030673
536.000000	83.968284
535.000000	84.023960
534.000000	84.189496
533.000000	84.422957
532.000000	84.650694
531.000000	84.792997
530.000000	84.812984
529.000000	84.733280
528.000000	84.607684
527.000000	84.501007
526.000000	84.482993
525.000000	84.591441
524.000000	84.790038
523.000000	84.984162
522.000000	85.088573
521.000000	85.067257
520.000000	84.922626
519.000000	84.685143
518.000000	84.420825
517.000000	84.214284
516.000000	84.113532
515.000000	84.097430
514.000000	84.100473
513.000000	84.048687
512.000000	83.875329
511.000000	83.544314
510.000000	83.083411
509.000000	82.570191
508.000000	82.073021
507.000000	81.631083
506.000000	81.267999
505.000000	80.979628
504.000000	80.713851
503.000000	80.399146
502.000000	80.009157
501.000000	79.580238
500.000000	79.164609
499.000000	78.808029
498.000000	78.577781
497.000000	78.547547
496.000000	78.731861
495.000000	79.060920
494.000000	79.431499
493.000000	79.763267
492.000000	80.009901
491.000000	80.170067
490.000000	80.299240
489.000000	80.483082
488.000000	80.778986
487.000000	81.192573
486.000000	81.693443
485.000000	82.215399
484.000000	82.652446
483.000000	82.912223
482.000000	82.995289
481.000000	82.985972
480.000000	82.970474
479.000000	82.996134
478.000000	83.089785
477.000000	83.265439
476.000000	83.493445
475.000000	83.695571
474.000000	83.802080
473.000000	83.802102
472.000000	83.744989
471.000000	83.711419
470.000000	83.770897
469.000000	83.962133
468.000000	84.277865
467.000000	84.650798
466.000000	84.978912
465.000000	85.185775
464.000000	85.242492
463.000000	85.170172
462.000000	85.057647
461.000000	85.023848
460.000000	85.131795
459.000000	85.355672
458.000000	85.623268
457.000000	85.870661
456.000000	86.036452
455.000000	86.057757
454.000000	85.930951
453.000000	85.743978
452.000000	85.625273
451.000000	85.649613
450.000000	85.805447
449.000000	86.045937
448.000000	86.307014
447.000000	86.503212
446.000000	86.575391
445.000000	86.545202
444.000000	86.474856
443.000000	86.412022
442.000000	86.409130
441.000000	86.531611
440.000000	86.787795
439.000000	87.086825
438.000000	87.315048
437.000000	87.424833
436.000000	87.421685
435.000000	87.320140
434.000000	87.170239
433.000000	87.077806
432.000000	87.128339
431.000000	87.311118
430.000000	87.556836
429.000000	87.804637
428.000000	87.979557
427.000000	87.984925
426.000000	87.794608
425.000000	87.508797
424.000000	87.268590
423.000000	87.167570
422.000000	87.238634
421.000000	87.454782
420.000000	87.690248
419.000000	87.779291
418.000000	87.715063
417.000000	87.616685
416.000000	87.518556
415.000000	87.379991
414.000000	87.215040
413.000000	87.140554
412.000000	87.236085
411.000000	87.439394
410.000000	87.663761
409.000000	87.887073
408.000000	88.052079
407.000000	88.029893
406.000000	87.800439
405.000000	87.533395
404.000000	87.389035
403.000000	87.382720
402.000000	87.501711
401.000000	87.809943
400.000000	88.220581
