PE IR       SUBTECH     SPECTRUM    ASCII       PEDS        4.00        
   -1
23ms084.asc
24/09/05
16:10:30.00
24/09/05
16:10:30.00
Administrator
Sample 1105 By Administrator Date Thursday, September 05 2024
400.000000
#HDR
-1
-1
#GR
cm-1
%T
1.0
0.0
4000.000000
-1.000000
3601
8
69.291910
4.852783
#DATA
4000.000000	51.933751
3999.000000	51.981991
3998.000000	52.029754
3997.000000	52.076920
3996.000000	52.122728
3995.000000	52.166457
3994.000000	52.208969
3993.000000	52.252690
3992.000000	52.299445
3991.000000	52.348795
3990.000000	52.398912
3989.000000	52.448692
3988.000000	52.498327
3987.000000	52.548016
3986.000000	52.597208
3985.000000	52.645287
3984.000000	52.692140
3983.000000	52.737648
3982.000000	52.781098
3981.000000	52.821757
3980.000000	52.860185
3979.000000	52.898605
3978.000000	52.939660
3977.000000	52.984580
3976.000000	53.032472
3975.000000	53.081021
3974.000000	53.127993
3973.000000	53.172760
3972.000000	53.216684
3971.000000	53.261572
3970.000000	53.307718
3969.000000	53.353567
3968.000000	53.397099
3967.000000	53.437613
3966.000000	53.476198
3965.000000	53.515198
3964.000000	53.556629
3963.000000	53.600520
3962.000000	53.644874
3961.000000	53.687784
3960.000000	53.729496
3959.000000	53.771609
3958.000000	53.814778
3957.000000	53.858225
3956.000000	53.900957
3955.000000	53.942712
3954.000000	53.983389
3953.000000	54.023473
3952.000000	54.064501
3951.000000	54.108474
3950.000000	54.155636
3949.000000	54.202313
3948.000000	54.243214
3947.000000	54.277707
3946.000000	54.312795
3945.000000	54.356936
3944.000000	54.411078
3943.000000	54.466733
3942.000000	54.515493
3941.000000	54.559188
3940.000000	54.605644
3939.000000	54.655947
3938.000000	54.702769
3937.000000	54.740941
3936.000000	54.775167
3935.000000	54.815965
3934.000000	54.868397
3933.000000	54.927769
3932.000000	54.984432
3931.000000	55.031480
3930.000000	55.068309
3929.000000	55.099513
3928.000000	55.134550
3927.000000	55.182549
3926.000000	55.242437
3925.000000	55.301186
3924.000000	55.347556
3923.000000	55.385426
3922.000000	55.424737
3921.000000	55.467685
3920.000000	55.512754
3919.000000	55.562959
3918.000000	55.620106
3917.000000	55.676619
3916.000000	55.723085
3915.000000	55.761281
3914.000000	55.800926
3913.000000	55.846226
3912.000000	55.892766
3911.000000	55.934623
3910.000000	55.968765
3909.000000	55.996277
3908.000000	56.021222
3907.000000	56.051966
3906.000000	56.094805
3905.000000	56.146954
3904.000000	56.197344
3903.000000	56.243623
3902.000000	56.299221
3901.000000	56.371297
3900.000000	56.444297
3899.000000	56.497132
3898.000000	56.529725
3897.000000	56.558600
3896.000000	56.593535
3895.000000	56.634293
3894.000000	56.686311
3893.000000	56.756894
3892.000000	56.830702
3891.000000	56.873604
3890.000000	56.880115
3889.000000	56.891095
3888.000000	56.941324
3887.000000	57.025895
3886.000000	57.104176
3885.000000	57.139533
3884.000000	57.152299
3883.000000	57.194791
3882.000000	57.277558
3881.000000	57.364221
3880.000000	57.415340
3879.000000	57.431188
3878.000000	57.453022
3877.000000	57.508954
3876.000000	57.583835
3875.000000	57.641195
3874.000000	57.658990
3873.000000	57.661399
3872.000000	57.699057
3871.000000	57.781102
3870.000000	57.853057
3869.000000	57.871886
3868.000000	57.877454
3867.000000	57.929604
3866.000000	58.020319
3865.000000	58.104515
3864.000000	58.160460
3863.000000	58.203291
3862.000000	58.255288
3861.000000	58.313470
3860.000000	58.357190
3859.000000	58.369876
3858.000000	58.342517
3857.000000	58.288196
3856.000000	58.254728
3855.000000	58.305219
3854.000000	58.426319
3853.000000	58.507114
3852.000000	58.527662
3851.000000	58.597931
3850.000000	58.736016
3849.000000	58.866396
3848.000000	58.954573
3847.000000	59.016655
3846.000000	59.075901
3845.000000	59.138290
3844.000000	59.193475
3843.000000	59.230703
3842.000000	59.254837
3841.000000	59.283921
3840.000000	59.329212
3839.000000	59.385053
3838.000000	59.434552
3837.000000	59.471899
3836.000000	59.511588
3835.000000	59.572743
3834.000000	59.655674
3833.000000	59.743407
3832.000000	59.815817
3831.000000	59.867148
3830.000000	59.914919
3829.000000	59.980449
3828.000000	60.059515
3827.000000	60.121934
3826.000000	60.143619
3825.000000	60.141509
3824.000000	60.164016
3823.000000	60.243848
3822.000000	60.353077
3821.000000	60.411896
3820.000000	60.397016
3819.000000	60.395490
3818.000000	60.470492
3817.000000	60.586152
3816.000000	60.671514
3815.000000	60.701978
3814.000000	60.734032
3813.000000	60.812481
3812.000000	60.900271
3811.000000	60.952459
3810.000000	60.982628
3809.000000	61.032616
3808.000000	61.109421
3807.000000	61.166509
3806.000000	61.173657
3805.000000	61.177787
3804.000000	61.237394
3803.000000	61.349801
3802.000000	61.458282
3801.000000	61.502438
3800.000000	61.509134
3799.000000	61.569292
3798.000000	61.692598
3797.000000	61.811469
3796.000000	61.882028
3795.000000	61.917922
3794.000000	61.960185
3793.000000	62.023474
3792.000000	62.091607
3791.000000	62.150379
3790.000000	62.202947
3789.000000	62.257044
3788.000000	62.317242
3787.000000	62.385590
3786.000000	62.458557
3785.000000	62.523615
3784.000000	62.572776
3783.000000	62.618207
3782.000000	62.681335
3781.000000	62.765068
3780.000000	62.846676
3779.000000	62.902691
3778.000000	62.939099
3777.000000	62.983241
3776.000000	63.042505
3775.000000	63.098891
3774.000000	63.141393
3773.000000	63.184855
3772.000000	63.249410
3771.000000	63.330845
3770.000000	63.401820
3769.000000	63.451712
3768.000000	63.507720
3767.000000	63.593011
3766.000000	63.687725
3765.000000	63.756267
3764.000000	63.795478
3763.000000	63.838051
3762.000000	63.905858
3761.000000	63.986038
3760.000000	64.057005
3759.000000	64.113756
3758.000000	64.161946
3757.000000	64.200579
3756.000000	64.222687
3755.000000	64.233442
3754.000000	64.249644
3753.000000	64.290502
3752.000000	64.364189
3751.000000	64.450652
3750.000000	64.511240
3749.000000	64.533128
3748.000000	64.546886
3747.000000	64.592921
3746.000000	64.694688
3745.000000	64.829876
3744.000000	64.915873
3743.000000	64.954814
3742.000000	65.057305
3741.000000	65.218064
3740.000000	65.337739
3739.000000	65.395197
3738.000000	65.442883
3737.000000	65.523080
3736.000000	65.622315
3735.000000	65.712135
3734.000000	65.795418
3733.000000	65.879581
3732.000000	65.944530
3731.000000	65.979992
3730.000000	66.015171
3729.000000	66.079277
3728.000000	66.167662
3727.000000	66.255703
3726.000000	66.329430
3725.000000	66.401290
3724.000000	66.488550
3723.000000	66.582876
3722.000000	66.664725
3721.000000	66.731711
3720.000000	66.798212
3719.000000	66.869899
3718.000000	66.933634
3717.000000	66.976168
3716.000000	67.001901
3715.000000	67.031426
3714.000000	67.082869
3713.000000	67.160016
3712.000000	67.246752
3711.000000	67.321824
3710.000000	67.389312
3709.000000	67.468774
3708.000000	67.561056
3707.000000	67.650382
3706.000000	67.726959
3705.000000	67.795526
3704.000000	67.865510
3703.000000	67.937967
3702.000000	68.002357
3701.000000	68.050405
3700.000000	68.094531
3699.000000	68.155592
3698.000000	68.231675
3697.000000	68.300043
3696.000000	68.345588
3695.000000	68.376395
3694.000000	68.407650
3693.000000	68.441863
3692.000000	68.478024
3691.000000	68.526307
3690.000000	68.595126
3689.000000	68.666731
3688.000000	68.718665
3687.000000	68.768592
3686.000000	68.845807
3685.000000	68.936375
3684.000000	69.004140
3683.000000	69.039565
3682.000000	69.058177
3681.000000	69.067151
3680.000000	69.052840
3679.000000	69.015752
3678.000000	68.997098
3677.000000	69.037832
3676.000000	69.103048
3675.000000	69.104854
3674.000000	69.062641
3673.000000	69.079803
3672.000000	69.161837
3671.000000	69.238350
3670.000000	69.258017
3669.000000	69.224095
3668.000000	69.203925
3667.000000	69.235859
3666.000000	69.279328
3665.000000	69.291910
3664.000000	69.273282
3663.000000	69.241602
3662.000000	69.203870
3661.000000	69.154467
3660.000000	69.092315
3659.000000	69.028388
3658.000000	68.969659
3657.000000	68.902445
3656.000000	68.805480
3655.000000	68.688548
3654.000000	68.587897
3653.000000	68.507117
3652.000000	68.421596
3651.000000	68.322027
3650.000000	68.209882
3649.000000	68.082033
3648.000000	67.949192
3647.000000	67.833266
3646.000000	67.740350
3645.000000	67.658125
3644.000000	67.566972
3643.000000	67.450256
3642.000000	67.302200
3641.000000	67.131669
3640.000000	66.953633
3639.000000	66.774591
3638.000000	66.590021
3637.000000	66.400461
3636.000000	66.213066
3635.000000	66.023709
3634.000000	65.814861
3633.000000	65.580866
3632.000000	65.341097
3631.000000	65.117076
3630.000000	64.906566
3629.000000	64.676574
3628.000000	64.420589
3627.000000	64.206946
3626.000000	64.070210
3625.000000	63.945564
3624.000000	63.773095
3623.000000	63.555315
3622.000000	63.320790
3621.000000	63.085223
3620.000000	62.844985
3619.000000	62.595321
3618.000000	62.350725
3617.000000	62.136517
3616.000000	61.954228
3615.000000	61.775652
3614.000000	61.571683
3613.000000	61.337495
3612.000000	61.095605
3611.000000	60.872107
3610.000000	60.669261
3609.000000	60.468762
3608.000000	60.258439
3607.000000	60.046472
3606.000000	59.847704
3605.000000	59.662092
3604.000000	59.477409
3603.000000	59.285436
3602.000000	59.085413
3601.000000	58.880145
3600.000000	58.675112
3599.000000	58.477201
3598.000000	58.288108
3597.000000	58.102885
3596.000000	57.916750
3595.000000	57.727396
3594.000000	57.534042
3593.000000	57.339075
3592.000000	57.148333
3591.000000	56.963560
3590.000000	56.782563
3589.000000	56.603054
3588.000000	56.423318
3587.000000	56.244256
3586.000000	56.076422
3585.000000	55.928954
3584.000000	55.792149
3583.000000	55.647194
3582.000000	55.485146
3581.000000	55.310159
3580.000000	55.131018
3579.000000	54.953162
3578.000000	54.776962
3577.000000	54.601433
3576.000000	54.427437
3575.000000	54.255203
3574.000000	54.082872
3573.000000	53.908877
3572.000000	53.734825
3571.000000	53.563574
3570.000000	53.396729
3569.000000	53.234295
3568.000000	53.073079
3567.000000	52.907490
3566.000000	52.738757
3565.000000	52.576872
3564.000000	52.424542
3563.000000	52.271406
3562.000000	52.107338
3561.000000	51.931967
3560.000000	51.751679
3559.000000	51.571417
3558.000000	51.391692
3557.000000	51.212708
3556.000000	51.037492
3555.000000	50.868678
3554.000000	50.703973
3553.000000	50.538256
3552.000000	50.369477
3551.000000	50.200262
3550.000000	50.032690
3549.000000	49.864937
3548.000000	49.694272
3547.000000	49.520757
3546.000000	49.346269
3545.000000	49.173264
3544.000000	49.004032
3543.000000	48.838518
3542.000000	48.674073
3541.000000	48.509153
3540.000000	48.345504
3539.000000	48.185518
3538.000000	48.029243
3537.000000	47.875797
3536.000000	47.725185
3535.000000	47.577206
3534.000000	47.430162
3533.000000	47.282911
3532.000000	47.136595
3531.000000	46.992348
3530.000000	46.849086
3529.000000	46.705208
3528.000000	46.562028
3527.000000	46.422952
3526.000000	46.290543
3525.000000	46.164969
3524.000000	46.044169
3523.000000	45.924343
3522.000000	45.802393
3521.000000	45.678964
3520.000000	45.556998
3519.000000	45.436989
3518.000000	45.316347
3517.000000	45.194204
3516.000000	45.072933
3515.000000	44.953499
3514.000000	44.833268
3513.000000	44.710337
3512.000000	44.586169
3511.000000	44.461978
3510.000000	44.336913
3509.000000	44.211878
3508.000000	44.091549
3507.000000	43.978900
3506.000000	43.870790
3505.000000	43.762044
3504.000000	43.651439
3503.000000	43.540637
3502.000000	43.430013
3501.000000	43.318378
3500.000000	43.204767
3499.000000	43.088351
3498.000000	42.968462
3497.000000	42.846375
3496.000000	42.725685
3495.000000	42.609049
3494.000000	42.496014
3493.000000	42.385390
3492.000000	42.277227
3491.000000	42.170995
3490.000000	42.064419
3489.000000	41.956020
3488.000000	41.846778
3487.000000	41.737910
3486.000000	41.629032
3485.000000	41.519345
3484.000000	41.408472
3483.000000	41.295532
3482.000000	41.180222
3481.000000	41.065744
3480.000000	40.957166
3479.000000	40.855044
3478.000000	40.753995
3477.000000	40.649086
3476.000000	40.540612
3475.000000	40.431145
3474.000000	40.321583
3473.000000	40.212315
3472.000000	40.105091
3471.000000	40.001169
3470.000000	39.899836
3469.000000	39.800297
3468.000000	39.702455
3467.000000	39.604648
3466.000000	39.503621
3465.000000	39.398189
3464.000000	39.290379
3463.000000	39.182298
3462.000000	39.074842
3461.000000	38.970128
3460.000000	38.871305
3459.000000	38.778274
3458.000000	38.686864
3457.000000	38.593863
3456.000000	38.499822
3455.000000	38.405767
3454.000000	38.310404
3453.000000	38.212414
3452.000000	38.112870
3451.000000	38.013567
3450.000000	37.915033
3449.000000	37.817244
3448.000000	37.720618
3447.000000	37.625207
3446.000000	37.531055
3445.000000	37.439335
3444.000000	37.350507
3443.000000	37.261691
3442.000000	37.168865
3441.000000	37.071897
3440.000000	36.974452
3439.000000	36.878742
3438.000000	36.783810
3437.000000	36.689366
3436.000000	36.597154
3435.000000	36.507255
3434.000000	36.416559
3433.000000	36.322731
3432.000000	36.226932
3431.000000	36.131139
3430.000000	36.035391
3429.000000	35.938959
3428.000000	35.842034
3427.000000	35.744601
3426.000000	35.645977
3425.000000	35.546523
3424.000000	35.447580
3423.000000	35.348732
3422.000000	35.247593
3421.000000	35.143396
3420.000000	35.037986
3419.000000	34.932092
3418.000000	34.823613
3417.000000	34.710960
3416.000000	34.595568
3415.000000	34.479730
3414.000000	34.364178
3413.000000	34.248926
3412.000000	34.133869
3411.000000	34.017517
3410.000000	33.897576
3409.000000	33.773637
3408.000000	33.646957
3407.000000	33.516873
3406.000000	33.380484
3405.000000	33.236864
3404.000000	33.088731
3403.000000	32.939142
3402.000000	32.789209
3401.000000	32.639606
3400.000000	32.490690
3399.000000	32.339899
3398.000000	32.182703
3397.000000	32.017495
3396.000000	31.846388
3395.000000	31.670535
3394.000000	31.488429
3393.000000	31.300142
3392.000000	31.108912
3391.000000	30.916226
3390.000000	30.719159
3389.000000	30.514336
3388.000000	30.301733
3387.000000	30.082806
3386.000000	29.857779
3385.000000	29.626958
3384.000000	29.391449
3383.000000	29.151201
3382.000000	28.904743
3381.000000	28.651872
3380.000000	28.394147
3379.000000	28.131536
3378.000000	27.861880
3377.000000	27.584588
3376.000000	27.301322
3375.000000	27.012263
3374.000000	26.714878
3373.000000	26.407812
3372.000000	26.093102
3371.000000	25.772995
3370.000000	25.448087
3369.000000	25.119096
3368.000000	24.787182
3367.000000	24.451656
3366.000000	24.110191
3365.000000	23.762439
3364.000000	23.410182
3363.000000	23.053761
3362.000000	22.691971
3361.000000	22.325475
3360.000000	21.956730
3359.000000	21.585769
3358.000000	21.209859
3357.000000	20.828352
3356.000000	20.443795
3355.000000	20.057920
3354.000000	19.670442
3353.000000	19.282449
3352.000000	18.897153
3351.000000	18.516047
3350.000000	18.137710
3349.000000	17.760996
3348.000000	17.385977
3347.000000	17.011481
3346.000000	16.635847
3345.000000	16.260664
3344.000000	15.889954
3343.000000	15.525088
3342.000000	15.164047
3341.000000	14.806163
3340.000000	14.453642
3339.000000	14.107902
3338.000000	13.768333
3337.000000	13.434949
3336.000000	13.108816
3335.000000	12.789375
3334.000000	12.474892
3333.000000	12.166017
3332.000000	11.864989
3331.000000	11.571712
3330.000000	11.284029
3329.000000	11.001587
3328.000000	10.726277
3327.000000	10.458757
3326.000000	10.198598
3325.000000	9.947226
3324.000000	9.706396
3323.000000	9.474708
3322.000000	9.249101
3321.000000	9.029579
3320.000000	8.818627
3319.000000	8.616130
3318.000000	8.419833
3317.000000	8.229716
3316.000000	8.047770
3315.000000	7.873917
3314.000000	7.705797
3313.000000	7.542731
3312.000000	7.385623
3311.000000	7.233580
3310.000000	7.085082
3309.000000	6.941601
3308.000000	6.806645
3307.000000	6.681511
3306.000000	6.565589
3305.000000	6.459845
3304.000000	6.364931
3303.000000	6.277348
3302.000000	6.191826
3301.000000	6.106890
3300.000000	6.024526
3299.000000	5.945178
3298.000000	5.867817
3297.000000	5.793865
3296.000000	5.726022
3295.000000	5.663998
3294.000000	5.605517
3293.000000	5.551088
3292.000000	5.503343
3291.000000	5.461848
3290.000000	5.423417
3289.000000	5.386704
3288.000000	5.352559
3287.000000	5.320523
3286.000000	5.289005
3285.000000	5.258799
3284.000000	5.232069
3283.000000	5.208485
3282.000000	5.186046
3281.000000	5.164790
3280.000000	5.146026
3279.000000	5.128698
3278.000000	5.110711
3277.000000	5.092987
3276.000000	5.078025
3275.000000	5.065311
3274.000000	5.052230
3273.000000	5.039039
3272.000000	5.028927
3271.000000	5.023520
3270.000000	5.021937
3269.000000	5.023336
3268.000000	5.026756
3267.000000	5.029558
3266.000000	5.029701
3265.000000	5.028869
3264.000000	5.029973
3263.000000	5.032586
3262.000000	5.034428
3261.000000	5.035641
3260.000000	5.037825
3259.000000	5.040362
3258.000000	5.041851
3257.000000	5.043963
3256.000000	5.049544
3255.000000	5.057975
3254.000000	5.066306
3253.000000	5.073903
3252.000000	5.081918
3251.000000	5.089390
3250.000000	5.094323
3249.000000	5.097934
3248.000000	5.103746
3247.000000	5.112892
3246.000000	5.123800
3245.000000	5.135628
3244.000000	5.148422
3243.000000	5.160731
3242.000000	5.170858
3241.000000	5.179832
3240.000000	5.189811
3239.000000	5.200330
3238.000000	5.209313
3237.000000	5.216722
3236.000000	5.224123
3235.000000	5.231983
3234.000000	5.240513
3233.000000	5.251602
3232.000000	5.266349
3231.000000	5.282015
3230.000000	5.294962
3229.000000	5.305279
3228.000000	5.315234
3227.000000	5.324915
3226.000000	5.333005
3225.000000	5.340325
3224.000000	5.348701
3223.000000	5.357553
3222.000000	5.365184
3221.000000	5.372208
3220.000000	5.380226
3219.000000	5.388368
3218.000000	5.394695
3217.000000	5.399679
3216.000000	5.404875
3215.000000	5.409573
3214.000000	5.412181
3213.000000	5.413578
3212.000000	5.415610
3211.000000	5.417628
3210.000000	5.417903
3209.000000	5.416986
3208.000000	5.416400
3207.000000	5.415459
3206.000000	5.412655
3205.000000	5.408745
3204.000000	5.405130
3203.000000	5.400823
3202.000000	5.394280
3201.000000	5.386600
3200.000000	5.379601
3199.000000	5.372298
3198.000000	5.362680
3197.000000	5.351297
3196.000000	5.339793
3195.000000	5.327675
3194.000000	5.313855
3193.000000	5.299647
3192.000000	5.286791
3191.000000	5.274192
3190.000000	5.260026
3189.000000	5.245272
3188.000000	5.231762
3187.000000	5.218505
3186.000000	5.203431
3185.000000	5.187116
3184.000000	5.171325
3183.000000	5.155607
3182.000000	5.138769
3181.000000	5.121942
3180.000000	5.106728
3179.000000	5.092029
3178.000000	5.076097
3177.000000	5.060024
3176.000000	5.045793
3175.000000	5.032632
3174.000000	5.018759
3173.000000	5.004943
3172.000000	4.992864
3171.000000	4.981664
3170.000000	4.969541
3169.000000	4.957121
3168.000000	4.945970
3167.000000	4.935387
3166.000000	4.924032
3165.000000	4.913025
3164.000000	4.904190
3163.000000	4.896923
3162.000000	4.889854
3161.000000	4.883812
3160.000000	4.879984
3159.000000	4.877024
3158.000000	4.873101
3157.000000	4.868824
3156.000000	4.865231
3155.000000	4.861154
3154.000000	4.855974
3153.000000	4.852783
3152.000000	4.855030
3151.000000	4.861807
3150.000000	4.869696
3149.000000	4.877455
3148.000000	4.885645
3147.000000	4.893681
3146.000000	4.900889
3145.000000	4.908734
3144.000000	4.918556
3143.000000	4.928780
3142.000000	4.937536
3141.000000	4.946440
3140.000000	4.958570
3139.000000	4.974221
3138.000000	4.991770
3137.000000	5.010855
3136.000000	5.031620
3135.000000	5.052565
3134.000000	5.072211
3133.000000	5.091608
3132.000000	5.112487
3131.000000	5.134714
3130.000000	5.157984
3129.000000	5.183694
3128.000000	5.212477
3127.000000	5.242020
3126.000000	5.270074
3125.000000	5.297392
3124.000000	5.325058
3123.000000	5.351754
3122.000000	5.376702
3121.000000	5.402668
3120.000000	5.432653
3119.000000	5.465840
3118.000000	5.500194
3117.000000	5.536716
3116.000000	5.577558
3115.000000	5.621914
3114.000000	5.667016
3113.000000	5.711539
3112.000000	5.755104
3111.000000	5.796716
3110.000000	5.836841
3109.000000	5.878878
3108.000000	5.925364
3107.000000	5.974481
3106.000000	6.023088
3105.000000	6.071047
3104.000000	6.119670
3103.000000	6.168439
3102.000000	6.216589
3101.000000	6.265825
3100.000000	6.318201
3099.000000	6.372868
3098.000000	6.427970
3097.000000	6.483841
3096.000000	6.541327
3095.000000	6.598963
3094.000000	6.654879
3093.000000	6.709940
3092.000000	6.766214
3091.000000	6.823955
3090.000000	6.882591
3089.000000	6.942687
3088.000000	7.004388
3087.000000	7.065991
3086.000000	7.126665
3085.000000	7.188625
3084.000000	7.253885
3083.000000	7.320951
3082.000000	7.387406
3081.000000	7.453678
3080.000000	7.521703
3079.000000	7.591889
3078.000000	7.663974
3077.000000	7.738637
3076.000000	7.815389
3075.000000	7.891088
3074.000000	7.963420
3073.000000	8.033944
3072.000000	8.105204
3071.000000	8.176967
3070.000000	8.248125
3069.000000	8.320091
3068.000000	8.395164
3067.000000	8.473250
3066.000000	8.552842
3065.000000	8.633618
3064.000000	8.715436
3063.000000	8.796606
3062.000000	8.875806
3061.000000	8.954094
3060.000000	9.032743
3059.000000	9.110922
3058.000000	9.187751
3057.000000	9.264678
3056.000000	9.343316
3055.000000	9.422817
3054.000000	9.501886
3053.000000	9.581569
3052.000000	9.663597
3051.000000	9.747581
3050.000000	9.832010
3049.000000	9.916283
3048.000000	9.999729
3047.000000	10.080637
3046.000000	10.158547
3045.000000	10.235757
3044.000000	10.314592
3043.000000	10.395047
3042.000000	10.476789
3041.000000	10.560947
3040.000000	10.647525
3039.000000	10.733451
3038.000000	10.815874
3037.000000	10.895676
3036.000000	10.975687
3035.000000	11.057324
3034.000000	11.140880
3033.000000	11.226748
3032.000000	11.313984
3031.000000	11.399787
3030.000000	11.482724
3029.000000	11.564430
3028.000000	11.646285
3027.000000	11.727007
3026.000000	11.805762
3025.000000	11.884904
3024.000000	11.966774
3023.000000	12.050128
3022.000000	12.132546
3021.000000	12.214305
3020.000000	12.297010
3019.000000	12.380210
3018.000000	12.462236
3017.000000	12.542931
3016.000000	12.623144
3015.000000	12.703001
3014.000000	12.782939
3013.000000	12.864880
3012.000000	12.950041
3011.000000	13.037009
3010.000000	13.123789
3009.000000	13.210169
3008.000000	13.296381
3007.000000	13.381510
3006.000000	13.465201
3005.000000	13.548999
3004.000000	13.633978
3003.000000	13.718746
3002.000000	13.801671
3001.000000	13.883218
3000.000000	13.964442
2999.000000	14.045215
2998.000000	14.125662
2997.000000	14.207089
2996.000000	14.289583
2995.000000	14.371063
2994.000000	14.450847
2993.000000	14.531835
2992.000000	14.616756
2991.000000	14.704414
2990.000000	14.791902
2989.000000	14.878422
2988.000000	14.964418
2987.000000	15.049066
2986.000000	15.131321
2985.000000	15.211946
2984.000000	15.292085
2983.000000	15.371411
2982.000000	15.449860
2981.000000	15.529427
2980.000000	15.611795
2979.000000	15.695628
2978.000000	15.778525
2977.000000	15.860337
2976.000000	15.942581
2975.000000	16.026011
2974.000000	16.110712
2973.000000	16.196977
2972.000000	16.284091
2971.000000	16.369758
2970.000000	16.452653
2969.000000	16.534112
2968.000000	16.615582
2967.000000	16.696289
2966.000000	16.775296
2965.000000	16.853888
2964.000000	16.933732
2963.000000	17.014449
2962.000000	17.095216
2961.000000	17.176893
2960.000000	17.260342
2959.000000	17.344349
2958.000000	17.427246
2957.000000	17.508863
2956.000000	17.589086
2955.000000	17.666741
2954.000000	17.742001
2953.000000	17.817536
2952.000000	17.894846
2951.000000	17.971554
2950.000000	18.044898
2949.000000	18.115950
2948.000000	18.187906
2947.000000	18.262046
2946.000000	18.337896
2945.000000	18.415682
2944.000000	18.495792
2943.000000	18.576938
2942.000000	18.657221
2941.000000	18.736135
2940.000000	18.813649
2939.000000	18.888716
2938.000000	18.960751
2937.000000	19.031360
2936.000000	19.102590
2935.000000	19.174550
2934.000000	19.246496
2933.000000	19.318835
2932.000000	19.392237
2931.000000	19.466131
2930.000000	19.539940
2929.000000	19.614440
2928.000000	19.690167
2927.000000	19.765986
2926.000000	19.840880
2925.000000	19.915435
2924.000000	19.989972
2923.000000	20.063055
2922.000000	20.133678
2921.000000	20.203010
2920.000000	20.272240
2919.000000	20.340649
2918.000000	20.407589
2917.000000	20.474413
2916.000000	20.542518
2915.000000	20.611208
2914.000000	20.679273
2913.000000	20.746977
2912.000000	20.814827
2911.000000	20.882003
2910.000000	20.947698
2909.000000	21.012485
2908.000000	21.076800
2907.000000	21.139576
2906.000000	21.199900
2905.000000	21.258580
2904.000000	21.316688
2903.000000	21.374183
2902.000000	21.431370
2901.000000	21.490066
2900.000000	21.551579
2899.000000	21.615136
2898.000000	21.679435
2897.000000	21.744068
2896.000000	21.808297
2895.000000	21.870203
2894.000000	21.928793
2893.000000	21.985370
2892.000000	22.041311
2891.000000	22.096083
2890.000000	22.148841
2889.000000	22.200290
2888.000000	22.251387
2887.000000	22.301777
2886.000000	22.351057
2885.000000	22.400082
2884.000000	22.449529
2883.000000	22.498595
2882.000000	22.546501
2881.000000	22.593792
2880.000000	22.640830
2879.000000	22.686625
2878.000000	22.730597
2877.000000	22.773897
2876.000000	22.817481
2875.000000	22.860400
2874.000000	22.901508
2873.000000	22.941316
2872.000000	22.980829
2871.000000	23.020398
2870.000000	23.061301
2869.000000	23.106685
2868.000000	23.158942
2867.000000	23.217471
2866.000000	23.280576
2865.000000	23.347846
2864.000000	23.419070
2863.000000	23.492596
2862.000000	23.566735
2861.000000	23.641328
2860.000000	23.716213
2859.000000	23.789740
2858.000000	23.860804
2857.000000	23.930952
2856.000000	24.002542
2855.000000	24.076085
2854.000000	24.151019
2853.000000	24.227592
2852.000000	24.306041
2851.000000	24.385124
2850.000000	24.463256
2849.000000	24.540069
2848.000000	24.615420
2847.000000	24.688153
2846.000000	24.757413
2845.000000	24.824085
2844.000000	24.889477
2843.000000	24.953724
2842.000000	25.016840
2841.000000	25.079994
2840.000000	25.144100
2839.000000	25.208234
2838.000000	25.271003
2837.000000	25.332621
2836.000000	25.394281
2835.000000	25.456427
2834.000000	25.518921
2833.000000	25.581931
2832.000000	25.645339
2831.000000	25.708099
2830.000000	25.769403
2829.000000	25.829620
2828.000000	25.889056
2827.000000	25.946885
2826.000000	26.002471
2825.000000	26.056713
2824.000000	26.110906
2823.000000	26.165283
2822.000000	26.219793
2821.000000	26.275235
2820.000000	26.332361
2819.000000	26.390792
2818.000000	26.449944
2817.000000	26.509973
2816.000000	26.570683
2815.000000	26.630617
2814.000000	26.688507
2813.000000	26.744653
2812.000000	26.799776
2811.000000	26.853586
2810.000000	26.905767
2809.000000	26.957341
2808.000000	27.009705
2807.000000	27.063189
2806.000000	27.117730
2805.000000	27.173987
2804.000000	27.232391
2803.000000	27.291908
2802.000000	27.351048
2801.000000	27.409412
2800.000000	27.467168
2799.000000	27.523784
2798.000000	27.578472
2797.000000	27.631303
2796.000000	27.682916
2795.000000	27.733807
2794.000000	27.784740
2793.000000	27.836959
2792.000000	27.890945
2791.000000	27.945697
2790.000000	28.000067
2789.000000	28.053951
2788.000000	28.107414
2787.000000	28.159806
2786.000000	28.210802
2785.000000	28.261301
2784.000000	28.312199
2783.000000	28.363131
2782.000000	28.413433
2781.000000	28.463369
2780.000000	28.513340
2779.000000	28.562850
2778.000000	28.611438
2777.000000	28.659751
2776.000000	28.708520
2775.000000	28.757261
2774.000000	28.805124
2773.000000	28.852356
2772.000000	28.899811
2771.000000	28.947667
2770.000000	28.995610
2769.000000	29.043654
2768.000000	29.091793
2767.000000	29.139432
2766.000000	29.185998
2765.000000	29.231563
2764.000000	29.276304
2763.000000	29.320215
2762.000000	29.363996
2761.000000	29.409161
2760.000000	29.456401
2759.000000	29.504772
2758.000000	29.553255
2757.000000	29.602031
2756.000000	29.651301
2755.000000	29.700016
2754.000000	29.746903
2753.000000	29.791863
2752.000000	29.835286
2751.000000	29.877031
2750.000000	29.917226
2749.000000	29.957146
2748.000000	29.998045
2747.000000	30.039813
2746.000000	30.081822
2745.000000	30.124297
2744.000000	30.167699
2743.000000	30.211569
2742.000000	30.255127
2741.000000	30.298347
2740.000000	30.341337
2739.000000	30.383326
2738.000000	30.423373
2737.000000	30.461508
2736.000000	30.498258
2735.000000	30.533787
2734.000000	30.568385
2733.000000	30.603029
2732.000000	30.638360
2731.000000	30.673794
2730.000000	30.708708
2729.000000	30.743735
2728.000000	30.779787
2727.000000	30.816525
2726.000000	30.852882
2725.000000	30.888449
2724.000000	30.923202
2723.000000	30.956554
2722.000000	30.987897
2721.000000	31.017585
2720.000000	31.046330
2719.000000	31.074068
2718.000000	31.100491
2717.000000	31.126176
2716.000000	31.152108
2715.000000	31.178567
2714.000000	31.205440
2713.000000	31.233135
2712.000000	31.262153
2711.000000	31.292109
2710.000000	31.322064
2709.000000	31.351377
2708.000000	31.379487
2707.000000	31.405505
2706.000000	31.428924
2705.000000	31.450268
2704.000000	31.470206
2703.000000	31.488680
2702.000000	31.505834
2701.000000	31.523025
2700.000000	31.541834
2699.000000	31.562575
2698.000000	31.584691
2697.000000	31.607979
2696.000000	31.632310
2695.000000	31.656744
2694.000000	31.680086
2693.000000	31.701997
2692.000000	31.722616
2691.000000	31.741511
2690.000000	31.758088
2689.000000	31.772614
2688.000000	31.785825
2687.000000	31.797892
2686.000000	31.808653
2685.000000	31.818566
2684.000000	31.828526
2683.000000	31.838962
2682.000000	31.849940
2681.000000	31.861716
2680.000000	31.874307
2679.000000	31.886926
2678.000000	31.898671
2677.000000	31.909542
2676.000000	31.920094
2675.000000	31.930521
2674.000000	31.940795
2673.000000	31.951216
2672.000000	31.962068
2671.000000	31.973280
2670.000000	31.985213
2669.000000	31.999342
2668.000000	32.017439
2667.000000	32.040341
2666.000000	32.068174
2665.000000	32.101113
2664.000000	32.139000
2663.000000	32.180926
2662.000000	32.225734
2661.000000	32.272568
2660.000000	32.320381
2659.000000	32.367536
2658.000000	32.412887
2657.000000	32.456667
2656.000000	32.499556
2655.000000	32.541504
2654.000000	32.582243
2653.000000	32.622357
2652.000000	32.662903
2651.000000	32.704360
2650.000000	32.746728
2649.000000	32.790193
2648.000000	32.834804
2647.000000	32.879896
2646.000000	32.924623
2645.000000	32.968754
2644.000000	33.012260
2643.000000	33.054521
2642.000000	33.094742
2641.000000	33.132762
2640.000000	33.168704
2639.000000	33.202272
2638.000000	33.233104
2637.000000	33.261574
2636.000000	33.288610
2635.000000	33.314879
2634.000000	33.340797
2633.000000	33.366849
2632.000000	33.393306
2631.000000	33.419999
2630.000000	33.446826
2629.000000	33.473989
2628.000000	33.501175
2627.000000	33.527116
2626.000000	33.550753
2625.000000	33.572337
2624.000000	33.592845
2623.000000	33.612956
2622.000000	33.633276
2621.000000	33.654849
2620.000000	33.678447
2619.000000	33.703810
2618.000000	33.730410
2617.000000	33.758446
2616.000000	33.788154
2615.000000	33.818663
2614.000000	33.848467
2613.000000	33.876733
2612.000000	33.903330
2611.000000	33.927976
2610.000000	33.950168
2609.000000	33.969721
2608.000000	33.986582
2607.000000	34.000333
2606.000000	34.010812
2605.000000	34.018754
2604.000000	34.025087
2603.000000	34.029945
2602.000000	34.032927
2601.000000	34.034124
2600.000000	34.033988
2599.000000	34.032693
2598.000000	34.030585
2597.000000	34.028826
2596.000000	34.028693
2595.000000	34.030474
2594.000000	34.033887
2593.000000	34.039330
2592.000000	34.048006
2591.000000	34.060925
2590.000000	34.078686
2589.000000	34.101982
2588.000000	34.131272
2587.000000	34.166378
2586.000000	34.206779
2585.000000	34.252213
2584.000000	34.302421
2583.000000	34.356261
2582.000000	34.411976
2581.000000	34.467897
2580.000000	34.522518
2579.000000	34.574470
2578.000000	34.623143
2577.000000	34.669296
2576.000000	34.714452
2575.000000	34.759979
2574.000000	34.807275
2573.000000	34.858242
2572.000000	34.914797
2571.000000	34.977898
2570.000000	35.047511
2569.000000	35.123264
2568.000000	35.204214
2567.000000	35.288658
2566.000000	35.374832
2565.000000	35.461605
2564.000000	35.548220
2563.000000	35.633624
2562.000000	35.716998
2561.000000	35.798562
2560.000000	35.878966
2559.000000	35.958025
2558.000000	36.034906
2557.000000	36.109324
2556.000000	36.181718
2555.000000	36.252343
2554.000000	36.320928
2553.000000	36.387435
2552.000000	36.452222
2551.000000	36.515277
2550.000000	36.576145
2549.000000	36.634651
2548.000000	36.691165
2547.000000	36.745859
2546.000000	36.798294
2545.000000	36.848131
2544.000000	36.895468
2543.000000	36.940472
2542.000000	36.983232
2541.000000	37.024149
2540.000000	37.064021
2539.000000	37.103221
2538.000000	37.141318
2537.000000	37.177593
2536.000000	37.211278
2535.000000	37.241389
2534.000000	37.266660
2533.000000	37.286091
2532.000000	37.299201
2531.000000	37.305498
2530.000000	37.304743
2529.000000	37.297558
2528.000000	37.285412
2527.000000	37.269869
2526.000000	37.252218
2525.000000	37.234275
2524.000000	37.218588
2523.000000	37.207492
2522.000000	37.202294
2521.000000	37.203599
2520.000000	37.211673
2519.000000	37.226461
2518.000000	37.247790
2517.000000	37.275568
2516.000000	37.309890
2515.000000	37.350389
2514.000000	37.396296
2513.000000	37.447250
2512.000000	37.503219
2511.000000	37.563947
2510.000000	37.628454
2509.000000	37.695437
2508.000000	37.763824
2507.000000	37.832666
2506.000000	37.901282
2505.000000	37.969433
2504.000000	38.036998
2503.000000	38.103274
2502.000000	38.167094
2501.000000	38.227775
2500.000000	38.285445
2499.000000	38.340318
2498.000000	38.392151
2497.000000	38.440989
2496.000000	38.487774
2495.000000	38.533861
2494.000000	38.580245
2493.000000	38.627380
2492.000000	38.675393
2491.000000	38.723926
2490.000000	38.772119
2489.000000	38.819066
2488.000000	38.864007
2487.000000	38.906114
2486.000000	38.944542
2485.000000	38.979039
2484.000000	39.010204
2483.000000	39.038837
2482.000000	39.065709
2481.000000	39.092005
2480.000000	39.119341
2479.000000	39.148880
2478.000000	39.180782
2477.000000	39.214769
2476.000000	39.250585
2475.000000	39.287546
2474.000000	39.324262
2473.000000	39.359376
2472.000000	39.392193
2471.000000	39.422313
2470.000000	39.449182
2469.000000	39.472643
2468.000000	39.493428
2467.000000	39.512737
2466.000000	39.531600
2465.000000	39.550916
2464.000000	39.571636
2463.000000	39.594382
2462.000000	39.619330
2461.000000	39.646698
2460.000000	39.676851
2459.000000	39.709477
2458.000000	39.743231
2457.000000	39.776557
2456.000000	39.808418
2455.000000	39.837936
2454.000000	39.864020
2453.000000	39.885947
2452.000000	39.903944
2451.000000	39.918876
2450.000000	39.931802
2449.000000	39.944324
2448.000000	39.958630
2447.000000	39.976588
2446.000000	39.999085
2445.000000	40.026460
2444.000000	40.058698
2443.000000	40.094721
2442.000000	40.132096
2441.000000	40.168115
2440.000000	40.200873
2439.000000	40.229030
2438.000000	40.251445
2437.000000	40.267728
2436.000000	40.278852
2435.000000	40.286511
2434.000000	40.292506
2433.000000	40.298938
2432.000000	40.308056
2431.000000	40.321181
2430.000000	40.338361
2429.000000	40.359722
2428.000000	40.386417
2427.000000	40.419526
2426.000000	40.458262
2425.000000	40.500125
2424.000000	40.542078
2423.000000	40.581215
2422.000000	40.615141
2421.000000	40.642870
2420.000000	40.665327
2419.000000	40.684397
2418.000000	40.701840
2417.000000	40.719357
2416.000000	40.738913
2415.000000	40.762003
2414.000000	40.789059
2413.000000	40.820037
2412.000000	40.855034
2411.000000	40.893568
2410.000000	40.933953
2409.000000	40.974072
2408.000000	41.012296
2407.000000	41.047157
2406.000000	41.077000
2405.000000	41.100947
2404.000000	41.119675
2403.000000	41.134696
2402.000000	41.147450
2401.000000	41.160025
2400.000000	41.175694
2399.000000	41.197593
2398.000000	41.226996
2397.000000	41.263546
2396.000000	41.306198
2395.000000	41.352996
2394.000000	41.400781
2393.000000	41.446308
2392.000000	41.487716
2391.000000	41.524233
2390.000000	41.555365
2389.000000	41.581299
2388.000000	41.603891
2387.000000	41.625896
2386.000000	41.649741
2385.000000	41.677745
2384.000000	41.712285
2383.000000	41.755023
2382.000000	41.805615
2381.000000	41.862316
2380.000000	41.923486
2379.000000	41.987300
2378.000000	42.051400
2377.000000	42.113819
2376.000000	42.173315
2375.000000	42.228831
2374.000000	42.278841
2373.000000	42.323161
2372.000000	42.364083
2371.000000	42.404132
2370.000000	42.443355
2369.000000	42.482171
2368.000000	42.523608
2367.000000	42.570200
2366.000000	42.620940
2365.000000	42.675760
2364.000000	42.736786
2363.000000	42.801661
2362.000000	42.867387
2361.000000	42.931802
2360.000000	42.993609
2359.000000	43.054516
2358.000000	43.109276
2357.000000	43.155297
2356.000000	43.192424
2355.000000	43.221196
2354.000000	43.246945
2353.000000	43.280519
2352.000000	43.340312
2351.000000	43.423262
2350.000000	43.506060
2349.000000	43.571494
2348.000000	43.620336
2347.000000	43.675076
2346.000000	43.743838
2345.000000	43.820372
2344.000000	43.888426
2343.000000	43.939481
2342.000000	43.982462
2341.000000	44.021126
2340.000000	44.060248
2339.000000	44.100410
2338.000000	44.145971
2337.000000	44.197401
2336.000000	44.257345
2335.000000	44.322551
2334.000000	44.392018
2333.000000	44.458459
2332.000000	44.524719
2331.000000	44.588999
2330.000000	44.651513
2329.000000	44.712438
2328.000000	44.768509
2327.000000	44.823352
2326.000000	44.873603
2325.000000	44.921553
2324.000000	44.968471
2323.000000	45.015157
2322.000000	45.063901
2321.000000	45.112039
2320.000000	45.164453
2319.000000	45.220662
2318.000000	45.282506
2317.000000	45.344577
2316.000000	45.406453
2315.000000	45.466432
2314.000000	45.524794
2313.000000	45.579070
2312.000000	45.629203
2311.000000	45.676126
2310.000000	45.720656
2309.000000	45.762960
2308.000000	45.804608
2307.000000	45.848575
2306.000000	45.897044
2305.000000	45.950148
2304.000000	46.008801
2303.000000	46.072948
2302.000000	46.141614
2301.000000	46.211329
2300.000000	46.279653
2299.000000	46.344669
2298.000000	46.403865
2297.000000	46.455079
2296.000000	46.498347
2295.000000	46.537120
2294.000000	46.574008
2293.000000	46.611573
2292.000000	46.652291
2291.000000	46.699526
2290.000000	46.753847
2289.000000	46.813859
2288.000000	46.877767
2287.000000	46.944225
2286.000000	47.010293
2285.000000	47.072090
2284.000000	47.127473
2283.000000	47.176416
2282.000000	47.219318
2281.000000	47.256656
2280.000000	47.290918
2279.000000	47.325389
2278.000000	47.361870
2277.000000	47.400312
2276.000000	47.441664
2275.000000	47.487525
2274.000000	47.537616
2273.000000	47.589950
2272.000000	47.643387
2271.000000	47.697919
2270.000000	47.752118
2269.000000	47.803225
2268.000000	47.849862
2267.000000	47.892051
2266.000000	47.928888
2265.000000	47.958913
2264.000000	47.982741
2263.000000	48.003345
2262.000000	48.022834
2261.000000	48.042500
2260.000000	48.065090
2259.000000	48.094261
2258.000000	48.131451
2257.000000	48.175041
2256.000000	48.223327
2255.000000	48.274570
2254.000000	48.324952
2253.000000	48.368845
2252.000000	48.402259
2251.000000	48.423916
2250.000000	48.433253
2249.000000	48.430936
2248.000000	48.420916
2247.000000	48.409958
2246.000000	48.402953
2245.000000	48.402378
2244.000000	48.410586
2243.000000	48.429490
2242.000000	48.457488
2241.000000	48.489494
2240.000000	48.520584
2239.000000	48.547295
2238.000000	48.565789
2237.000000	48.572100
2236.000000	48.565179
2235.000000	48.547262
2234.000000	48.521126
2233.000000	48.489455
2232.000000	48.456446
2231.000000	48.426934
2230.000000	48.403156
2229.000000	48.384873
2228.000000	48.372256
2227.000000	48.366069
2226.000000	48.365048
2225.000000	48.366078
2224.000000	48.367142
2223.000000	48.367496
2222.000000	48.365093
2221.000000	48.356792
2220.000000	48.341404
2219.000000	48.319722
2218.000000	48.291803
2217.000000	48.257075
2216.000000	48.217438
2215.000000	48.177238
2214.000000	48.140236
2213.000000	48.109070
2212.000000	48.087364
2211.000000	48.078975
2210.000000	48.084372
2209.000000	48.100273
2208.000000	48.122592
2207.000000	48.147376
2206.000000	48.168975
2205.000000	48.181104
2204.000000	48.180511
2203.000000	48.167670
2202.000000	48.144214
2201.000000	48.112832
2200.000000	48.079437
2199.000000	48.051890
2198.000000	48.035720
2197.000000	48.033052
2196.000000	48.045163
2195.000000	48.072340
2194.000000	48.111062
2193.000000	48.154321
2192.000000	48.195723
2191.000000	48.230896
2190.000000	48.255685
2189.000000	48.266747
2188.000000	48.264830
2187.000000	48.254556
2186.000000	48.240245
2185.000000	48.224638
2184.000000	48.211196
2183.000000	48.204136
2182.000000	48.205185
2181.000000	48.213285
2180.000000	48.227572
2179.000000	48.247933
2178.000000	48.272392
2177.000000	48.297218
2176.000000	48.320169
2175.000000	48.340845
2174.000000	48.357666
2173.000000	48.367691
2172.000000	48.370001
2171.000000	48.366046
2170.000000	48.356480
2169.000000	48.340753
2168.000000	48.320533
2167.000000	48.300256
2166.000000	48.283821
2165.000000	48.273435
2164.000000	48.271815
2163.000000	48.282063
2162.000000	48.304186
2161.000000	48.334289
2160.000000	48.367527
2159.000000	48.399437
2158.000000	48.424337
2157.000000	48.436379
2156.000000	48.433374
2155.000000	48.417479
2154.000000	48.392055
2153.000000	48.360730
2152.000000	48.329340
2151.000000	48.305096
2150.000000	48.292706
2149.000000	48.293221
2148.000000	48.306499
2147.000000	48.331261
2146.000000	48.362604
2145.000000	48.392845
2144.000000	48.416071
2143.000000	48.429524
2142.000000	48.431390
2141.000000	48.420715
2140.000000	48.400010
2139.000000	48.374802
2138.000000	48.349983
2137.000000	48.328868
2136.000000	48.315079
2135.000000	48.311703
2134.000000	48.318069
2133.000000	48.330656
2132.000000	48.347220
2131.000000	48.367373
2130.000000	48.389308
2129.000000	48.409717
2128.000000	48.427268
2127.000000	48.442901
2126.000000	48.456357
2125.000000	48.465731
2124.000000	48.470839
2123.000000	48.473515
2122.000000	48.474429
2121.000000	48.472989
2120.000000	48.470685
2119.000000	48.470991
2118.000000	48.475938
2117.000000	48.486112
2116.000000	48.503882
2115.000000	48.532553
2114.000000	48.571493
2113.000000	48.615381
2112.000000	48.658834
2111.000000	48.698592
2110.000000	48.731322
2109.000000	48.753872
2108.000000	48.766848
2107.000000	48.774678
2106.000000	48.781522
2105.000000	48.790390
2104.000000	48.806016
2103.000000	48.834275
2102.000000	48.877446
2101.000000	48.933272
2100.000000	48.998780
2099.000000	49.071410
2098.000000	49.146071
2097.000000	49.215432
2096.000000	49.275207
2095.000000	49.325482
2094.000000	49.366577
2093.000000	49.398173
2092.000000	49.423638
2091.000000	49.450661
2090.000000	49.485473
2089.000000	49.529272
2088.000000	49.580892
2087.000000	49.639050
2086.000000	49.700652
2085.000000	49.760877
2084.000000	49.816577
2083.000000	49.866959
2082.000000	49.910260
2081.000000	49.943749
2080.000000	49.967644
2079.000000	49.985175
2078.000000	49.998049
2077.000000	50.005348
2076.000000	50.007771
2075.000000	50.008402
2074.000000	50.008529
2073.000000	50.007042
2072.000000	50.004314
2071.000000	50.003402
2070.000000	50.005869
2069.000000	50.009718
2068.000000	50.012945
2067.000000	50.016487
2066.000000	50.022683
2065.000000	50.032527
2064.000000	50.044417
2063.000000	50.053645
2062.000000	50.054194
2061.000000	50.044119
2060.000000	50.028894
2059.000000	50.016713
2058.000000	50.011523
2057.000000	50.014144
2056.000000	50.027920
2055.000000	50.057441
2054.000000	50.102252
2053.000000	50.156832
2052.000000	50.216118
2051.000000	50.277194
2050.000000	50.335671
2049.000000	50.385779
2048.000000	50.425659
2047.000000	50.458975
2046.000000	50.489777
2045.000000	50.519746
2044.000000	50.552269
2043.000000	50.594891
2042.000000	50.654968
2041.000000	50.735028
2040.000000	50.832785
2039.000000	50.942767
2038.000000	51.057359
2037.000000	51.169849
2036.000000	51.278390
2035.000000	51.384308
2034.000000	51.486609
2033.000000	51.582564
2032.000000	51.673285
2031.000000	51.763370
2030.000000	51.854910
2029.000000	51.946894
2028.000000	52.040618
2027.000000	52.140481
2026.000000	52.247925
2025.000000	52.360893
2024.000000	52.478977
2023.000000	52.604848
2022.000000	52.737467
2021.000000	52.869299
2020.000000	52.993851
2019.000000	53.112544
2018.000000	53.231699
2017.000000	53.355007
2016.000000	53.479727
2015.000000	53.597864
2014.000000	53.700995
2013.000000	53.786961
2012.000000	53.863380
2011.000000	53.941981
2010.000000	54.029390
2009.000000	54.126894
2008.000000	54.236642
2007.000000	54.360897
2006.000000	54.495124
2005.000000	54.629753
2004.000000	54.757759
2003.000000	54.876422
2002.000000	54.981516
2001.000000	55.067831
2000.000000	55.137472
1999.000000	55.198140
1998.000000	55.255874
1997.000000	55.312494
1996.000000	55.368281
1995.000000	55.423080
1994.000000	55.479204
1993.000000	55.547107
1992.000000	55.641164
1991.000000	55.760311
1990.000000	55.882617
1989.000000	55.988889
1988.000000	56.080889
1987.000000	56.169328
1986.000000	56.253474
1985.000000	56.324079
1984.000000	56.380832
1983.000000	56.432995
1982.000000	56.484761
1981.000000	56.533179
1980.000000	56.580099
1979.000000	56.631387
1978.000000	56.688212
1977.000000	56.747785
1976.000000	56.812274
1975.000000	56.886438
1974.000000	56.968478
1973.000000	57.052063
1972.000000	57.134224
1971.000000	57.211257
1970.000000	57.271832
1969.000000	57.307880
1968.000000	57.331433
1967.000000	57.366054
1966.000000	57.417596
1965.000000	57.468892
1964.000000	57.506857
1963.000000	57.537767
1962.000000	57.574361
1961.000000	57.623356
1960.000000	57.686946
1959.000000	57.764237
1958.000000	57.847144
1957.000000	57.924362
1956.000000	57.992957
1955.000000	58.057087
1954.000000	58.115003
1953.000000	58.158512
1952.000000	58.186007
1951.000000	58.206785
1950.000000	58.225825
1949.000000	58.240406
1948.000000	58.254960
1947.000000	58.281331
1946.000000	58.319491
1945.000000	58.355225
1944.000000	58.385756
1943.000000	58.433236
1942.000000	58.515303
1941.000000	58.613702
1940.000000	58.696012
1939.000000	58.751894
1938.000000	58.789791
1937.000000	58.818617
1936.000000	58.843427
1935.000000	58.867633
1934.000000	58.891890
1933.000000	58.914084
1932.000000	58.934749
1931.000000	58.959743
1930.000000	58.988539
1929.000000	59.016201
1928.000000	59.045816
1927.000000	59.081011
1926.000000	59.112068
1925.000000	59.122059
1924.000000	59.122457
1923.000000	59.153889
1922.000000	59.232561
1921.000000	59.322777
1920.000000	59.382611
1919.000000	59.405917
1918.000000	59.415079
1917.000000	59.422049
1916.000000	59.419861
1915.000000	59.410394
1914.000000	59.405442
1913.000000	59.406649
1912.000000	59.408661
1911.000000	59.414954
1910.000000	59.434681
1909.000000	59.471236
1908.000000	59.518167
1907.000000	59.562502
1906.000000	59.592910
1905.000000	59.601766
1904.000000	59.596076
1903.000000	59.592326
1902.000000	59.596846
1901.000000	59.604929
1900.000000	59.615674
1899.000000	59.631543
1898.000000	59.647609
1897.000000	59.652901
1896.000000	59.654590
1895.000000	59.677777
1894.000000	59.727615
1893.000000	59.774360
1892.000000	59.790272
1891.000000	59.782668
1890.000000	59.785846
1889.000000	59.822084
1888.000000	59.875697
1887.000000	59.919111
1886.000000	59.943140
1885.000000	59.955027
1884.000000	59.968679
1883.000000	59.992951
1882.000000	60.020747
1881.000000	60.040826
1880.000000	60.056003
1879.000000	60.077686
1878.000000	60.108667
1877.000000	60.139798
1876.000000	60.165215
1875.000000	60.189939
1874.000000	60.216361
1873.000000	60.235746
1872.000000	60.237088
1871.000000	60.211613
1870.000000	60.159082
1869.000000	60.109503
1868.000000	60.107779
1867.000000	60.158899
1866.000000	60.228330
1865.000000	60.284304
1864.000000	60.317684
1863.000000	60.336763
1862.000000	60.348360
1861.000000	60.349431
1860.000000	60.340485
1859.000000	60.331629
1858.000000	60.327994
1857.000000	60.323926
1856.000000	60.317197
1855.000000	60.314750
1854.000000	60.320414
1853.000000	60.329414
1852.000000	60.339313
1851.000000	60.344807
1850.000000	60.338347
1849.000000	60.323722
1848.000000	60.327765
1847.000000	60.371135
1846.000000	60.430108
1845.000000	60.459095
1844.000000	60.452177
1843.000000	60.426558
1842.000000	60.378026
1841.000000	60.310695
1840.000000	60.243183
1839.000000	60.190164
1838.000000	60.158602
1837.000000	60.145015
1836.000000	60.145144
1835.000000	60.158180
1834.000000	60.175751
1833.000000	60.177306
1832.000000	60.140241
1831.000000	60.066382
1830.000000	60.008297
1829.000000	60.003750
1828.000000	60.013110
1827.000000	59.989572
1826.000000	59.931487
1825.000000	59.869642
1824.000000	59.831594
1823.000000	59.811040
1822.000000	59.789713
1821.000000	59.762867
1820.000000	59.736644
1819.000000	59.718909
1818.000000	59.710636
1817.000000	59.702832
1816.000000	59.688049
1815.000000	59.659547
1814.000000	59.604073
1813.000000	59.513707
1812.000000	59.403734
1811.000000	59.313678
1810.000000	59.262051
1809.000000	59.225974
1808.000000	59.187075
1807.000000	59.154470
1806.000000	59.134687
1805.000000	59.114092
1804.000000	59.081353
1803.000000	59.042849
1802.000000	59.009272
1801.000000	58.986961
1800.000000	58.970638
1799.000000	58.947037
1798.000000	58.900169
1797.000000	58.833986
1796.000000	58.781675
1795.000000	58.766246
1794.000000	58.757119
1793.000000	58.708646
1792.000000	58.636693
1791.000000	58.589233
1790.000000	58.561196
1789.000000	58.529128
1788.000000	58.494775
1787.000000	58.470336
1786.000000	58.456336
1785.000000	58.440093
1784.000000	58.408590
1783.000000	58.352405
1782.000000	58.267361
1781.000000	58.174862
1780.000000	58.106912
1779.000000	58.066151
1778.000000	58.017193
1777.000000	57.947538
1776.000000	57.895593
1775.000000	57.891659
1774.000000	57.899210
1773.000000	57.871908
1772.000000	57.844701
1771.000000	57.851663
1770.000000	57.854174
1769.000000	57.821220
1768.000000	57.761624
1767.000000	57.695711
1766.000000	57.625107
1765.000000	57.543005
1764.000000	57.446545
1763.000000	57.338968
1762.000000	57.239003
1761.000000	57.158533
1760.000000	57.079876
1759.000000	57.002782
1758.000000	56.936084
1757.000000	56.891848
1756.000000	56.882582
1755.000000	56.896250
1754.000000	56.908257
1753.000000	56.887996
1752.000000	56.803945
1751.000000	56.655627
1750.000000	56.472670
1749.000000	56.286902
1748.000000	56.138509
1747.000000	56.036077
1746.000000	55.939500
1745.000000	55.820201
1744.000000	55.706964
1743.000000	55.652613
1742.000000	55.651044
1741.000000	55.634293
1740.000000	55.567288
1739.000000	55.499308
1738.000000	55.482886
1737.000000	55.522107
1736.000000	55.557324
1735.000000	55.487060
1734.000000	55.303751
1733.000000	55.047380
1732.000000	54.712095
1731.000000	54.377696
1730.000000	54.119463
1729.000000	53.932135
1728.000000	53.776110
1727.000000	53.622893
1726.000000	53.458131
1725.000000	53.275403
1724.000000	53.091111
1723.000000	52.945021
1722.000000	52.853566
1721.000000	52.789580
1720.000000	52.693459
1719.000000	52.501158
1718.000000	52.223473
1717.000000	51.923929
1716.000000	51.610218
1715.000000	51.293151
1714.000000	50.998096
1713.000000	50.711512
1712.000000	50.421450
1711.000000	50.146374
1710.000000	49.901213
1709.000000	49.670776
1708.000000	49.424057
1707.000000	49.140765
1706.000000	48.839927
1705.000000	48.582610
1704.000000	48.428163
1703.000000	48.390543
1702.000000	48.363945
1701.000000	48.137048
1700.000000	47.694146
1699.000000	47.226807
1698.000000	46.820094
1697.000000	46.449882
1696.000000	46.078667
1695.000000	45.702915
1694.000000	45.303351
1693.000000	44.890387
1692.000000	44.493098
1691.000000	44.111882
1690.000000	43.742825
1689.000000	43.418031
1688.000000	43.184735
1687.000000	43.033948
1686.000000	42.829230
1685.000000	42.388831
1684.000000	41.815692
1683.000000	41.319187
1682.000000	40.857007
1681.000000	40.401689
1680.000000	39.999533
1679.000000	39.693388
1678.000000	39.462725
1677.000000	39.217643
1676.000000	38.878436
1675.000000	38.467900
1674.000000	38.053740
1673.000000	37.656397
1672.000000	37.269506
1671.000000	36.874977
1670.000000	36.456009
1669.000000	36.024350
1668.000000	35.604292
1667.000000	35.222374
1666.000000	34.884947
1665.000000	34.550278
1664.000000	34.170882
1663.000000	33.763988
1662.000000	33.377817
1661.000000	33.012086
1660.000000	32.652410
1659.000000	32.312027
1658.000000	32.013588
1657.000000	31.780644
1656.000000	31.624905
1655.000000	31.469512
1654.000000	31.151500
1653.000000	30.691669
1652.000000	30.212278
1651.000000	29.736116
1650.000000	29.338086
1649.000000	29.000357
1648.000000	28.661166
1647.000000	28.338104
1646.000000	28.072979
1645.000000	27.801789
1644.000000	27.492087
1643.000000	27.190810
1642.000000	26.918382
1641.000000	26.655721
1640.000000	26.401332
1639.000000	26.182903
1638.000000	25.997399
1637.000000	25.785768
1636.000000	25.530907
1635.000000	25.285154
1634.000000	25.048433
1633.000000	24.802179
1632.000000	24.573608
1631.000000	24.384636
1630.000000	24.218261
1629.000000	24.042897
1628.000000	23.864220
1627.000000	23.715772
1626.000000	23.597772
1625.000000	23.470445
1624.000000	23.312752
1623.000000	23.159381
1622.000000	23.040734
1621.000000	22.947622
1620.000000	22.879947
1619.000000	22.846709
1618.000000	22.826539
1617.000000	22.786344
1616.000000	22.728716
1615.000000	22.671312
1614.000000	22.624158
1613.000000	22.589082
1612.000000	22.564387
1611.000000	22.554177
1610.000000	22.558020
1609.000000	22.566472
1608.000000	22.579761
1607.000000	22.609837
1606.000000	22.654430
1605.000000	22.697553
1604.000000	22.736919
1603.000000	22.789782
1602.000000	22.864762
1601.000000	22.949233
1600.000000	23.032919
1599.000000	23.118843
1598.000000	23.205837
1597.000000	23.282483
1596.000000	23.347465
1595.000000	23.415323
1594.000000	23.490972
1593.000000	23.561063
1592.000000	23.619191
1591.000000	23.677468
1590.000000	23.744971
1589.000000	23.816137
1588.000000	23.887052
1587.000000	23.964992
1586.000000	24.051763
1585.000000	24.136843
1584.000000	24.216133
1583.000000	24.296234
1582.000000	24.376470
1581.000000	24.447618
1580.000000	24.514767
1579.000000	24.594714
1578.000000	24.683406
1577.000000	24.754091
1576.000000	24.803795
1575.000000	24.837336
1574.000000	24.850088
1573.000000	24.866341
1572.000000	24.906833
1571.000000	24.964635
1570.000000	25.034314
1569.000000	25.117961
1568.000000	25.194858
1567.000000	25.251870
1566.000000	25.302630
1565.000000	25.359991
1564.000000	25.439899
1563.000000	25.567327
1562.000000	25.748935
1561.000000	25.929173
1560.000000	25.987120
1559.000000	26.013443
1558.000000	26.143003
1557.000000	26.198423
1556.000000	26.182219
1555.000000	26.209312
1554.000000	26.296271
1553.000000	26.395544
1552.000000	26.476353
1551.000000	26.565949
1550.000000	26.701169
1549.000000	26.876752
1548.000000	27.053723
1547.000000	27.211257
1546.000000	27.352214
1545.000000	27.490884
1544.000000	27.656496
1543.000000	27.868198
1542.000000	28.109969
1541.000000	28.362783
1540.000000	28.678125
1539.000000	29.032000
1538.000000	29.282677
1537.000000	29.436871
1536.000000	29.600179
1535.000000	29.824288
1534.000000	30.113298
1533.000000	30.448079
1532.000000	30.767477
1531.000000	31.037784
1530.000000	31.287498
1529.000000	31.542361
1528.000000	31.816915
1527.000000	32.132490
1526.000000	32.492947
1525.000000	32.864344
1524.000000	33.224077
1523.000000	33.595712
1522.000000	34.024022
1521.000000	34.496889
1520.000000	34.901228
1519.000000	35.187437
1518.000000	35.437678
1517.000000	35.738696
1516.000000	36.105190
1515.000000	36.479191
1514.000000	36.816554
1513.000000	37.112845
1512.000000	37.369838
1511.000000	37.610389
1510.000000	37.864856
1509.000000	38.145126
1508.000000	38.468454
1507.000000	38.992458
1506.000000	39.697781
1505.000000	40.185585
1504.000000	40.381961
1503.000000	40.530349
1502.000000	40.766123
1501.000000	41.085349
1500.000000	41.437917
1499.000000	41.803159
1498.000000	42.184099
1497.000000	42.565959
1496.000000	42.910284
1495.000000	43.194199
1494.000000	43.433656
1493.000000	43.655744
1492.000000	43.869024
1491.000000	44.085452
1490.000000	44.344646
1489.000000	44.651425
1488.000000	44.956895
1487.000000	45.239638
1486.000000	45.483607
1485.000000	45.653145
1484.000000	45.745265
1483.000000	45.791508
1482.000000	45.814256
1481.000000	45.807821
1480.000000	45.769771
1479.000000	45.704472
1478.000000	45.587299
1477.000000	45.382689
1476.000000	45.108051
1475.000000	44.790334
1474.000000	44.346369
1473.000000	43.655800
1472.000000	42.749853
1471.000000	41.743127
1470.000000	40.661157
1469.000000	39.472392
1468.000000	38.155842
1467.000000	36.666713
1466.000000	34.886672
1465.000000	32.767713
1464.000000	30.511414
1463.000000	28.388301
1462.000000	26.467108
1461.000000	24.679932
1460.000000	22.977606
1459.000000	21.299924
1458.000000	19.521737
1457.000000	17.686829
1456.000000	16.148518
1455.000000	15.115512
1454.000000	14.450051
1453.000000	13.986471
1452.000000	13.695592
1451.000000	13.599097
1450.000000	13.680429
1449.000000	13.917466
1448.000000	14.326133
1447.000000	14.892233
1446.000000	15.540662
1445.000000	16.223557
1444.000000	16.956598
1443.000000	17.749264
1442.000000	18.562805
1441.000000	19.356161
1440.000000	20.131177
1439.000000	20.922029
1438.000000	21.767485
1437.000000	22.684822
1436.000000	23.608939
1435.000000	24.418323
1434.000000	25.098311
1433.000000	25.739274
1432.000000	26.400837
1431.000000	27.069315
1430.000000	27.705598
1429.000000	28.283881
1428.000000	28.779863
1427.000000	29.174976
1426.000000	29.478423
1425.000000	29.724642
1424.000000	29.946809
1423.000000	30.157368
1422.000000	30.355296
1421.000000	30.528932
1420.000000	30.648258
1419.000000	30.711414
1418.000000	30.761871
1417.000000	30.826278
1416.000000	30.910545
1415.000000	31.013323
1414.000000	31.125551
1413.000000	31.243091
1412.000000	31.366031
1411.000000	31.491045
1410.000000	31.615178
1409.000000	31.735486
1408.000000	31.842853
1407.000000	31.928510
1406.000000	31.998583
1405.000000	32.076940
1404.000000	32.175919
1403.000000	32.281302
1402.000000	32.381544
1401.000000	32.480148
1400.000000	32.582590
1399.000000	32.692754
1398.000000	32.810954
1397.000000	32.932743
1396.000000	33.054094
1395.000000	33.166562
1394.000000	33.247835
1393.000000	33.267402
1392.000000	33.210183
1391.000000	33.080249
1390.000000	32.867981
1389.000000	32.524088
1388.000000	31.992162
1387.000000	31.311068
1386.000000	30.667415
1385.000000	30.302151
1384.000000	30.377800
1383.000000	30.905523
1382.000000	31.731437
1381.000000	32.615106
1380.000000	33.367073
1379.000000	33.914894
1378.000000	34.274791
1377.000000	34.497616
1376.000000	34.635770
1375.000000	34.738507
1374.000000	34.847261
1373.000000	34.968380
1372.000000	35.073702
1371.000000	35.141531
1370.000000	35.173776
1369.000000	35.187597
1368.000000	35.196545
1367.000000	35.197120
1366.000000	35.175905
1365.000000	35.122040
1364.000000	35.036050
1363.000000	34.937074
1362.000000	34.845752
1361.000000	34.755753
1360.000000	34.647573
1359.000000	34.520516
1358.000000	34.396277
1357.000000	34.305136
1356.000000	34.274196
1355.000000	34.321295
1354.000000	34.450342
1353.000000	34.645564
1352.000000	34.875779
1351.000000	35.106864
1350.000000	35.307294
1349.000000	35.449027
1348.000000	35.503835
1347.000000	35.445476
1346.000000	35.254973
1345.000000	34.922734
1344.000000	34.446023
1343.000000	33.819914
1342.000000	33.034957
1341.000000	32.087930
1340.000000	31.001344
1339.000000	29.822620
1338.000000	28.584475
1337.000000	27.283705
1336.000000	25.905765
1335.000000	24.452903
1334.000000	22.945330
1333.000000	21.408609
1332.000000	19.876662
1331.000000	18.396311
1330.000000	17.009524
1329.000000	15.735208
1328.000000	14.578139
1327.000000	13.539116
1326.000000	12.605761
1325.000000	11.752826
1324.000000	10.960975
1323.000000	10.227021
1322.000000	9.547975
1321.000000	8.915640
1320.000000	8.342166
1319.000000	7.867234
1318.000000	7.527481
1317.000000	7.329316
1316.000000	7.257107
1315.000000	7.290951
1314.000000	7.402568
1313.000000	7.558878
1312.000000	7.742235
1311.000000	7.954672
1310.000000	8.204192
1309.000000	8.497641
1308.000000	8.848969
1307.000000	9.274144
1306.000000	9.770656
1305.000000	10.319176
1304.000000	10.903512
1303.000000	11.516041
1302.000000	12.146144
1301.000000	12.778274
1300.000000	13.403604
1299.000000	14.019382
1298.000000	14.616969
1297.000000	15.183407
1296.000000	15.715991
1295.000000	16.226651
1294.000000	16.733204
1293.000000	17.254678
1292.000000	17.811222
1291.000000	18.416574
1290.000000	19.070394
1289.000000	19.763941
1288.000000	20.490135
1287.000000	21.241699
1286.000000	22.003835
1285.000000	22.757428
1284.000000	23.486434
1283.000000	24.176359
1282.000000	24.809562
1281.000000	25.370120
1280.000000	25.851374
1279.000000	26.258589
1278.000000	26.610111
1277.000000	26.936691
1276.000000	27.275637
1275.000000	27.658151
1274.000000	28.100402
1273.000000	28.605693
1272.000000	29.170467
1271.000000	29.785719
1270.000000	30.438458
1269.000000	31.116600
1268.000000	31.810163
1267.000000	32.509211
1266.000000	33.204473
1265.000000	33.889573
1264.000000	34.558899
1263.000000	35.205783
1262.000000	35.826254
1261.000000	36.422080
1260.000000	36.994751
1259.000000	37.539431
1258.000000	38.051555
1257.000000	38.531821
1256.000000	38.981480
1255.000000	39.398344
1254.000000	39.780288
1253.000000	40.128954
1252.000000	40.443145
1251.000000	40.716190
1250.000000	40.943390
1249.000000	41.123982
1248.000000	41.255826
1247.000000	41.332651
1246.000000	41.352405
1245.000000	41.321605
1244.000000	41.245626
1243.000000	41.125322
1242.000000	40.962331
1241.000000	40.761412
1240.000000	40.525937
1239.000000	40.254691
1238.000000	39.948720
1237.000000	39.614101
1236.000000	39.257488
1235.000000	38.885567
1234.000000	38.508776
1233.000000	38.141522
1232.000000	37.797260
1231.000000	37.486860
1230.000000	37.220510
1229.000000	37.007897
1228.000000	36.853438
1227.000000	36.755578
1226.000000	36.711928
1225.000000	36.719607
1224.000000	36.773783
1223.000000	36.866819
1222.000000	36.992385
1221.000000	37.149502
1220.000000	37.338032
1219.000000	37.556469
1218.000000	37.803598
1217.000000	38.078889
1216.000000	38.379869
1215.000000	38.700217
1214.000000	39.035012
1213.000000	39.382949
1212.000000	39.740928
1211.000000	40.101849
1210.000000	40.459781
1209.000000	40.813605
1208.000000	41.162858
1207.000000	41.505459
1206.000000	41.842367
1205.000000	42.178742
1204.000000	42.517234
1203.000000	42.855210
1202.000000	43.190840
1201.000000	43.525704
1200.000000	43.859467
1199.000000	44.188645
1198.000000	44.513640
1197.000000	44.840179
1196.000000	45.170897
1195.000000	45.502736
1194.000000	45.834394
1193.000000	46.168149
1192.000000	46.501572
1191.000000	46.825230
1190.000000	47.132713
1189.000000	47.424928
1188.000000	47.702226
1187.000000	47.962536
1186.000000	48.210122
1185.000000	48.457293
1184.000000	48.712893
1183.000000	48.975909
1182.000000	49.243005
1181.000000	49.513384
1180.000000	49.784070
1179.000000	50.048749
1178.000000	50.303336
1177.000000	50.544922
1176.000000	50.763669
1175.000000	50.947190
1174.000000	51.095113
1173.000000	51.219634
1172.000000	51.332538
1171.000000	51.441297
1170.000000	51.557700
1169.000000	51.696757
1168.000000	51.863222
1167.000000	52.049520
1166.000000	52.248325
1165.000000	52.456343
1164.000000	52.664817
1163.000000	52.859652
1162.000000	53.034602
1161.000000	53.193510
1160.000000	53.337985
1159.000000	53.464993
1158.000000	53.577589
1157.000000	53.685791
1156.000000	53.793620
1155.000000	53.897005
1154.000000	53.996713
1153.000000	54.100393
1152.000000	54.210461
1151.000000	54.322876
1150.000000	54.440373
1149.000000	54.573781
1148.000000	54.727196
1147.000000	54.893397
1146.000000	55.065665
1145.000000	55.241192
1144.000000	55.410541
1143.000000	55.557316
1142.000000	55.673052
1141.000000	55.761600
1140.000000	55.827518
1139.000000	55.874314
1138.000000	55.915582
1137.000000	55.973839
1136.000000	56.064387
1135.000000	56.190505
1134.000000	56.353513
1133.000000	56.553538
1132.000000	56.777487
1131.000000	56.999798
1130.000000	57.199733
1129.000000	57.367801
1128.000000	57.495385
1127.000000	57.574169
1126.000000	57.609813
1125.000000	57.620534
1124.000000	57.620415
1123.000000	57.614900
1122.000000	57.612036
1121.000000	57.623052
1120.000000	57.647322
1119.000000	57.671692
1118.000000	57.686528
1117.000000	57.689215
1116.000000	57.672337
1115.000000	57.621638
1114.000000	57.530276
1113.000000	57.400365
1112.000000	57.227030
1111.000000	56.997635
1110.000000	56.704017
1109.000000	56.345313
1108.000000	55.916776
1107.000000	55.408727
1106.000000	54.823873
1105.000000	54.176097
1104.000000	53.474886
1103.000000	52.722671
1102.000000	51.919774
1101.000000	51.065834
1100.000000	50.145544
1099.000000	49.130548
1098.000000	47.997515
1097.000000	46.727648
1096.000000	45.306093
1095.000000	43.723438
1094.000000	41.983726
1093.000000	40.106418
1092.000000	38.113829
1091.000000	36.031809
1090.000000	33.891279
1089.000000	31.725140
1088.000000	29.567270
1087.000000	27.452836
1086.000000	25.415200
1085.000000	23.482717
1084.000000	21.681387
1083.000000	20.029386
1082.000000	18.534644
1081.000000	17.193849
1080.000000	16.000960
1079.000000	14.952219
1078.000000	14.031966
1077.000000	13.219984
1076.000000	12.503213
1075.000000	11.873917
1074.000000	11.321790
1073.000000	10.830715
1072.000000	10.393862
1071.000000	10.012224
1070.000000	9.680186
1069.000000	9.388805
1068.000000	9.135654
1067.000000	8.924515
1066.000000	8.752676
1065.000000	8.611647
1064.000000	8.502063
1063.000000	8.429647
1062.000000	8.392305
1061.000000	8.382829
1060.000000	8.401647
1059.000000	8.455986
1058.000000	8.544871
1057.000000	8.661686
1056.000000	8.808225
1055.000000	8.991008
1054.000000	9.208701
1053.000000	9.453347
1052.000000	9.724594
1051.000000	10.028763
1050.000000	10.363341
1049.000000	10.719516
1048.000000	11.095231
1047.000000	11.494469
1046.000000	11.916651
1045.000000	12.357458
1044.000000	12.820387
1043.000000	13.313398
1042.000000	13.838146
1041.000000	14.393046
1040.000000	14.980955
1039.000000	15.607073
1038.000000	16.269498
1037.000000	16.961293
1036.000000	17.679556
1035.000000	18.421408
1034.000000	19.177712
1033.000000	19.937703
1032.000000	20.697440
1031.000000	21.458121
1030.000000	22.218851
1029.000000	22.978409
1028.000000	23.739732
1027.000000	24.506925
1026.000000	25.280663
1025.000000	26.060260
1024.000000	26.846316
1023.000000	27.637247
1022.000000	28.426791
1021.000000	29.207547
1020.000000	29.974775
1019.000000	30.725092
1018.000000	31.455616
1017.000000	32.166229
1016.000000	32.858308
1015.000000	33.532268
1014.000000	34.188354
1013.000000	34.828967
1012.000000	35.457737
1011.000000	36.076325
1010.000000	36.686210
1009.000000	37.290808
1008.000000	37.892354
1007.000000	38.489722
1006.000000	39.081160
1005.000000	39.666839
1004.000000	40.245438
1003.000000	40.811420
1002.000000	41.359414
1001.000000	41.886228
1000.000000	42.387663
999.000000	42.858832
998.000000	43.300645
997.000000	43.722575
996.000000	44.135363
995.000000	44.546693
994.000000	44.965127
993.000000	45.399943
992.000000	45.853657
991.000000	46.318773
990.000000	46.784427
989.000000	47.240716
988.000000	47.674616
987.000000	48.071936
986.000000	48.427227
985.000000	48.746865
984.000000	49.041049
983.000000	49.319143
982.000000	49.595058
981.000000	49.886063
980.000000	50.201804
979.000000	50.540903
978.000000	50.898562
977.000000	51.269246
976.000000	51.640030
975.000000	51.991791
974.000000	52.312391
973.000000	52.600991
972.000000	52.859601
971.000000	53.089953
970.000000	53.300374
969.000000	53.505532
968.000000	53.714217
967.000000	53.926592
966.000000	54.144108
965.000000	54.371547
964.000000	54.607859
963.000000	54.845465
962.000000	55.081857
961.000000	55.322189
960.000000	55.567557
959.000000	55.811143
958.000000	56.047268
957.000000	56.273732
956.000000	56.482849
955.000000	56.661167
954.000000	56.803077
953.000000	56.914042
952.000000	57.000378
951.000000	57.067882
950.000000	57.131603
949.000000	57.214863
948.000000	57.334300
947.000000	57.493976
946.000000	57.693323
945.000000	57.927539
944.000000	58.177619
943.000000	58.412665
942.000000	58.607442
941.000000	58.749985
940.000000	58.832699
939.000000	58.853055
938.000000	58.825731
937.000000	58.780588
936.000000	58.744935
935.000000	58.735954
934.000000	58.768494
933.000000	58.853935
932.000000	58.987307
931.000000	59.147402
930.000000	59.312844
929.000000	59.468124
928.000000	59.595091
927.000000	59.674498
926.000000	59.701559
925.000000	59.686840
924.000000	59.640189
923.000000	59.565386
922.000000	59.470453
921.000000	59.369875
920.000000	59.271548
919.000000	59.174494
918.000000	59.081768
917.000000	59.002854
916.000000	58.941606
915.000000	58.892912
914.000000	58.852611
913.000000	58.818502
912.000000	58.778321
911.000000	58.709869
910.000000	58.594612
909.000000	58.421569
908.000000	58.179880
907.000000	57.860969
906.000000	57.474108
905.000000	57.045909
904.000000	56.602490
903.000000	56.163286
902.000000	55.747615
901.000000	55.372557
900.000000	55.038177
899.000000	54.724438
898.000000	54.405043
897.000000	54.053914
896.000000	53.641867
895.000000	53.141534
894.000000	52.541674
893.000000	51.850982
892.000000	51.084073
891.000000	50.255928
890.000000	49.387036
889.000000	48.499234
888.000000	47.605436
887.000000	46.706650
886.000000	45.800569
885.000000	44.885004
884.000000	43.951982
883.000000	42.988886
882.000000	41.985905
881.000000	40.938512
880.000000	39.842965
879.000000	38.694802
878.000000	37.494854
877.000000	36.249982
876.000000	34.968515
875.000000	33.659227
874.000000	32.334043
873.000000	31.009097
872.000000	29.701089
871.000000	28.423429
870.000000	27.184517
869.000000	25.989078
868.000000	24.838226
867.000000	23.728665
866.000000	22.653725
865.000000	21.606343
864.000000	20.583258
863.000000	19.582722
862.000000	18.602388
861.000000	17.643934
860.000000	16.715636
859.000000	15.830349
858.000000	14.999835
857.000000	14.236766
856.000000	13.560136
855.000000	12.987394
854.000000	12.527887
853.000000	12.182577
852.000000	11.946092
851.000000	11.803778
850.000000	11.726509
849.000000	11.682979
848.000000	11.652297
847.000000	11.622710
846.000000	11.587124
845.000000	11.544973
844.000000	11.506532
843.000000	11.485217
842.000000	11.488539
841.000000	11.522438
840.000000	11.596418
839.000000	11.717461
838.000000	11.881413
837.000000	12.076103
836.000000	12.287781
835.000000	12.495992
834.000000	12.667848
833.000000	12.769117
832.000000	12.785444
831.000000	12.734973
830.000000	12.667135
829.000000	12.655409
828.000000	12.782656
827.000000	13.112918
826.000000	13.665619
825.000000	14.405290
824.000000	15.255896
823.000000	16.134382
822.000000	16.985002
821.000000	17.794999
820.000000	18.575663
819.000000	19.334803
818.000000	20.069991
817.000000	20.778220
816.000000	21.458258
815.000000	22.105166
814.000000	22.713680
813.000000	23.286669
812.000000	23.834108
811.000000	24.363903
810.000000	24.881827
809.000000	25.397388
808.000000	25.921226
807.000000	26.458779
806.000000	27.011733
805.000000	27.582037
804.000000	28.166510
803.000000	28.751223
802.000000	29.320358
801.000000	29.867460
800.000000	30.391983
799.000000	30.891472
798.000000	31.366471
797.000000	31.828448
796.000000	32.293170
795.000000	32.769960
794.000000	33.263792
793.000000	33.780888
792.000000	34.322684
791.000000	34.878463
790.000000	35.431621
789.000000	35.969247
788.000000	36.480569
787.000000	36.954695
786.000000	37.388444
785.000000	37.790859
784.000000	38.173926
783.000000	38.544377
782.000000	38.909495
781.000000	39.281268
780.000000	39.667111
779.000000	40.063501
778.000000	40.464215
777.000000	40.867320
776.000000	41.268467
775.000000	41.656734
774.000000	42.024987
773.000000	42.376715
772.000000	42.716709
771.000000	43.043556
770.000000	43.356875
769.000000	43.662321
768.000000	43.961883
767.000000	44.248619
766.000000	44.517830
765.000000	44.774965
764.000000	45.027586
763.000000	45.279568
762.000000	45.539206
761.000000	45.821606
760.000000	46.134267
759.000000	46.467749
758.000000	46.805611
757.000000	47.133357
756.000000	47.432747
755.000000	47.680253
754.000000	47.862173
753.000000	47.983989
752.000000	48.060638
751.000000	48.108762
750.000000	48.152681
749.000000	48.224311
748.000000	48.346308
747.000000	48.521597
746.000000	48.742041
745.000000	48.994681
744.000000	49.254033
743.000000	49.483039
742.000000	49.652626
741.000000	49.753807
740.000000	49.788610
739.000000	49.764340
738.000000	49.703013
737.000000	49.641201
736.000000	49.609778
735.000000	49.621444
734.000000	49.681301
733.000000	49.794005
732.000000	49.953106
731.000000	50.137623
730.000000	50.329417
729.000000	50.523358
728.000000	50.715684
727.000000	50.897491
726.000000	51.067732
725.000000	51.238381
724.000000	51.416775
723.000000	51.595593
722.000000	51.767554
721.000000	51.935617
720.000000	52.100634
719.000000	52.255133
718.000000	52.399899
717.000000	52.553838
716.000000	52.738224
715.000000	52.962822
714.000000	53.233060
713.000000	53.553700
712.000000	53.913757
711.000000	54.280553
710.000000	54.618763
709.000000	54.904042
708.000000	55.115891
707.000000	55.238255
706.000000	55.278636
705.000000	55.273105
704.000000	55.264468
703.000000	55.285803
702.000000	55.367548
701.000000	55.537886
700.000000	55.801679
699.000000	56.132420
698.000000	56.492499
697.000000	56.847896
696.000000	57.159646
695.000000	57.386691
694.000000	57.513820
693.000000	57.561802
692.000000	57.561907
691.000000	57.538342
690.000000	57.520454
689.000000	57.547165
688.000000	57.639764
687.000000	57.785234
686.000000	57.960762
685.000000	58.154084
684.000000	58.349645
683.000000	58.522235
682.000000	58.661208
681.000000	58.781188
680.000000	58.896703
679.000000	59.007023
678.000000	59.114136
677.000000	59.226598
676.000000	59.336229
675.000000	59.415274
674.000000	59.446658
673.000000	59.442256
672.000000	59.427951
671.000000	59.424200
670.000000	59.442792
669.000000	59.486791
668.000000	59.545941
667.000000	59.629728
666.000000	59.756892
665.000000	59.923432
664.000000	60.111235
663.000000	60.284773
662.000000	60.395723
661.000000	60.412331
660.000000	60.329566
659.000000	60.166489
658.000000	59.968070
657.000000	59.790429
656.000000	59.677896
655.000000	59.656377
654.000000	59.732558
653.000000	59.890678
652.000000	60.094902
651.000000	60.297457
650.000000	60.451288
649.000000	60.522999
648.000000	60.500039
647.000000	60.393140
646.000000	60.235261
645.000000	60.069570
644.000000	59.930592
643.000000	59.834597
642.000000	59.781658
641.000000	59.758777
640.000000	59.740857
639.000000	59.698952
638.000000	59.613189
637.000000	59.478173
636.000000	59.298991
635.000000	59.088182
634.000000	58.865418
633.000000	58.647300
632.000000	58.434598
631.000000	58.219310
630.000000	58.002836
629.000000	57.797480
628.000000	57.610979
627.000000	57.437532
626.000000	57.264995
625.000000	57.086069
624.000000	56.903038
623.000000	56.730084
622.000000	56.594300
621.000000	56.523344
620.000000	56.525286
619.000000	56.581573
618.000000	56.657348
617.000000	56.714509
616.000000	56.717626
615.000000	56.640301
614.000000	56.476144
613.000000	56.243570
612.000000	55.978304
611.000000	55.724876
610.000000	55.527405
609.000000	55.414499
608.000000	55.387608
607.000000	55.423771
606.000000	55.488288
605.000000	55.543063
604.000000	55.549461
603.000000	55.478378
602.000000	55.326630
601.000000	55.119398
600.000000	54.894972
599.000000	54.688325
598.000000	54.526267
597.000000	54.424971
596.000000	54.384330
595.000000	54.388623
594.000000	54.417155
593.000000	54.453452
592.000000	54.483873
591.000000	54.494286
590.000000	54.476217
589.000000	54.436919
588.000000	54.397829
587.000000	54.386955
586.000000	54.430447
585.000000	54.537785
584.000000	54.690236
583.000000	54.849311
582.000000	54.981091
581.000000	55.067912
580.000000	55.100363
579.000000	55.073708
578.000000	55.003946
577.000000	54.934016
576.000000	54.911804
575.000000	54.962977
574.000000	55.083826
573.000000	55.252850
572.000000	55.437971
571.000000	55.600189
570.000000	55.706251
569.000000	55.739090
568.000000	55.694330
567.000000	55.582312
566.000000	55.439468
565.000000	55.320457
564.000000	55.270547
563.000000	55.310634
562.000000	55.443101
561.000000	55.653374
560.000000	55.900787
559.000000	56.123418
558.000000	56.266654
557.000000	56.304550
556.000000	56.236203
555.000000	56.082311
554.000000	55.889945
553.000000	55.719504
552.000000	55.616287
551.000000	55.600497
550.000000	55.675977
549.000000	55.829992
548.000000	56.024419
547.000000	56.205929
546.000000	56.335979
545.000000	56.403552
544.000000	56.409294
543.000000	56.359921
542.000000	56.284477
541.000000	56.232118
540.000000	56.239377
539.000000	56.310886
538.000000	56.433684
537.000000	56.591404
536.000000	56.758860
535.000000	56.901067
534.000000	56.995134
533.000000	57.043648
532.000000	57.065634
531.000000	57.090690
530.000000	57.160330
529.000000	57.313984
528.000000	57.564226
527.000000	57.889107
526.000000	58.248622
525.000000	58.593383
524.000000	58.859852
523.000000	58.991290
522.000000	58.975274
521.000000	58.848229
520.000000	58.666956
519.000000	58.489165
518.000000	58.377925
517.000000	58.390988
516.000000	58.539257
515.000000	58.774580
514.000000	59.025266
513.000000	59.224156
512.000000	59.307343
511.000000	59.222244
510.000000	58.959239
509.000000	58.558180
508.000000	58.080534
507.000000	57.594318
506.000000	57.168955
505.000000	56.845824
504.000000	56.609292
503.000000	56.405027
502.000000	56.187228
501.000000	55.932634
500.000000	55.626653
499.000000	55.273979
498.000000	54.929677
497.000000	54.683179
496.000000	54.595210
495.000000	54.663555
494.000000	54.847231
493.000000	55.101730
492.000000	55.377193
491.000000	55.615155
490.000000	55.786891
489.000000	55.919013
488.000000	56.064999
487.000000	56.263142
486.000000	56.532326
485.000000	56.887390
484.000000	57.333500
483.000000	57.853474
482.000000	58.417815
481.000000	58.999161
480.000000	59.553671
479.000000	60.008115
478.000000	60.297352
477.000000	60.405493
476.000000	60.355037
475.000000	60.179021
474.000000	59.937844
473.000000	59.746008
472.000000	59.725526
471.000000	59.904985
470.000000	60.233501
469.000000	60.662966
468.000000	61.141175
467.000000	61.578566
466.000000	61.890840
465.000000	62.061727
464.000000	62.119341
463.000000	62.095036
462.000000	62.044314
461.000000	62.055485
460.000000	62.183451
459.000000	62.409793
458.000000	62.698001
457.000000	63.022124
456.000000	63.315168
455.000000	63.504593
454.000000	63.586561
453.000000	63.609100
452.000000	63.615710
451.000000	63.619122
450.000000	63.647757
449.000000	63.769901
448.000000	64.030913
447.000000	64.394954
446.000000	64.780707
445.000000	65.124923
444.000000	65.370508
443.000000	65.455154
442.000000	65.371794
441.000000	65.196540
440.000000	65.016666
439.000000	64.892564
438.000000	64.894895
437.000000	65.109364
436.000000	65.548570
435.000000	66.097399
434.000000	66.611700
433.000000	67.014891
432.000000	67.242401
431.000000	67.209395
430.000000	66.913718
429.000000	66.474040
428.000000	66.014561
427.000000	65.594390
426.000000	65.270415
425.000000	65.113276
424.000000	65.116061
423.000000	65.169142
422.000000	65.166141
421.000000	65.028866
420.000000	64.583988
419.000000	63.713384
418.000000	62.668781
417.000000	61.808725
416.000000	61.230096
415.000000	60.862993
414.000000	60.663059
413.000000	60.663138
412.000000	60.863757
411.000000	61.158306
410.000000	61.432079
409.000000	61.666885
408.000000	61.872601
407.000000	62.022960
406.000000	62.163898
405.000000	62.463395
404.000000	63.037824
403.000000	63.804527
402.000000	64.617060
401.000000	65.445352
400.000000	66.287908
