PE IR       SUBTECH     SPECTRUM    ASCII       PEDS        4.00        
   -1
23MS006_nitrito.asc
24/09/03
16:20:48.00
24/09/03
16:20:48.00
Administrator
Sample 1095 By Administrator Date Tuesday, September 03 2024
400.000000
#HDR
-1
-1
#GR
cm-1
%T
1.0
0.0
4000.000000
-1.000000
3601
8
90.571174
16.998099
#DATA
4000.000000	80.366128
3999.000000	80.403797
3998.000000	80.443232
3997.000000	80.484060
3996.000000	80.525451
3995.000000	80.566338
3994.000000	80.605726
3993.000000	80.643314
3992.000000	80.679860
3991.000000	80.716590
3990.000000	80.753874
3989.000000	80.791073
3988.000000	80.828003
3987.000000	80.865636
3986.000000	80.904847
3985.000000	80.944991
3984.000000	80.984610
3983.000000	81.023034
3982.000000	81.060593
3981.000000	81.097676
3980.000000	81.134150
3979.000000	81.169859
3978.000000	81.205380
3977.000000	81.241680
3976.000000	81.279119
3975.000000	81.317113
3974.000000	81.354994
3973.000000	81.392531
3972.000000	81.429348
3971.000000	81.464907
3970.000000	81.498816
3969.000000	81.530798
3968.000000	81.560908
3967.000000	81.590166
3966.000000	81.620439
3965.000000	81.653786
3964.000000	81.691295
3963.000000	81.731872
3962.000000	81.772619
3961.000000	81.810457
3960.000000	81.843797
3959.000000	81.873994
3958.000000	81.904123
3957.000000	81.935838
3956.000000	81.968434
3955.000000	82.001001
3954.000000	82.033747
3953.000000	82.067132
3952.000000	82.100670
3951.000000	82.133485
3950.000000	82.164663
3949.000000	82.192693
3948.000000	82.217445
3947.000000	82.241359
3946.000000	82.268550
3945.000000	82.303967
3944.000000	82.350836
3943.000000	82.405524
3942.000000	82.457214
3941.000000	82.497138
3940.000000	82.526563
3939.000000	82.554462
3938.000000	82.587256
3937.000000	82.622557
3936.000000	82.653801
3935.000000	82.680006
3934.000000	82.708726
3933.000000	82.747242
3932.000000	82.793306
3931.000000	82.837549
3930.000000	82.873307
3929.000000	82.902436
3928.000000	82.931141
3927.000000	82.964338
3926.000000	83.004374
3925.000000	83.049602
3924.000000	83.091782
3923.000000	83.122065
3922.000000	83.141321
3921.000000	83.159746
3920.000000	83.185800
3919.000000	83.218493
3918.000000	83.253012
3917.000000	83.289311
3916.000000	83.328840
3915.000000	83.369433
3914.000000	83.409280
3913.000000	83.451823
3912.000000	83.499564
3911.000000	83.548045
3910.000000	83.588938
3909.000000	83.619094
3908.000000	83.641825
3907.000000	83.661900
3906.000000	83.680269
3905.000000	83.695549
3904.000000	83.705734
3903.000000	83.710902
3902.000000	83.717521
3901.000000	83.736815
3900.000000	83.777084
3899.000000	83.833658
3898.000000	83.889207
3897.000000	83.932202
3896.000000	83.966223
3895.000000	84.002500
3894.000000	84.047291
3893.000000	84.098174
3892.000000	84.147097
3891.000000	84.188916
3890.000000	84.218510
3889.000000	84.230380
3888.000000	84.229223
3887.000000	84.238289
3886.000000	84.279104
3885.000000	84.339661
3884.000000	84.383983
3883.000000	84.400121
3882.000000	84.412923
3881.000000	84.449178
3880.000000	84.504921
3879.000000	84.554880
3878.000000	84.583111
3877.000000	84.595979
3876.000000	84.613398
3875.000000	84.651741
3874.000000	84.703777
3873.000000	84.741388
3872.000000	84.748445
3871.000000	84.747034
3870.000000	84.772802
3869.000000	84.823666
3868.000000	84.862278
3867.000000	84.871347
3866.000000	84.877742
3865.000000	84.915183
3864.000000	84.976297
3863.000000	85.028406
3862.000000	85.062179
3861.000000	85.092700
3860.000000	85.131489
3859.000000	85.181722
3858.000000	85.240263
3857.000000	85.296640
3856.000000	85.331965
3855.000000	85.343378
3854.000000	85.357948
3853.000000	85.390163
3852.000000	85.424055
3851.000000	85.448905
3850.000000	85.471292
3849.000000	85.501231
3848.000000	85.538884
3847.000000	85.576155
3846.000000	85.609261
3845.000000	85.641226
3844.000000	85.673794
3843.000000	85.707618
3842.000000	85.740557
3841.000000	85.768947
3840.000000	85.793880
3839.000000	85.820832
3838.000000	85.850781
3837.000000	85.882623
3836.000000	85.915078
3835.000000	85.947860
3834.000000	85.981275
3833.000000	86.018515
3832.000000	86.064746
3831.000000	86.117751
3830.000000	86.167006
3829.000000	86.206552
3828.000000	86.240870
3827.000000	86.279853
3826.000000	86.323814
3825.000000	86.356608
3824.000000	86.362418
3823.000000	86.354466
3822.000000	86.370302
3821.000000	86.425384
3820.000000	86.487188
3819.000000	86.520523
3818.000000	86.529176
3817.000000	86.548242
3816.000000	86.607438
3815.000000	86.690966
3814.000000	86.756099
3813.000000	86.788619
3812.000000	86.810863
3811.000000	86.842468
3810.000000	86.879498
3809.000000	86.909283
3808.000000	86.935374
3807.000000	86.973180
3806.000000	87.018597
3805.000000	87.045780
3804.000000	87.043419
3803.000000	87.035719
3802.000000	87.060443
3801.000000	87.122103
3800.000000	87.183249
3799.000000	87.219837
3798.000000	87.246439
3797.000000	87.286564
3796.000000	87.343131
3795.000000	87.398872
3794.000000	87.440681
3793.000000	87.474420
3792.000000	87.514461
3791.000000	87.564863
3790.000000	87.617872
3789.000000	87.665501
3788.000000	87.706300
3787.000000	87.741431
3786.000000	87.771163
3785.000000	87.795712
3784.000000	87.816542
3783.000000	87.834394
3782.000000	87.852462
3781.000000	87.880662
3780.000000	87.926986
3779.000000	87.983842
3778.000000	88.032496
3777.000000	88.062679
3776.000000	88.080964
3775.000000	88.102058
3774.000000	88.131280
3773.000000	88.160202
3772.000000	88.181683
3771.000000	88.203933
3770.000000	88.235690
3769.000000	88.268339
3768.000000	88.289305
3767.000000	88.303674
3766.000000	88.328862
3765.000000	88.372647
3764.000000	88.421110
3763.000000	88.454033
3762.000000	88.470287
3761.000000	88.490116
3760.000000	88.526963
3759.000000	88.567869
3758.000000	88.597343
3757.000000	88.620546
3756.000000	88.644606
3755.000000	88.664961
3754.000000	88.676761
3753.000000	88.687258
3752.000000	88.703649
3751.000000	88.715517
3750.000000	88.718719
3749.000000	88.733439
3748.000000	88.766563
3747.000000	88.798069
3746.000000	88.819565
3745.000000	88.860486
3744.000000	88.941587
3743.000000	89.025295
3742.000000	89.069747
3741.000000	89.082838
3740.000000	89.092548
3739.000000	89.107560
3738.000000	89.123731
3737.000000	89.153859
3736.000000	89.214650
3735.000000	89.288160
3734.000000	89.336173
3733.000000	89.355705
3732.000000	89.378977
3731.000000	89.423744
3730.000000	89.477163
3729.000000	89.521251
3728.000000	89.558545
3727.000000	89.605538
3726.000000	89.662715
3725.000000	89.708622
3724.000000	89.732796
3723.000000	89.750581
3722.000000	89.778749
3721.000000	89.818340
3720.000000	89.863051
3719.000000	89.908093
3718.000000	89.951500
3717.000000	89.991115
3716.000000	90.018070
3715.000000	90.024579
3714.000000	90.016272
3713.000000	90.011842
3712.000000	90.026045
3711.000000	90.055369
3710.000000	90.091551
3709.000000	90.132644
3708.000000	90.177281
3707.000000	90.222893
3706.000000	90.263847
3705.000000	90.295982
3704.000000	90.322912
3703.000000	90.355018
3702.000000	90.396268
3701.000000	90.437586
3700.000000	90.467976
3699.000000	90.484602
3698.000000	90.493837
3697.000000	90.506243
3696.000000	90.523339
3695.000000	90.534184
3694.000000	90.533182
3693.000000	90.530803
3692.000000	90.539754
3691.000000	90.555328
3690.000000	90.558582
3689.000000	90.542950
3688.000000	90.526952
3687.000000	90.527960
3686.000000	90.540483
3685.000000	90.553555
3684.000000	90.564389
3683.000000	90.571174
3682.000000	90.567545
3681.000000	90.551302
3680.000000	90.529261
3679.000000	90.500572
3678.000000	90.449083
3677.000000	90.376241
3676.000000	90.322339
3675.000000	90.310216
3674.000000	90.308146
3673.000000	90.276422
3672.000000	90.211781
3671.000000	90.151451
3670.000000	90.128527
3669.000000	90.127453
3668.000000	90.120168
3667.000000	90.106337
3666.000000	90.092917
3665.000000	90.078382
3664.000000	90.055844
3663.000000	90.019959
3662.000000	89.971524
3661.000000	89.914309
3660.000000	89.847519
3659.000000	89.765416
3658.000000	89.666583
3657.000000	89.562217
3656.000000	89.467340
3655.000000	89.380790
3654.000000	89.285612
3653.000000	89.168635
3652.000000	89.035778
3651.000000	88.904340
3650.000000	88.777884
3649.000000	88.644152
3648.000000	88.514964
3647.000000	88.417207
3646.000000	88.348635
3645.000000	88.285202
3644.000000	88.213746
3643.000000	88.137485
3642.000000	88.060882
3641.000000	87.978936
3640.000000	87.883463
3639.000000	87.775955
3638.000000	87.661820
3637.000000	87.539380
3636.000000	87.404070
3635.000000	87.263343
3634.000000	87.132942
3633.000000	87.012896
3632.000000	86.881586
3631.000000	86.719385
3630.000000	86.537575
3629.000000	86.367539
3628.000000	86.220402
3627.000000	86.090275
3626.000000	85.974065
3625.000000	85.871779
3624.000000	85.781368
3623.000000	85.693922
3622.000000	85.593642
3621.000000	85.470885
3620.000000	85.328715
3619.000000	85.174712
3618.000000	85.016013
3617.000000	84.861326
3616.000000	84.716152
3615.000000	84.583586
3614.000000	84.463646
3613.000000	84.347318
3612.000000	84.221008
3611.000000	84.079377
3610.000000	83.931615
3609.000000	83.796151
3608.000000	83.683253
3607.000000	83.586245
3606.000000	83.493179
3605.000000	83.397789
3604.000000	83.298845
3603.000000	83.195403
3602.000000	83.083292
3601.000000	82.959935
3600.000000	82.828029
3599.000000	82.691596
3598.000000	82.555195
3597.000000	82.423480
3596.000000	82.298652
3595.000000	82.178968
3594.000000	82.059340
3593.000000	81.933578
3592.000000	81.799907
3591.000000	81.659513
3590.000000	81.517089
3589.000000	81.383011
3588.000000	81.265000
3587.000000	81.156085
3586.000000	81.044195
3585.000000	80.927184
3584.000000	80.810521
3583.000000	80.698410
3582.000000	80.589732
3581.000000	80.480600
3580.000000	80.369012
3579.000000	80.254895
3578.000000	80.137715
3577.000000	80.015984
3576.000000	79.889755
3575.000000	79.760455
3574.000000	79.630149
3573.000000	79.500058
3572.000000	79.370792
3571.000000	79.240026
3570.000000	79.101998
3569.000000	78.955869
3568.000000	78.809210
3567.000000	78.667677
3566.000000	78.529450
3565.000000	78.395841
3564.000000	78.273037
3563.000000	78.164920
3562.000000	78.067305
3561.000000	77.969587
3560.000000	77.862357
3559.000000	77.742243
3558.000000	77.611237
3557.000000	77.474164
3556.000000	77.337288
3555.000000	77.205426
3554.000000	77.079352
3553.000000	76.956033
3552.000000	76.830978
3551.000000	76.700503
3550.000000	76.562525
3549.000000	76.419374
3548.000000	76.278463
3547.000000	76.146341
3546.000000	76.022384
3545.000000	75.901860
3544.000000	75.782938
3543.000000	75.666572
3542.000000	75.552288
3541.000000	75.438024
3540.000000	75.323458
3539.000000	75.209770
3538.000000	75.097431
3537.000000	74.986201
3536.000000	74.876099
3535.000000	74.767388
3534.000000	74.659045
3533.000000	74.550264
3532.000000	74.441597
3531.000000	74.333488
3530.000000	74.224604
3529.000000	74.114370
3528.000000	74.005654
3527.000000	73.901725
3526.000000	73.802239
3525.000000	73.704675
3524.000000	73.607700
3523.000000	73.510356
3522.000000	73.411336
3521.000000	73.311635
3520.000000	73.215835
3519.000000	73.127368
3518.000000	73.043887
3517.000000	72.959733
3516.000000	72.871353
3515.000000	72.778642
3514.000000	72.682170
3513.000000	72.582842
3512.000000	72.483988
3511.000000	72.389519
3510.000000	72.299036
3509.000000	72.208214
3508.000000	72.113752
3507.000000	72.015381
3506.000000	71.914116
3505.000000	71.811699
3504.000000	71.710586
3503.000000	71.612183
3502.000000	71.516296
3501.000000	71.423098
3500.000000	71.333927
3499.000000	71.247967
3498.000000	71.160723
3497.000000	71.067686
3496.000000	70.968698
3495.000000	70.867362
3494.000000	70.767479
3493.000000	70.671557
3492.000000	70.581027
3491.000000	70.494845
3490.000000	70.408463
3489.000000	70.317043
3488.000000	70.219313
3487.000000	70.116733
3486.000000	70.011190
3485.000000	69.905870
3484.000000	69.805846
3483.000000	69.714337
3482.000000	69.628388
3481.000000	69.541314
3480.000000	69.448894
3479.000000	69.351405
3478.000000	69.251470
3477.000000	69.152552
3476.000000	69.058076
3475.000000	68.968777
3474.000000	68.881951
3473.000000	68.794783
3472.000000	68.707002
3471.000000	68.618969
3470.000000	68.529085
3469.000000	68.435509
3468.000000	68.339141
3467.000000	68.242282
3466.000000	68.145842
3465.000000	68.050020
3464.000000	67.955942
3463.000000	67.864067
3462.000000	67.772264
3461.000000	67.678395
3460.000000	67.583684
3459.000000	67.491226
3458.000000	67.402311
3457.000000	67.315849
3456.000000	67.230153
3455.000000	67.143185
3454.000000	67.052237
3453.000000	66.956464
3452.000000	66.858570
3451.000000	66.762330
3450.000000	66.669534
3449.000000	66.580188
3448.000000	66.493359
3447.000000	66.405729
3446.000000	66.312290
3445.000000	66.211392
3444.000000	66.107168
3443.000000	66.005322
3442.000000	65.908392
3441.000000	65.816424
3440.000000	65.729510
3439.000000	65.646508
3438.000000	65.562633
3437.000000	65.471642
3436.000000	65.370511
3435.000000	65.260630
3434.000000	65.145667
3433.000000	65.030722
3432.000000	64.920937
3431.000000	64.818067
3430.000000	64.718708
3429.000000	64.617199
3428.000000	64.509719
3427.000000	64.394644
3426.000000	64.271905
3425.000000	64.144051
3424.000000	64.016090
3423.000000	63.891895
3422.000000	63.771204
3421.000000	63.651106
3420.000000	63.528841
3419.000000	63.402061
3418.000000	63.268711
3417.000000	63.128876
3416.000000	62.985370
3415.000000	62.840844
3414.000000	62.695458
3413.000000	62.548561
3412.000000	62.400244
3411.000000	62.249688
3410.000000	62.093966
3409.000000	61.930643
3408.000000	61.760509
3407.000000	61.586045
3406.000000	61.408953
3405.000000	61.230268
3404.000000	61.050493
3403.000000	60.868037
3402.000000	60.678842
3401.000000	60.479690
3400.000000	60.270929
3399.000000	60.055026
3398.000000	59.834226
3397.000000	59.610421
3396.000000	59.385039
3395.000000	59.157273
3394.000000	58.923350
3393.000000	58.679259
3392.000000	58.423711
3391.000000	58.158025
3390.000000	57.885407
3389.000000	57.610115
3388.000000	57.334904
3387.000000	57.057776
3386.000000	56.772775
3385.000000	56.475370
3384.000000	56.164790
3383.000000	55.842078
3382.000000	55.508874
3381.000000	55.168807
3380.000000	54.826748
3379.000000	54.484320
3378.000000	54.138248
3377.000000	53.783971
3376.000000	53.418507
3375.000000	53.039975
3374.000000	52.647703
3373.000000	52.244267
3372.000000	51.835008
3371.000000	51.423107
3370.000000	51.007805
3369.000000	50.586987
3368.000000	50.158807
3367.000000	49.720318
3366.000000	49.267849
3365.000000	48.801104
3364.000000	48.323997
3363.000000	47.840595
3362.000000	47.352923
3361.000000	46.862467
3360.000000	46.370374
3359.000000	45.874812
3358.000000	45.371199
3357.000000	44.857121
3356.000000	44.333886
3355.000000	43.803525
3354.000000	43.267222
3353.000000	42.727097
3352.000000	42.186098
3351.000000	41.644608
3350.000000	41.100108
3349.000000	40.550789
3348.000000	39.996569
3347.000000	39.437034
3346.000000	38.871803
3345.000000	38.303560
3344.000000	37.736862
3343.000000	37.173196
3342.000000	36.610445
3341.000000	36.047081
3340.000000	35.483691
3339.000000	34.920767
3338.000000	34.358927
3337.000000	33.801354
3336.000000	33.251886
3335.000000	32.710338
3334.000000	32.173285
3333.000000	31.639375
3332.000000	31.109860
3331.000000	30.584753
3330.000000	30.062739
3329.000000	29.544872
3328.000000	29.034796
3327.000000	28.534862
3326.000000	28.045913
3325.000000	27.569779
3324.000000	27.107393
3323.000000	26.655670
3322.000000	26.210314
3321.000000	25.771601
3320.000000	25.343840
3319.000000	24.929194
3318.000000	24.527319
3317.000000	24.138765
3316.000000	23.764316
3315.000000	23.401608
3314.000000	23.046585
3313.000000	22.698463
3312.000000	22.359015
3311.000000	22.028242
3310.000000	21.705955
3309.000000	21.395504
3308.000000	21.101906
3307.000000	20.826455
3306.000000	20.567194
3305.000000	20.323889
3304.000000	20.096499
3303.000000	19.881526
3302.000000	19.674304
3301.000000	19.474064
3300.000000	19.282696
3299.000000	19.099463
3298.000000	18.922274
3297.000000	18.752586
3296.000000	18.593435
3295.000000	18.444543
3294.000000	18.303852
3293.000000	18.173039
3292.000000	18.056323
3291.000000	17.953729
3290.000000	17.861279
3289.000000	17.775905
3288.000000	17.696331
3287.000000	17.620456
3286.000000	17.546499
3285.000000	17.476677
3284.000000	17.414547
3283.000000	17.360135
3282.000000	17.311398
3281.000000	17.268415
3280.000000	17.231954
3279.000000	17.199237
3278.000000	17.166406
3277.000000	17.134157
3276.000000	17.106154
3275.000000	17.083289
3274.000000	17.063804
3273.000000	17.048087
3272.000000	17.038818
3271.000000	17.036789
3270.000000	17.040622
3269.000000	17.049340
3268.000000	17.061561
3267.000000	17.074104
3266.000000	17.085102
3265.000000	17.097127
3264.000000	17.113429
3263.000000	17.132626
3262.000000	17.151151
3261.000000	17.168422
3260.000000	17.185772
3259.000000	17.202578
3258.000000	17.218022
3257.000000	17.235102
3256.000000	17.257981
3255.000000	17.286661
3254.000000	17.317850
3253.000000	17.349496
3252.000000	17.380550
3251.000000	17.408504
3250.000000	17.431818
3249.000000	17.453596
3248.000000	17.478863
3247.000000	17.509346
3246.000000	17.543893
3245.000000	17.581644
3244.000000	17.621089
3243.000000	17.658266
3242.000000	17.690329
3241.000000	17.719277
3240.000000	17.748853
3239.000000	17.779485
3238.000000	17.809662
3237.000000	17.839673
3236.000000	17.870269
3235.000000	17.900062
3234.000000	17.928269
3233.000000	17.957747
3232.000000	17.991286
3231.000000	18.027090
3230.000000	18.061760
3229.000000	18.095315
3228.000000	18.129177
3227.000000	18.161755
3226.000000	18.190356
3225.000000	18.215539
3224.000000	18.239321
3223.000000	18.261266
3222.000000	18.280331
3221.000000	18.298480
3220.000000	18.318212
3219.000000	18.338172
3218.000000	18.355252
3217.000000	18.369174
3216.000000	18.381307
3215.000000	18.391157
3214.000000	18.397843
3213.000000	18.403312
3212.000000	18.409996
3211.000000	18.416840
3210.000000	18.421103
3209.000000	18.422033
3208.000000	18.419760
3207.000000	18.412901
3206.000000	18.400921
3205.000000	18.386810
3204.000000	18.373660
3203.000000	18.360606
3202.000000	18.345278
3201.000000	18.327639
3200.000000	18.308244
3199.000000	18.285233
3198.000000	18.257075
3197.000000	18.225945
3196.000000	18.194814
3195.000000	18.163549
3194.000000	18.131065
3193.000000	18.098494
3192.000000	18.066571
3191.000000	18.032480
3190.000000	17.993420
3189.000000	17.950915
3188.000000	17.908173
3187.000000	17.865663
3186.000000	17.822812
3185.000000	17.781198
3184.000000	17.742112
3183.000000	17.703355
3182.000000	17.662203
3181.000000	17.619363
3180.000000	17.576725
3179.000000	17.533986
3178.000000	17.490938
3177.000000	17.450184
3176.000000	17.413804
3175.000000	17.379774
3174.000000	17.345272
3173.000000	17.310789
3172.000000	17.277686
3171.000000	17.244865
3170.000000	17.211532
3169.000000	17.180353
3168.000000	17.154019
3167.000000	17.131223
3166.000000	17.109630
3165.000000	17.089837
3164.000000	17.072895
3163.000000	17.057095
3162.000000	17.040967
3161.000000	17.026795
3160.000000	17.017285
3159.000000	17.011398
3158.000000	17.006910
3157.000000	17.003898
3156.000000	17.002494
3155.000000	17.000639
3154.000000	16.998099
3153.000000	16.999809
3152.000000	17.010762
3151.000000	17.030341
3150.000000	17.054848
3149.000000	17.082627
3148.000000	17.113091
3147.000000	17.143886
3146.000000	17.173407
3145.000000	17.203576
3144.000000	17.236384
3143.000000	17.270590
3142.000000	17.305132
3141.000000	17.343033
3140.000000	17.388006
3139.000000	17.439601
3138.000000	17.495229
3137.000000	17.554017
3136.000000	17.615440
3135.000000	17.677319
3134.000000	17.738615
3133.000000	17.801956
3132.000000	17.869815
3131.000000	17.941080
3130.000000	18.014237
3129.000000	18.090549
3128.000000	18.170984
3127.000000	18.253224
3126.000000	18.335244
3125.000000	18.418700
3124.000000	18.505259
3123.000000	18.593026
3122.000000	18.680165
3121.000000	18.768864
3120.000000	18.862030
3119.000000	18.959002
3118.000000	19.058428
3117.000000	19.162277
3116.000000	19.273030
3115.000000	19.389583
3114.000000	19.508992
3113.000000	19.629843
3112.000000	19.750714
3111.000000	19.868790
3110.000000	19.983723
3109.000000	20.100083
3108.000000	20.222437
3107.000000	20.350394
3106.000000	20.481187
3105.000000	20.614072
3104.000000	20.748742
3103.000000	20.882771
3102.000000	21.014583
3101.000000	21.146519
3100.000000	21.281796
3099.000000	21.420529
3098.000000	21.561675
3097.000000	21.705894
3096.000000	21.853233
3095.000000	22.000833
3094.000000	22.146134
3093.000000	22.290233
3092.000000	22.435525
3091.000000	22.582606
3090.000000	22.731925
3089.000000	22.885191
3088.000000	23.042213
3087.000000	23.199304
3086.000000	23.353817
3085.000000	23.507610
3084.000000	23.663339
3083.000000	23.820338
3082.000000	23.977356
3081.000000	24.136188
3080.000000	24.299419
3079.000000	24.466847
3078.000000	24.637038
3077.000000	24.809801
3076.000000	24.984229
3075.000000	25.157158
3074.000000	25.326599
3073.000000	25.494454
3072.000000	25.663187
3071.000000	25.832181
3070.000000	26.000074
3069.000000	26.168004
3068.000000	26.337685
3067.000000	26.508549
3066.000000	26.679447
3065.000000	26.851043
3064.000000	27.024088
3063.000000	27.197606
3062.000000	27.371000
3061.000000	27.545398
3060.000000	27.720774
3059.000000	27.894398
3058.000000	28.064464
3057.000000	28.232817
3056.000000	28.401789
3055.000000	28.570979
3054.000000	28.739397
3053.000000	28.908239
3052.000000	29.079011
3051.000000	29.251065
3050.000000	29.423042
3049.000000	29.594305
3048.000000	29.763294
3047.000000	29.927349
3046.000000	30.086557
3045.000000	30.245096
3044.000000	30.406684
3043.000000	30.571135
3042.000000	30.737142
3041.000000	30.905059
3040.000000	31.074431
3039.000000	31.241787
3038.000000	31.404086
3037.000000	31.562238
3036.000000	31.718984
3035.000000	31.875612
3034.000000	32.032848
3033.000000	32.192253
3032.000000	32.353941
3031.000000	32.515173
3030.000000	32.673679
3029.000000	32.830226
3028.000000	32.985962
3027.000000	33.139812
3026.000000	33.290962
3025.000000	33.441321
3024.000000	33.592817
3023.000000	33.744378
3022.000000	33.894182
3021.000000	34.042853
3020.000000	34.192003
3019.000000	34.341329
3018.000000	34.489543
3017.000000	34.636360
3016.000000	34.781662
3015.000000	34.924710
3014.000000	35.066298
3013.000000	35.209855
3012.000000	35.358148
3011.000000	35.510442
3010.000000	35.664249
3009.000000	35.817872
3008.000000	35.969653
3007.000000	36.117327
3006.000000	36.260312
3005.000000	36.400923
3004.000000	36.541538
3003.000000	36.682208
3002.000000	36.822404
3001.000000	36.962777
3000.000000	37.103677
2999.000000	37.244053
2998.000000	37.383492
2997.000000	37.522984
2996.000000	37.662248
2995.000000	37.798952
2994.000000	37.932587
2993.000000	38.066577
2992.000000	38.204216
2991.000000	38.344653
2990.000000	38.484962
2989.000000	38.624014
2988.000000	38.762002
2987.000000	38.898296
2986.000000	39.032216
2985.000000	39.164412
2984.000000	39.295447
2983.000000	39.424589
2982.000000	39.551890
2981.000000	39.679685
2980.000000	39.810053
2979.000000	39.942278
2978.000000	40.074620
2977.000000	40.206882
2976.000000	40.339429
2975.000000	40.471395
2974.000000	40.601813
2973.000000	40.731025
2972.000000	40.859395
2971.000000	40.986258
2970.000000	41.111817
2969.000000	41.238270
2968.000000	41.367068
2967.000000	41.496690
2966.000000	41.624739
2965.000000	41.750618
2964.000000	41.874585
2963.000000	41.996185
2962.000000	42.115714
2961.000000	42.235372
2960.000000	42.356931
2959.000000	42.479713
2958.000000	42.602219
2957.000000	42.723768
2956.000000	42.842951
2955.000000	42.957127
2954.000000	43.065886
2953.000000	43.173009
2952.000000	43.282701
2951.000000	43.395316
2950.000000	43.508752
2949.000000	43.621909
2948.000000	43.734540
2947.000000	43.845561
2946.000000	43.954227
2945.000000	44.061917
2944.000000	44.170652
2943.000000	44.280811
2942.000000	44.391935
2941.000000	44.504283
2940.000000	44.617572
2939.000000	44.729551
2938.000000	44.837923
2937.000000	44.942841
2936.000000	45.045976
2935.000000	45.148301
2934.000000	45.250391
2933.000000	45.353401
2932.000000	45.457789
2931.000000	45.562104
2930.000000	45.664570
2929.000000	45.764919
2928.000000	45.863395
2927.000000	45.959755
2926.000000	46.054741
2925.000000	46.150755
2924.000000	46.249181
2923.000000	46.348512
2922.000000	46.446769
2921.000000	46.544021
2920.000000	46.640953
2919.000000	46.737057
2918.000000	46.832304
2917.000000	46.928797
2916.000000	47.028234
2915.000000	47.128693
2914.000000	47.225843
2913.000000	47.316577
2912.000000	47.400289
2911.000000	47.478102
2910.000000	47.552799
2909.000000	47.628656
2908.000000	47.709229
2907.000000	47.795292
2906.000000	47.885167
2905.000000	47.976047
2904.000000	48.064322
2903.000000	48.146553
2902.000000	48.221948
2901.000000	48.294060
2900.000000	48.367504
2899.000000	48.445405
2898.000000	48.528459
2897.000000	48.615015
2896.000000	48.700946
2895.000000	48.781328
2894.000000	48.854055
2893.000000	48.921189
2892.000000	48.986230
2891.000000	49.051568
2890.000000	49.119021
2889.000000	49.190373
2888.000000	49.265407
2887.000000	49.340712
2886.000000	49.412167
2885.000000	49.477842
2884.000000	49.537766
2883.000000	49.592708
2882.000000	49.644613
2881.000000	49.696678
2880.000000	49.751067
2879.000000	49.807245
2878.000000	49.863694
2877.000000	49.919873
2876.000000	49.975202
2875.000000	50.027677
2874.000000	50.075813
2873.000000	50.121357
2872.000000	50.168600
2871.000000	50.221197
2870.000000	50.280481
2869.000000	50.345698
2868.000000	50.414590
2867.000000	50.484820
2866.000000	50.556322
2865.000000	50.631739
2864.000000	50.713838
2863.000000	50.803159
2862.000000	50.898624
2861.000000	50.998597
2860.000000	51.100353
2859.000000	51.200236
2858.000000	51.296335
2857.000000	51.390325
2856.000000	51.485598
2855.000000	51.584371
2854.000000	51.687142
2853.000000	51.793127
2852.000000	51.899669
2851.000000	52.002441
2850.000000	52.098117
2849.000000	52.186655
2848.000000	52.270616
2847.000000	52.353304
2846.000000	52.438088
2845.000000	52.527490
2844.000000	52.621077
2843.000000	52.714912
2842.000000	52.804411
2841.000000	52.887369
2840.000000	52.964064
2839.000000	53.036304
2838.000000	53.107547
2837.000000	53.182303
2836.000000	53.263128
2835.000000	53.348294
2834.000000	53.433141
2833.000000	53.513334
2832.000000	53.586560
2831.000000	53.653024
2830.000000	53.715907
2829.000000	53.780531
2828.000000	53.851028
2827.000000	53.927609
2826.000000	54.007133
2825.000000	54.085437
2824.000000	54.158734
2823.000000	54.224669
2822.000000	54.283953
2821.000000	54.340726
2820.000000	54.399955
2819.000000	54.464412
2818.000000	54.534037
2817.000000	54.606838
2816.000000	54.679307
2815.000000	54.747409
2814.000000	54.809107
2813.000000	54.866101
2812.000000	54.922387
2811.000000	54.981630
2810.000000	55.045958
2809.000000	55.115632
2808.000000	55.188207
2807.000000	55.258995
2806.000000	55.324058
2805.000000	55.382988
2804.000000	55.438339
2803.000000	55.493388
2802.000000	55.551061
2801.000000	55.613435
2800.000000	55.680211
2799.000000	55.748029
2798.000000	55.812637
2797.000000	55.871900
2796.000000	55.926440
2795.000000	55.978550
2794.000000	56.031577
2793.000000	56.089102
2792.000000	56.152601
2791.000000	56.219616
2790.000000	56.285278
2789.000000	56.345667
2788.000000	56.399548
2787.000000	56.448091
2786.000000	56.494483
2785.000000	56.543140
2784.000000	56.597430
2783.000000	56.657334
2782.000000	56.719553
2781.000000	56.779595
2780.000000	56.833608
2779.000000	56.879783
2778.000000	56.919875
2777.000000	56.959179
2776.000000	57.003524
2775.000000	57.055631
2774.000000	57.114197
2773.000000	57.175327
2772.000000	57.234039
2771.000000	57.285766
2770.000000	57.328821
2769.000000	57.366020
2768.000000	57.403196
2767.000000	57.445701
2766.000000	57.496013
2765.000000	57.553107
2764.000000	57.612595
2763.000000	57.668171
2762.000000	57.715038
2761.000000	57.752901
2760.000000	57.785767
2759.000000	57.819253
2758.000000	57.858250
2757.000000	57.905425
2756.000000	57.959796
2755.000000	58.016477
2754.000000	58.069159
2753.000000	58.113750
2752.000000	58.150093
2751.000000	58.181358
2750.000000	58.212845
2749.000000	58.250091
2748.000000	58.295766
2747.000000	58.347490
2746.000000	58.399323
2745.000000	58.445669
2744.000000	58.483910
2743.000000	58.514835
2742.000000	58.542276
2741.000000	58.571896
2740.000000	58.608284
2739.000000	58.652012
2738.000000	58.699626
2737.000000	58.746277
2736.000000	58.788072
2735.000000	58.823140
2734.000000	58.852411
2733.000000	58.879744
2732.000000	58.910097
2731.000000	58.946613
2730.000000	58.989117
2729.000000	59.034632
2728.000000	59.078644
2727.000000	59.116706
2726.000000	59.146763
2725.000000	59.170853
2724.000000	59.194112
2723.000000	59.221761
2722.000000	59.256614
2721.000000	59.298030
2720.000000	59.341854
2719.000000	59.381962
2718.000000	59.413805
2717.000000	59.437561
2716.000000	59.457781
2715.000000	59.480219
2714.000000	59.509091
2713.000000	59.545857
2712.000000	59.588391
2711.000000	59.631070
2710.000000	59.667419
2709.000000	59.694003
2708.000000	59.712143
2707.000000	59.726613
2706.000000	59.743276
2705.000000	59.766897
2704.000000	59.798779
2703.000000	59.835358
2702.000000	59.869816
2701.000000	59.895980
2700.000000	59.911398
2699.000000	59.917977
2698.000000	59.921047
2697.000000	59.927490
2696.000000	59.942488
2695.000000	59.966485
2694.000000	59.994937
2693.000000	60.021057
2692.000000	60.039229
2691.000000	60.047267
2690.000000	60.047399
2689.000000	60.045598
2688.000000	60.048624
2687.000000	60.060381
2686.000000	60.080231
2685.000000	60.103849
2684.000000	60.125102
2683.000000	60.138308
2682.000000	60.141146
2681.000000	60.136490
2680.000000	60.130916
2679.000000	60.130832
2678.000000	60.139585
2677.000000	60.156825
2676.000000	60.178895
2675.000000	60.199943
2674.000000	60.214606
2673.000000	60.221335
2672.000000	60.223490
2671.000000	60.227525
2670.000000	60.239981
2669.000000	60.264785
2668.000000	60.301460
2667.000000	60.344991
2666.000000	60.388510
2665.000000	60.427286
2664.000000	60.460890
2663.000000	60.492913
2662.000000	60.529048
2661.000000	60.574622
2660.000000	60.631796
2659.000000	60.697797
2658.000000	60.766314
2657.000000	60.831049
2656.000000	60.888564
2655.000000	60.939140
2654.000000	60.986331
2653.000000	61.035640
2652.000000	61.091740
2651.000000	61.155469
2650.000000	61.223171
2649.000000	61.288872
2648.000000	61.347245
2647.000000	61.395852
2646.000000	61.436358
2645.000000	61.474063
2644.000000	61.515097
2643.000000	61.562814
2642.000000	61.616289
2641.000000	61.671455
2640.000000	61.722884
2639.000000	61.765654
2638.000000	61.797727
2637.000000	61.821895
2636.000000	61.844866
2635.000000	61.873266
2634.000000	61.909992
2633.000000	61.953235
2632.000000	61.997686
2631.000000	62.036785
2630.000000	62.065666
2629.000000	62.083962
2628.000000	62.096293
2627.000000	62.109691
2626.000000	62.130015
2625.000000	62.159375
2624.000000	62.195233
2623.000000	62.231341
2622.000000	62.260731
2621.000000	62.279426
2620.000000	62.288252
2619.000000	62.292022
2618.000000	62.297483
2617.000000	62.310883
2616.000000	62.335083
2615.000000	62.367356
2614.000000	62.400298
2613.000000	62.425814
2612.000000	62.439204
2611.000000	62.441009
2610.000000	62.436487
2609.000000	62.433305
2608.000000	62.437849
2607.000000	62.451755
2606.000000	62.471305
2605.000000	62.489676
2604.000000	62.500038
2603.000000	62.498111
2602.000000	62.484010
2601.000000	62.462799
2600.000000	62.442214
2599.000000	62.428477
2598.000000	62.423557
2597.000000	62.425288
2596.000000	62.429121
2595.000000	62.430225
2594.000000	62.426046
2593.000000	62.418344
2592.000000	62.412930
2591.000000	62.416591
2590.000000	62.433918
2589.000000	62.465963
2588.000000	62.509982
2587.000000	62.560662
2586.000000	62.612558
2585.000000	62.663023
2584.000000	62.713480
2583.000000	62.767730
2582.000000	62.829616
2581.000000	62.900901
2580.000000	62.979963
2579.000000	63.062030
2578.000000	63.141352
2577.000000	63.214466
2576.000000	63.281799
2575.000000	63.346835
2574.000000	63.414253
2573.000000	63.487870
2572.000000	63.568633
2571.000000	63.653540
2570.000000	63.737007
2569.000000	63.814009
2568.000000	63.882466
2567.000000	63.943673
2566.000000	64.001824
2565.000000	64.062851
2564.000000	64.131654
2563.000000	64.208792
2562.000000	64.289637
2561.000000	64.367071
2560.000000	64.435270
2559.000000	64.491973
2558.000000	64.539404
2557.000000	64.583867
2556.000000	64.633095
2555.000000	64.692054
2554.000000	64.760398
2553.000000	64.833374
2552.000000	64.904374
2551.000000	64.967233
2550.000000	65.018558
2549.000000	65.059768
2548.000000	65.096854
2547.000000	65.137110
2546.000000	65.185357
2545.000000	65.242249
2544.000000	65.304149
2543.000000	65.364092
2542.000000	65.414531
2541.000000	65.451186
2540.000000	65.475312
2539.000000	65.492165
2538.000000	65.507933
2537.000000	65.527381
2536.000000	65.551877
2535.000000	65.578323
2534.000000	65.600140
2533.000000	65.610999
2532.000000	65.608158
2531.000000	65.592548
2530.000000	65.567523
2529.000000	65.537668
2528.000000	65.507342
2527.000000	65.478782
2526.000000	65.451320
2525.000000	65.423330
2524.000000	65.394195
2523.000000	65.364738
2522.000000	65.337084
2521.000000	65.314999
2520.000000	65.302865
2519.000000	65.303172
2518.000000	65.315295
2517.000000	65.336627
2516.000000	65.364855
2515.000000	65.398356
2514.000000	65.436408
2513.000000	65.480105
2512.000000	65.531611
2511.000000	65.591879
2510.000000	65.658686
2509.000000	65.727630
2508.000000	65.794579
2507.000000	65.856777
2506.000000	65.913399
2505.000000	65.966196
2504.000000	66.019159
2503.000000	66.076110
2502.000000	66.138271
2501.000000	66.203812
2500.000000	66.268675
2499.000000	66.327582
2498.000000	66.375926
2497.000000	66.412925
2496.000000	66.442671
2495.000000	66.471582
2494.000000	66.504838
2493.000000	66.544783
2492.000000	66.590877
2491.000000	66.639405
2490.000000	66.684218
2489.000000	66.719860
2488.000000	66.744557
2487.000000	66.760713
2486.000000	66.773449
2485.000000	66.789055
2484.000000	66.812768
2483.000000	66.845741
2482.000000	66.884114
2481.000000	66.921554
2480.000000	66.952746
2479.000000	66.974861
2478.000000	66.987815
2477.000000	66.994876
2476.000000	67.002031
2475.000000	67.014704
2474.000000	67.034771
2473.000000	67.060746
2472.000000	67.089558
2471.000000	67.117378
2470.000000	67.140238
2469.000000	67.156087
2468.000000	67.166295
2467.000000	67.174391
2466.000000	67.183685
2465.000000	67.196403
2464.000000	67.213763
2463.000000	67.235313
2462.000000	67.258803
2461.000000	67.281761
2460.000000	67.302898
2459.000000	67.321554
2458.000000	67.337019
2457.000000	67.349537
2456.000000	67.361035
2455.000000	67.373652
2454.000000	67.388204
2453.000000	67.404814
2452.000000	67.423895
2451.000000	67.445274
2450.000000	67.467267
2449.000000	67.487893
2448.000000	67.506373
2447.000000	67.522638
2446.000000	67.536478
2445.000000	67.548491
2444.000000	67.560933
2443.000000	67.576239
2442.000000	67.595241
2441.000000	67.617559
2440.000000	67.642545
2439.000000	67.668534
2438.000000	67.692266
2437.000000	67.710849
2436.000000	67.724112
2435.000000	67.734215
2434.000000	67.743869
2433.000000	67.755820
2432.000000	67.772653
2431.000000	67.795205
2430.000000	67.821444
2429.000000	67.847960
2428.000000	67.872178
2427.000000	67.892680
2426.000000	67.908829
2425.000000	67.921738
2424.000000	67.934796
2423.000000	67.951745
2422.000000	67.974498
2421.000000	68.003128
2420.000000	68.036419
2419.000000	68.071141
2418.000000	68.102247
2417.000000	68.125781
2416.000000	68.141526
2415.000000	68.152250
2414.000000	68.161591
2413.000000	68.173603
2412.000000	68.192389
2411.000000	68.219705
2410.000000	68.253112
2409.000000	68.287634
2408.000000	68.318752
2407.000000	68.343346
2406.000000	68.359843
2405.000000	68.369687
2404.000000	68.377975
2403.000000	68.390704
2402.000000	68.411398
2401.000000	68.440527
2400.000000	68.476287
2399.000000	68.514403
2398.000000	68.548798
2397.000000	68.574904
2396.000000	68.592561
2395.000000	68.605217
2394.000000	68.617599
2393.000000	68.634890
2392.000000	68.661654
2391.000000	68.698859
2390.000000	68.742498
2389.000000	68.786287
2388.000000	68.825845
2387.000000	68.859335
2386.000000	68.886941
2385.000000	68.912285
2384.000000	68.941615
2383.000000	68.980911
2382.000000	69.031990
2381.000000	69.092962
2380.000000	69.160891
2379.000000	69.230495
2378.000000	69.295446
2377.000000	69.351708
2376.000000	69.400290
2375.000000	69.444260
2374.000000	69.485729
2373.000000	69.526571
2372.000000	69.569865
2371.000000	69.617426
2370.000000	69.666926
2369.000000	69.715657
2368.000000	69.763616
2367.000000	69.811198
2366.000000	69.857613
2365.000000	69.902425
2364.000000	69.950805
2363.000000	70.002066
2362.000000	70.050164
2361.000000	70.096571
2360.000000	70.142400
2359.000000	70.190253
2358.000000	70.239769
2357.000000	70.286483
2356.000000	70.335267
2355.000000	70.381057
2354.000000	70.423825
2353.000000	70.463745
2352.000000	70.508901
2351.000000	70.564935
2350.000000	70.617446
2349.000000	70.658784
2348.000000	70.694779
2347.000000	70.746154
2346.000000	70.822393
2345.000000	70.896089
2344.000000	70.946602
2343.000000	70.963785
2342.000000	70.971954
2341.000000	70.990921
2340.000000	71.026247
2339.000000	71.077994
2338.000000	71.138598
2337.000000	71.203926
2336.000000	71.261960
2335.000000	71.310860
2334.000000	71.345925
2333.000000	71.377890
2332.000000	71.407349
2331.000000	71.452043
2330.000000	71.504187
2329.000000	71.571690
2328.000000	71.638416
2327.000000	71.701188
2326.000000	71.751784
2325.000000	71.788732
2324.000000	71.819391
2323.000000	71.848625
2322.000000	71.884015
2321.000000	71.928347
2320.000000	71.980881
2319.000000	72.042271
2318.000000	72.100660
2317.000000	72.153267
2316.000000	72.190233
2315.000000	72.222219
2314.000000	72.248759
2313.000000	72.282589
2312.000000	72.321242
2311.000000	72.372878
2310.000000	72.428399
2309.000000	72.485087
2308.000000	72.531460
2307.000000	72.569556
2306.000000	72.598020
2305.000000	72.624295
2304.000000	72.651380
2303.000000	72.687462
2302.000000	72.730267
2301.000000	72.778553
2300.000000	72.824175
2299.000000	72.867180
2298.000000	72.904174
2297.000000	72.938786
2296.000000	72.972649
2295.000000	73.011363
2294.000000	73.054114
2293.000000	73.097974
2292.000000	73.138505
2291.000000	73.174114
2290.000000	73.204877
2289.000000	73.232635
2288.000000	73.262694
2287.000000	73.300143
2286.000000	73.346439
2285.000000	73.396640
2284.000000	73.444657
2283.000000	73.484752
2282.000000	73.513849
2281.000000	73.532551
2280.000000	73.548074
2279.000000	73.570755
2278.000000	73.607313
2277.000000	73.657297
2276.000000	73.714348
2275.000000	73.769459
2274.000000	73.812333
2273.000000	73.836680
2272.000000	73.844793
2271.000000	73.847362
2270.000000	73.856817
2269.000000	73.881873
2268.000000	73.925139
2267.000000	73.981517
2266.000000	74.038088
2265.000000	74.080307
2264.000000	74.100627
2263.000000	74.101899
2262.000000	74.094153
2261.000000	74.089743
2260.000000	74.100672
2259.000000	74.132592
2258.000000	74.180676
2257.000000	74.231301
2256.000000	74.270420
2255.000000	74.289894
2254.000000	74.288694
2253.000000	74.273666
2252.000000	74.257964
2251.000000	74.255501
2250.000000	74.271984
2249.000000	74.303070
2248.000000	74.337766
2247.000000	74.364784
2246.000000	74.375123
2245.000000	74.366287
2244.000000	74.344978
2243.000000	74.323324
2242.000000	74.310972
2241.000000	74.311042
2240.000000	74.321274
2239.000000	74.335198
2238.000000	74.343272
2237.000000	74.337754
2236.000000	74.318736
2235.000000	74.293567
2234.000000	74.270461
2233.000000	74.254258
2232.000000	74.246188
2231.000000	74.243449
2230.000000	74.238756
2229.000000	74.224705
2228.000000	74.200114
2227.000000	74.170733
2226.000000	74.143894
2225.000000	74.124639
2224.000000	74.115023
2223.000000	74.112846
2222.000000	74.110324
2221.000000	74.098098
2220.000000	74.072376
2219.000000	74.037427
2218.000000	74.001809
2217.000000	73.974562
2216.000000	73.962774
2215.000000	73.967696
2214.000000	73.981441
2213.000000	73.990571
2212.000000	73.984599
2211.000000	73.961159
2210.000000	73.925246
2209.000000	73.887607
2208.000000	73.862306
2207.000000	73.860176
2206.000000	73.881127
2205.000000	73.913847
2204.000000	73.942850
2203.000000	73.955494
2202.000000	73.945640
2201.000000	73.916860
2200.000000	73.883196
2199.000000	73.862785
2198.000000	73.867352
2197.000000	73.896965
2196.000000	73.941997
2195.000000	73.987174
2194.000000	74.016179
2193.000000	74.019374
2192.000000	74.000546
2191.000000	73.974811
2190.000000	73.959040
2189.000000	73.964282
2188.000000	73.993208
2187.000000	74.038991
2186.000000	74.085974
2185.000000	74.116816
2184.000000	74.122829
2183.000000	74.107886
2182.000000	74.083806
2181.000000	74.064399
2180.000000	74.061265
2179.000000	74.078601
2178.000000	74.109500
2177.000000	74.139846
2176.000000	74.157736
2175.000000	74.159004
2174.000000	74.146495
2173.000000	74.128201
2172.000000	74.115289
2171.000000	74.116247
2170.000000	74.130546
2169.000000	74.149510
2168.000000	74.163792
2167.000000	74.168404
2166.000000	74.162787
2165.000000	74.150651
2164.000000	74.140208
2163.000000	74.140070
2162.000000	74.152752
2161.000000	74.173066
2160.000000	74.192484
2159.000000	74.203377
2158.000000	74.201398
2157.000000	74.188541
2156.000000	74.174620
2155.000000	74.171739
2154.000000	74.185648
2153.000000	74.212918
2152.000000	74.244805
2151.000000	74.270671
2150.000000	74.280374
2149.000000	74.269603
2148.000000	74.245282
2147.000000	74.222691
2146.000000	74.215914
2145.000000	74.230927
2144.000000	74.264909
2143.000000	74.306815
2142.000000	74.339778
2141.000000	74.349330
2140.000000	74.333174
2139.000000	74.301968
2138.000000	74.271716
2137.000000	74.257026
2136.000000	74.267622
2135.000000	74.303422
2134.000000	74.351148
2133.000000	74.390123
2132.000000	74.404821
2131.000000	74.392597
2130.000000	74.362193
2129.000000	74.329409
2128.000000	74.312232
2127.000000	74.322492
2126.000000	74.357987
2125.000000	74.403797
2124.000000	74.442369
2123.000000	74.461672
2122.000000	74.457800
2121.000000	74.436337
2120.000000	74.412335
2119.000000	74.403240
2118.000000	74.417944
2117.000000	74.452772
2116.000000	74.496467
2115.000000	74.536229
2114.000000	74.561071
2113.000000	74.566653
2112.000000	74.559683
2111.000000	74.554529
2110.000000	74.563473
2109.000000	74.591103
2108.000000	74.635031
2107.000000	74.687493
2106.000000	74.736667
2105.000000	74.772623
2104.000000	74.794838
2103.000000	74.812375
2102.000000	74.836273
2101.000000	74.873787
2100.000000	74.927165
2099.000000	74.992390
2098.000000	75.058394
2097.000000	75.112861
2096.000000	75.151550
2095.000000	75.180930
2094.000000	75.211797
2093.000000	75.252775
2092.000000	75.307920
2091.000000	75.375030
2090.000000	75.444513
2089.000000	75.503971
2088.000000	75.546182
2087.000000	75.572139
2086.000000	75.588207
2085.000000	75.604214
2084.000000	75.631909
2083.000000	75.678341
2082.000000	75.738213
2081.000000	75.795938
2080.000000	75.836359
2079.000000	75.852526
2078.000000	75.846136
2077.000000	75.826504
2076.000000	75.809085
2075.000000	75.808795
2074.000000	75.830267
2073.000000	75.865673
2072.000000	75.901011
2071.000000	75.922643
2070.000000	75.921834
2069.000000	75.899284
2068.000000	75.866220
2067.000000	75.837777
2066.000000	75.824851
2065.000000	75.832738
2064.000000	75.861662
2063.000000	75.903070
2062.000000	75.938997
2061.000000	75.953023
2060.000000	75.944149
2059.000000	75.926975
2058.000000	75.919183
2057.000000	75.932360
2056.000000	75.970845
2055.000000	76.030284
2054.000000	76.096159
2053.000000	76.150924
2052.000000	76.186114
2051.000000	76.205925
2050.000000	76.221116
2049.000000	76.244062
2048.000000	76.286474
2047.000000	76.353601
2046.000000	76.438891
2045.000000	76.527504
2044.000000	76.605934
2043.000000	76.667179
2042.000000	76.711752
2041.000000	76.749887
2040.000000	76.799588
2039.000000	76.874673
2038.000000	76.973622
2037.000000	77.082603
2036.000000	77.187961
2035.000000	77.282187
2034.000000	77.362115
2033.000000	77.430120
2032.000000	77.497397
2031.000000	77.578211
2030.000000	77.678226
2029.000000	77.791809
2028.000000	77.909154
2027.000000	78.021115
2026.000000	78.119184
2025.000000	78.199580
2024.000000	78.269310
2023.000000	78.342843
2022.000000	78.431410
2021.000000	78.536920
2020.000000	78.652814
2019.000000	78.765544
2018.000000	78.859357
2017.000000	78.928868
2016.000000	78.985924
2015.000000	79.048036
2014.000000	79.123372
2013.000000	79.211069
2012.000000	79.309358
2011.000000	79.414525
2010.000000	79.515083
2009.000000	79.597033
2008.000000	79.656726
2007.000000	79.702917
2006.000000	79.746722
2005.000000	79.796787
2004.000000	79.861094
2003.000000	79.942824
2002.000000	80.033241
2001.000000	80.115523
2000.000000	80.178380
1999.000000	80.221589
1998.000000	80.250956
1997.000000	80.277360
1996.000000	80.316483
1995.000000	80.376500
1994.000000	80.446047
1993.000000	80.505002
1992.000000	80.548976
1991.000000	80.588624
1990.000000	80.625668
1989.000000	80.651838
1988.000000	80.670742
1987.000000	80.700979
1986.000000	80.754389
1985.000000	80.823890
1984.000000	80.894825
1983.000000	80.956172
1982.000000	80.998987
1981.000000	81.017885
1980.000000	81.020998
1979.000000	81.027586
1978.000000	81.050628
1977.000000	81.090120
1976.000000	81.142467
1975.000000	81.202704
1974.000000	81.257223
1973.000000	81.289856
1972.000000	81.300180
1971.000000	81.304141
1970.000000	81.313591
1969.000000	81.326628
1968.000000	81.340711
1967.000000	81.363681
1966.000000	81.402168
1965.000000	81.447826
1964.000000	81.486366
1963.000000	81.510868
1962.000000	81.521291
1961.000000	81.523157
1960.000000	81.529786
1959.000000	81.554122
1958.000000	81.594073
1957.000000	81.633760
1956.000000	81.661458
1955.000000	81.677687
1954.000000	81.685945
1953.000000	81.687984
1952.000000	81.689891
1951.000000	81.702174
1950.000000	81.728462
1949.000000	81.760299
1948.000000	81.787268
1947.000000	81.805386
1946.000000	81.812852
1945.000000	81.805952
1944.000000	81.784166
1943.000000	81.758865
1942.000000	81.753348
1941.000000	81.780944
1940.000000	81.830339
1939.000000	81.879349
1938.000000	81.909999
1937.000000	81.917650
1936.000000	81.914172
1935.000000	81.915797
1934.000000	81.927659
1933.000000	81.945266
1932.000000	81.964434
1931.000000	81.983265
1930.000000	81.995498
1929.000000	81.992094
1928.000000	81.976421
1927.000000	81.965447
1926.000000	81.971251
1925.000000	81.986195
1924.000000	81.989580
1923.000000	81.973693
1922.000000	81.951002
1921.000000	81.927959
1920.000000	81.898412
1919.000000	81.858882
1918.000000	81.822425
1917.000000	81.816265
1916.000000	81.850252
1915.000000	81.907617
1914.000000	81.964673
1913.000000	82.004495
1912.000000	82.018854
1911.000000	82.004656
1910.000000	81.963336
1909.000000	81.908065
1908.000000	81.864070
1907.000000	81.849821
1906.000000	81.863457
1905.000000	81.888907
1904.000000	81.910182
1903.000000	81.919685
1902.000000	81.914356
1901.000000	81.893062
1900.000000	81.863246
1899.000000	81.839021
1898.000000	81.828798
1897.000000	81.828233
1896.000000	81.827878
1895.000000	81.826902
1894.000000	81.830335
1893.000000	81.834498
1892.000000	81.828067
1891.000000	81.801917
1890.000000	81.759728
1889.000000	81.730055
1888.000000	81.739769
1887.000000	81.781331
1886.000000	81.826228
1885.000000	81.853437
1884.000000	81.862781
1883.000000	81.866425
1882.000000	81.869660
1881.000000	81.867398
1880.000000	81.858242
1879.000000	81.848614
1878.000000	81.842356
1877.000000	81.838286
1876.000000	81.836581
1875.000000	81.837807
1874.000000	81.835367
1873.000000	81.818809
1872.000000	81.787715
1871.000000	81.751611
1870.000000	81.708284
1869.000000	81.650943
1868.000000	81.606401
1867.000000	81.605424
1866.000000	81.639985
1865.000000	81.683920
1864.000000	81.721953
1863.000000	81.750018
1862.000000	81.764435
1861.000000	81.761185
1860.000000	81.741736
1859.000000	81.712934
1858.000000	81.680616
1857.000000	81.649657
1856.000000	81.627713
1855.000000	81.620319
1854.000000	81.623365
1853.000000	81.626022
1852.000000	81.624594
1851.000000	81.619208
1850.000000	81.596251
1849.000000	81.534299
1848.000000	81.434172
1847.000000	81.324250
1846.000000	81.233351
1845.000000	81.171549
1844.000000	81.149574
1843.000000	81.182232
1842.000000	81.244990
1841.000000	81.295146
1840.000000	81.312585
1839.000000	81.296155
1838.000000	81.251969
1837.000000	81.194131
1836.000000	81.142041
1835.000000	81.105231
1834.000000	81.073620
1833.000000	81.031985
1832.000000	80.980857
1831.000000	80.915475
1830.000000	80.826067
1829.000000	80.742523
1828.000000	80.690486
1827.000000	80.658078
1826.000000	80.624994
1825.000000	80.593847
1824.000000	80.594053
1823.000000	80.630815
1822.000000	80.667083
1821.000000	80.669061
1820.000000	80.634600
1819.000000	80.576959
1818.000000	80.505442
1817.000000	80.433365
1816.000000	80.383102
1815.000000	80.363294
1814.000000	80.353960
1813.000000	80.328931
1812.000000	80.280596
1811.000000	80.218726
1810.000000	80.156384
1809.000000	80.098329
1808.000000	80.044428
1807.000000	79.995954
1806.000000	79.952263
1805.000000	79.908845
1804.000000	79.860777
1803.000000	79.802614
1802.000000	79.727696
1801.000000	79.647333
1800.000000	79.593704
1799.000000	79.577734
1798.000000	79.568005
1797.000000	79.526832
1796.000000	79.450058
1795.000000	79.361920
1794.000000	79.280432
1793.000000	79.199741
1792.000000	79.127787
1791.000000	79.104570
1790.000000	79.128491
1789.000000	79.152740
1788.000000	79.144875
1787.000000	79.104460
1786.000000	79.046818
1785.000000	78.994247
1784.000000	78.967395
1783.000000	78.965438
1782.000000	78.956178
1781.000000	78.910713
1780.000000	78.847848
1779.000000	78.804104
1778.000000	78.773633
1777.000000	78.725216
1776.000000	78.656007
1775.000000	78.586607
1774.000000	78.512945
1773.000000	78.393126
1772.000000	78.245869
1771.000000	78.162177
1770.000000	78.153207
1769.000000	78.160086
1768.000000	78.153378
1767.000000	78.144359
1766.000000	78.129575
1765.000000	78.086273
1764.000000	78.014201
1763.000000	77.938142
1762.000000	77.879629
1761.000000	77.852216
1760.000000	77.841431
1759.000000	77.814816
1758.000000	77.745851
1757.000000	77.633288
1756.000000	77.529979
1755.000000	77.482150
1754.000000	77.464854
1753.000000	77.424615
1752.000000	77.344108
1751.000000	77.250248
1750.000000	77.166803
1749.000000	77.082024
1748.000000	76.996789
1747.000000	76.934103
1746.000000	76.882373
1745.000000	76.802725
1744.000000	76.689506
1743.000000	76.579110
1742.000000	76.497201
1741.000000	76.428873
1740.000000	76.345053
1739.000000	76.245211
1738.000000	76.142165
1737.000000	76.031209
1736.000000	75.914023
1735.000000	75.784827
1734.000000	75.633985
1733.000000	75.519309
1732.000000	75.431964
1731.000000	75.339705
1730.000000	75.233840
1729.000000	75.107829
1728.000000	74.973950
1727.000000	74.850774
1726.000000	74.728895
1725.000000	74.584714
1724.000000	74.413941
1723.000000	74.231362
1722.000000	74.043604
1721.000000	73.857294
1720.000000	73.695085
1719.000000	73.534559
1718.000000	73.275179
1717.000000	72.928152
1716.000000	72.613697
1715.000000	72.392985
1714.000000	72.258790
1713.000000	72.158762
1712.000000	72.036518
1711.000000	71.871918
1710.000000	71.664901
1709.000000	71.418232
1708.000000	71.150711
1707.000000	70.875055
1706.000000	70.567687
1705.000000	70.231394
1704.000000	69.906046
1703.000000	69.588178
1702.000000	69.264194
1701.000000	68.961603
1700.000000	68.735835
1699.000000	68.642276
1698.000000	68.583161
1697.000000	68.398721
1696.000000	68.050337
1695.000000	67.679820
1694.000000	67.381268
1693.000000	67.139348
1692.000000	66.921680
1691.000000	66.690610
1690.000000	66.424383
1689.000000	66.145697
1688.000000	65.897831
1687.000000	65.661664
1686.000000	65.349313
1685.000000	64.814079
1684.000000	64.118580
1683.000000	63.657354
1682.000000	63.464817
1681.000000	63.314156
1680.000000	63.086741
1679.000000	62.785601
1678.000000	62.437180
1677.000000	62.031474
1676.000000	61.566991
1675.000000	61.117283
1674.000000	60.761092
1673.000000	60.465492
1672.000000	60.167819
1671.000000	59.840914
1670.000000	59.471914
1669.000000	59.090353
1668.000000	58.747605
1667.000000	58.445884
1666.000000	58.146293
1665.000000	57.812799
1664.000000	57.438140
1663.000000	57.053810
1662.000000	56.713700
1661.000000	56.421421
1660.000000	56.131475
1659.000000	55.816664
1658.000000	55.473171
1657.000000	55.120650
1656.000000	54.787203
1655.000000	54.492359
1654.000000	54.110688
1653.000000	53.609152
1652.000000	53.241664
1651.000000	52.953909
1650.000000	52.669770
1649.000000	52.390885
1648.000000	52.055773
1647.000000	51.648573
1646.000000	51.312913
1645.000000	51.090017
1644.000000	50.883062
1643.000000	50.653538
1642.000000	50.402140
1641.000000	50.118495
1640.000000	49.816253
1639.000000	49.536982
1638.000000	49.289446
1637.000000	49.013082
1636.000000	48.670146
1635.000000	48.392145
1634.000000	48.242557
1633.000000	48.121766
1632.000000	47.967666
1631.000000	47.790775
1630.000000	47.616329
1629.000000	47.448392
1628.000000	47.285607
1627.000000	47.143357
1626.000000	47.019538
1625.000000	46.882959
1624.000000	46.715513
1623.000000	46.554124
1622.000000	46.455897
1621.000000	46.415536
1620.000000	46.407404
1619.000000	46.427841
1618.000000	46.454975
1617.000000	46.430307
1616.000000	46.350533
1615.000000	46.276010
1614.000000	46.239622
1613.000000	46.233087
1612.000000	46.243535
1611.000000	46.279506
1610.000000	46.349951
1609.000000	46.432265
1608.000000	46.498826
1607.000000	46.554076
1606.000000	46.611592
1605.000000	46.665908
1604.000000	46.715101
1603.000000	46.780166
1602.000000	46.878616
1601.000000	46.998742
1600.000000	47.120540
1599.000000	47.240037
1598.000000	47.355626
1597.000000	47.455009
1596.000000	47.534124
1595.000000	47.614405
1594.000000	47.719134
1593.000000	47.843984
1592.000000	47.970356
1591.000000	48.091813
1590.000000	48.207404
1589.000000	48.308052
1588.000000	48.391345
1587.000000	48.475574
1586.000000	48.579674
1585.000000	48.697250
1584.000000	48.813826
1583.000000	48.929067
1582.000000	49.040119
1581.000000	49.131837
1580.000000	49.208165
1579.000000	49.301793
1578.000000	49.427810
1577.000000	49.547429
1576.000000	49.633218
1575.000000	49.717065
1574.000000	49.795954
1573.000000	49.845858
1572.000000	49.865679
1571.000000	49.875780
1570.000000	49.902620
1569.000000	49.980392
1568.000000	50.115959
1567.000000	50.279912
1566.000000	50.449477
1565.000000	50.603862
1564.000000	50.723133
1563.000000	50.793225
1562.000000	50.798671
1561.000000	50.760117
1560.000000	50.737987
1559.000000	50.690678
1558.000000	50.895663
1557.000000	51.263973
1556.000000	51.556674
1555.000000	51.778008
1554.000000	51.969661
1553.000000	52.132681
1552.000000	52.265305
1551.000000	52.394227
1550.000000	52.556531
1549.000000	52.766739
1548.000000	52.997410
1547.000000	53.216832
1546.000000	53.419696
1545.000000	53.594754
1544.000000	53.738640
1543.000000	53.896653
1542.000000	54.138330
1541.000000	54.461768
1540.000000	54.834171
1539.000000	55.295719
1538.000000	55.718510
1537.000000	55.989366
1536.000000	56.174300
1535.000000	56.378524
1534.000000	56.657952
1533.000000	57.027630
1532.000000	57.459766
1531.000000	57.879508
1530.000000	58.246318
1529.000000	58.573047
1528.000000	58.879528
1527.000000	59.183704
1526.000000	59.503577
1525.000000	59.844187
1524.000000	60.205936
1523.000000	60.603089
1522.000000	61.023569
1521.000000	61.445168
1520.000000	61.834722
1519.000000	62.169473
1518.000000	62.486744
1517.000000	62.823705
1516.000000	63.212278
1515.000000	63.656628
1514.000000	64.114099
1513.000000	64.549744
1512.000000	64.941114
1511.000000	65.267872
1510.000000	65.537733
1509.000000	65.780929
1508.000000	65.998323
1507.000000	66.220016
1506.000000	66.748770
1505.000000	67.462033
1504.000000	68.016118
1503.000000	68.401462
1502.000000	68.697281
1501.000000	68.930182
1500.000000	69.138674
1499.000000	69.390596
1498.000000	69.723241
1497.000000	70.128162
1496.000000	70.582601
1495.000000	71.027724
1494.000000	71.385654
1493.000000	71.633719
1492.000000	71.818063
1491.000000	71.995823
1490.000000	72.184527
1489.000000	72.414713
1488.000000	72.724140
1487.000000	73.107849
1486.000000	73.515701
1485.000000	73.872964
1484.000000	74.142036
1483.000000	74.338401
1482.000000	74.473873
1481.000000	74.546402
1480.000000	74.573408
1479.000000	74.579485
1478.000000	74.554774
1477.000000	74.466626
1476.000000	74.311431
1475.000000	74.098655
1474.000000	73.760032
1473.000000	73.187547
1472.000000	72.463586
1471.000000	71.745004
1470.000000	70.961237
1469.000000	69.945364
1468.000000	68.612340
1467.000000	66.902067
1466.000000	64.669511
1465.000000	61.843574
1464.000000	58.720276
1463.000000	55.701602
1462.000000	52.862275
1461.000000	50.093540
1460.000000	47.357530
1459.000000	44.600622
1458.000000	41.623261
1457.000000	38.532803
1456.000000	36.072138
1455.000000	34.587005
1454.000000	33.728803
1453.000000	33.184733
1452.000000	32.906908
1451.000000	32.929688
1450.000000	33.228272
1449.000000	33.787709
1448.000000	34.645389
1447.000000	35.768829
1446.000000	37.024823
1445.000000	38.335355
1444.000000	39.728236
1443.000000	41.215078
1442.000000	42.718836
1441.000000	44.142059
1440.000000	45.451201
1439.000000	46.698597
1438.000000	48.025314
1437.000000	49.579575
1436.000000	51.312363
1435.000000	52.960731
1434.000000	54.385362
1433.000000	55.673651
1432.000000	56.934483
1431.000000	58.173462
1430.000000	59.338572
1429.000000	60.402137
1428.000000	61.346552
1427.000000	62.153307
1426.000000	62.847982
1425.000000	63.478301
1424.000000	64.053696
1423.000000	64.545041
1422.000000	64.942747
1421.000000	65.289347
1420.000000	65.644998
1419.000000	66.023598
1418.000000	66.430175
1417.000000	66.873369
1416.000000	67.337313
1415.000000	67.799182
1414.000000	68.252861
1413.000000	68.705496
1412.000000	69.158019
1411.000000	69.600644
1410.000000	70.030665
1409.000000	70.450459
1408.000000	70.842331
1407.000000	71.180979
1406.000000	71.472778
1405.000000	71.755019
1404.000000	72.051590
1403.000000	72.341508
1402.000000	72.601360
1401.000000	72.847431
1400.000000	73.098378
1399.000000	73.342341
1398.000000	73.562793
1397.000000	73.751268
1396.000000	73.901303
1395.000000	74.035878
1394.000000	74.212822
1393.000000	74.444682
1392.000000	74.665331
1391.000000	74.805206
1390.000000	74.836680
1389.000000	74.737709
1388.000000	74.464482
1387.000000	74.029840
1386.000000	73.576871
1385.000000	73.273306
1384.000000	73.191576
1383.000000	73.310720
1382.000000	73.550747
1381.000000	73.794260
1380.000000	73.924534
1379.000000	73.886830
1378.000000	73.712747
1377.000000	73.465663
1376.000000	73.175212
1375.000000	72.851744
1374.000000	72.544237
1373.000000	72.316096
1372.000000	72.149327
1371.000000	71.965784
1370.000000	71.716370
1369.000000	71.395697
1368.000000	71.022289
1367.000000	70.624656
1366.000000	70.227551
1365.000000	69.834110
1364.000000	69.418851
1363.000000	68.968332
1362.000000	68.532485
1361.000000	68.169208
1360.000000	67.868637
1359.000000	67.595522
1358.000000	67.352609
1357.000000	67.166253
1356.000000	67.046533
1355.000000	66.986486
1354.000000	66.976081
1353.000000	66.992032
1352.000000	66.982285
1351.000000	66.889269
1350.000000	66.677897
1349.000000	66.329527
1348.000000	65.826026
1347.000000	65.158308
1346.000000	64.337629
1345.000000	63.386863
1344.000000	62.330512
1343.000000	61.187293
1342.000000	59.957887
1341.000000	58.611057
1340.000000	57.111943
1339.000000	55.482010
1338.000000	53.780514
1337.000000	52.028628
1336.000000	50.204047
1335.000000	48.297810
1334.000000	46.335571
1333.000000	44.348956
1332.000000	42.368274
1331.000000	40.442067
1330.000000	38.625683
1329.000000	36.945640
1328.000000	35.400360
1327.000000	33.984940
1326.000000	32.686923
1325.000000	31.476183
1324.000000	30.326482
1323.000000	29.242261
1322.000000	28.240442
1321.000000	27.325444
1320.000000	26.513575
1319.000000	25.857794
1318.000000	25.425219
1317.000000	25.256904
1316.000000	25.366215
1315.000000	25.762598
1314.000000	26.437186
1313.000000	27.349579
1312.000000	28.447975
1311.000000	29.687387
1310.000000	31.029996
1309.000000	32.434551
1308.000000	33.863957
1307.000000	35.293619
1306.000000	36.701459
1305.000000	38.061778
1304.000000	39.354528
1303.000000	40.573205
1302.000000	41.718213
1301.000000	42.789054
1300.000000	43.783253
1299.000000	44.699725
1298.000000	45.535731
1297.000000	46.283652
1296.000000	46.943334
1295.000000	47.534511
1294.000000	48.094687
1293.000000	48.664590
1292.000000	49.276802
1291.000000	49.953147
1290.000000	50.700022
1289.000000	51.501914
1288.000000	52.322417
1287.000000	53.113583
1286.000000	53.827304
1285.000000	54.420459
1284.000000	54.860564
1283.000000	55.135780
1282.000000	55.253232
1281.000000	55.227660
1280.000000	55.068054
1279.000000	54.780343
1278.000000	54.378192
1277.000000	53.882999
1276.000000	53.330867
1275.000000	52.783105
1274.000000	52.322435
1273.000000	52.031027
1272.000000	51.975165
1271.000000	52.195536
1270.000000	52.699779
1269.000000	53.459748
1268.000000	54.416299
1267.000000	55.503929
1266.000000	56.666022
1265.000000	57.859190
1264.000000	59.052395
1263.000000	60.223710
1262.000000	61.361098
1261.000000	62.453254
1260.000000	63.479339
1259.000000	64.413634
1258.000000	65.243763
1257.000000	65.971848
1256.000000	66.603790
1255.000000	67.147982
1254.000000	67.617619
1253.000000	68.025620
1252.000000	68.370353
1251.000000	68.641327
1250.000000	68.836953
1249.000000	68.963397
1248.000000	69.026061
1247.000000	69.028314
1246.000000	68.976305
1245.000000	68.872561
1244.000000	68.702623
1243.000000	68.446304
1242.000000	68.096703
1241.000000	67.662519
1240.000000	67.161162
1239.000000	66.617079
1238.000000	66.062792
1237.000000	65.522512
1236.000000	64.995851
1235.000000	64.465664
1234.000000	63.916600
1233.000000	63.344404
1232.000000	62.757751
1231.000000	62.184588
1230.000000	61.669979
1229.000000	61.257922
1228.000000	60.968682
1227.000000	60.794141
1226.000000	60.707566
1225.000000	60.670915
1224.000000	60.648560
1223.000000	60.624085
1222.000000	60.609818
1221.000000	60.639896
1220.000000	60.748436
1219.000000	60.955506
1218.000000	61.258542
1217.000000	61.627963
1216.000000	62.014526
1215.000000	62.370106
1214.000000	62.672119
1213.000000	62.930075
1212.000000	63.174712
1211.000000	63.445213
1210.000000	63.774682
1209.000000	64.173039
1208.000000	64.617739
1207.000000	65.065449
1206.000000	65.476561
1205.000000	65.831428
1204.000000	66.132388
1203.000000	66.402393
1202.000000	66.678787
1201.000000	66.993325
1200.000000	67.351746
1199.000000	67.734249
1198.000000	68.112746
1197.000000	68.464093
1196.000000	68.774076
1195.000000	69.044160
1194.000000	69.295517
1193.000000	69.555052
1192.000000	69.834296
1191.000000	70.124447
1190.000000	70.409019
1189.000000	70.672601
1188.000000	70.903179
1187.000000	71.102043
1186.000000	71.291882
1185.000000	71.502799
1184.000000	71.746057
1183.000000	72.004812
1182.000000	72.247644
1181.000000	72.442770
1180.000000	72.569719
1179.000000	72.635345
1178.000000	72.679496
1177.000000	72.752337
1176.000000	72.882217
1175.000000	73.066390
1174.000000	73.280719
1173.000000	73.484257
1172.000000	73.626652
1171.000000	73.673408
1170.000000	73.634315
1169.000000	73.560050
1168.000000	73.511096
1167.000000	73.532383
1166.000000	73.641834
1165.000000	73.819261
1164.000000	74.005154
1163.000000	74.128002
1162.000000	74.147402
1161.000000	74.072264
1160.000000	73.948582
1159.000000	73.841431
1158.000000	73.815918
1157.000000	73.906132
1156.000000	74.090892
1155.000000	74.305003
1154.000000	74.478044
1153.000000	74.564282
1152.000000	74.552962
1151.000000	74.474733
1150.000000	74.398890
1149.000000	74.399478
1148.000000	74.511405
1147.000000	74.716890
1146.000000	74.965431
1145.000000	75.197156
1144.000000	75.360254
1143.000000	75.434770
1142.000000	75.449474
1141.000000	75.464591
1140.000000	75.532642
1139.000000	75.675523
1138.000000	75.885622
1137.000000	76.130458
1136.000000	76.360029
1135.000000	76.532535
1134.000000	76.643168
1133.000000	76.721950
1132.000000	76.805260
1131.000000	76.917783
1130.000000	77.070539
1129.000000	77.255268
1128.000000	77.439267
1127.000000	77.584280
1126.000000	77.677941
1125.000000	77.738812
1124.000000	77.794480
1123.000000	77.866246
1122.000000	77.965820
1121.000000	78.086207
1120.000000	78.191795
1119.000000	78.237686
1118.000000	78.204924
1117.000000	78.110763
1116.000000	77.990256
1115.000000	77.879442
1114.000000	77.807046
1113.000000	77.776661
1112.000000	77.748382
1111.000000	77.657035
1110.000000	77.451134
1109.000000	77.116919
1108.000000	76.675253
1107.000000	76.170857
1106.000000	75.661143
1105.000000	75.182888
1104.000000	74.720321
1103.000000	74.211383
1102.000000	73.578839
1101.000000	72.763653
1100.000000	71.740345
1099.000000	70.524500
1098.000000	69.173775
1097.000000	67.748613
1096.000000	66.276475
1095.000000	64.738506
1094.000000	63.081351
1093.000000	61.243522
1092.000000	59.176698
1091.000000	56.879676
1090.000000	54.406009
1089.000000	51.839045
1088.000000	49.263614
1087.000000	46.747075
1086.000000	44.330002
1085.000000	42.023684
1084.000000	39.827415
1083.000000	37.743971
1082.000000	35.787317
1081.000000	33.977535
1080.000000	32.339875
1079.000000	30.900271
1078.000000	29.656509
1077.000000	28.579464
1076.000000	27.632075
1075.000000	26.782496
1074.000000	26.005557
1073.000000	25.280489
1072.000000	24.609021
1071.000000	24.011139
1070.000000	23.498958
1069.000000	23.070543
1068.000000	22.719956
1067.000000	22.443227
1066.000000	22.228022
1065.000000	22.056423
1064.000000	21.929311
1063.000000	21.864403
1062.000000	21.875762
1061.000000	21.965702
1060.000000	22.133606
1059.000000	22.377770
1058.000000	22.680366
1057.000000	23.014821
1056.000000	23.371410
1055.000000	23.760514
1054.000000	24.197319
1053.000000	24.692785
1052.000000	25.260728
1051.000000	25.912487
1050.000000	26.636739
1049.000000	27.405388
1048.000000	28.196549
1047.000000	29.004944
1046.000000	29.835674
1045.000000	30.700167
1044.000000	31.621434
1043.000000	32.620888
1042.000000	33.697517
1041.000000	34.826774
1040.000000	35.975349
1039.000000	37.114642
1038.000000	38.226114
1037.000000	39.308964
1036.000000	40.384637
1035.000000	41.483099
1034.000000	42.622968
1033.000000	43.801440
1032.000000	44.996947
1031.000000	46.175313
1030.000000	47.302077
1029.000000	48.358247
1028.000000	49.349573
1027.000000	50.301790
1026.000000	51.244776
1025.000000	52.198869
1024.000000	53.164374
1023.000000	54.120638
1022.000000	55.039073
1021.000000	55.897732
1020.000000	56.691359
1019.000000	57.432459
1018.000000	58.146121
1017.000000	58.858319
1016.000000	59.578691
1015.000000	60.296302
1014.000000	60.989341
1013.000000	61.638446
1012.000000	62.235727
1011.000000	62.789179
1010.000000	63.323556
1009.000000	63.868128
1008.000000	64.435684
1007.000000	65.015097
1006.000000	65.579288
1005.000000	66.098794
1004.000000	66.553040
1003.000000	66.943560
1002.000000	67.301510
1001.000000	67.673106
1000.000000	68.091594
999.000000	68.561529
998.000000	69.060787
997.000000	69.549356
996.000000	69.979108
995.000000	70.317497
994.000000	70.572988
993.000000	70.792907
992.000000	71.034440
991.000000	71.339412
990.000000	71.722646
989.000000	72.164661
988.000000	72.610386
987.000000	72.994094
986.000000	73.277749
985.000000	73.469700
984.000000	73.611996
983.000000	73.761127
982.000000	73.972196
981.000000	74.275199
980.000000	74.652509
979.000000	75.047621
978.000000	75.399552
977.000000	75.669836
976.000000	75.848268
975.000000	75.955395
974.000000	76.042187
973.000000	76.167530
972.000000	76.363866
971.000000	76.624465
970.000000	76.918280
969.000000	77.206826
968.000000	77.450882
967.000000	77.625558
966.000000	77.738722
965.000000	77.825051
964.000000	77.918491
963.000000	78.037547
962.000000	78.189899
961.000000	78.373428
960.000000	78.569943
959.000000	78.754709
958.000000	78.916007
957.000000	79.056683
956.000000	79.177940
955.000000	79.275862
954.000000	79.354177
953.000000	79.424292
952.000000	79.492661
951.000000	79.562203
950.000000	79.645661
949.000000	79.760117
948.000000	79.905059
947.000000	80.057739
946.000000	80.192013
945.000000	80.288534
944.000000	80.332393
943.000000	80.321905
942.000000	80.285058
941.000000	80.269699
940.000000	80.310978
939.000000	80.415282
938.000000	80.567708
937.000000	80.736161
936.000000	80.870968
935.000000	80.924578
934.000000	80.885637
933.000000	80.786900
932.000000	80.679772
931.000000	80.611657
930.000000	80.618454
929.000000	80.709944
928.000000	80.852503
927.000000	80.980746
926.000000	81.037790
925.000000	80.999849
924.000000	80.874195
923.000000	80.694487
922.000000	80.517716
921.000000	80.400740
920.000000	80.365977
919.000000	80.392818
918.000000	80.439367
917.000000	80.459929
916.000000	80.410946
915.000000	80.266707
914.000000	80.040643
913.000000	79.778264
912.000000	79.524087
911.000000	79.305017
910.000000	79.134754
909.000000	79.010923
908.000000	78.904658
907.000000	78.770344
906.000000	78.574804
905.000000	78.308526
904.000000	77.974215
903.000000	77.584006
902.000000	77.167189
901.000000	76.761684
900.000000	76.389861
899.000000	76.049604
898.000000	75.727395
897.000000	75.400592
896.000000	75.032048
895.000000	74.582441
894.000000	74.036768
893.000000	73.411593
892.000000	72.737281
891.000000	72.047426
890.000000	71.377993
889.000000	70.751456
888.000000	70.155658
887.000000	69.544821
886.000000	68.866787
885.000000	68.085892
884.000000	67.187784
883.000000	66.185450
882.000000	65.122421
881.000000	64.055012
880.000000	63.020953
879.000000	62.022124
878.000000	61.032849
877.000000	60.010820
876.000000	58.909154
875.000000	57.698404
874.000000	56.385357
873.000000	55.009379
872.000000	53.619078
871.000000	52.252144
870.000000	50.927340
869.000000	49.639397
868.000000	48.361408
867.000000	47.058429
866.000000	45.708374
865.000000	44.313796
864.000000	42.898325
863.000000	41.493963
862.000000	40.127731
861.000000	38.813940
860.000000	37.553726
859.000000	36.342085
858.000000	35.177216
857.000000	34.070440
856.000000	33.054194
855.000000	32.169953
854.000000	31.453906
853.000000	30.923895
852.000000	30.573617
851.000000	30.374050
850.000000	30.275386
849.000000	30.227601
848.000000	30.197742
847.000000	30.172069
846.000000	30.150970
845.000000	30.142220
844.000000	30.157470
843.000000	30.203157
842.000000	30.276519
841.000000	30.376734
840.000000	30.514580
839.000000	30.710094
838.000000	30.983823
837.000000	31.351185
836.000000	31.820166
835.000000	32.380881
834.000000	33.002935
833.000000	33.648183
832.000000	34.287378
831.000000	34.911037
830.000000	35.531716
829.000000	36.181390
828.000000	36.895779
827.000000	37.691321
826.000000	38.554704
825.000000	39.449396
824.000000	40.328298
823.000000	41.149183
822.000000	41.895261
821.000000	42.587083
820.000000	43.269239
819.000000	43.984235
818.000000	44.754041
817.000000	45.573342
816.000000	46.405606
815.000000	47.192943
814.000000	47.886286
813.000000	48.473613
812.000000	48.981438
811.000000	49.457789
810.000000	49.955898
809.000000	50.516245
808.000000	51.144237
807.000000	51.805861
806.000000	52.451650
805.000000	53.047667
804.000000	53.585580
803.000000	54.078969
802.000000	54.559773
801.000000	55.065520
800.000000	55.613038
799.000000	56.186054
798.000000	56.752215
797.000000	57.287795
796.000000	57.784948
795.000000	58.252863
794.000000	58.720316
793.000000	59.222451
792.000000	59.769947
791.000000	60.334602
790.000000	60.869214
789.000000	61.336921
788.000000	61.725015
787.000000	62.053116
786.000000	62.377144
785.000000	62.765387
784.000000	63.252243
783.000000	63.812948
782.000000	64.380237
781.000000	64.875235
780.000000	65.232857
779.000000	65.433298
778.000000	65.531219
777.000000	65.640069
776.000000	65.868603
775.000000	66.264546
774.000000	66.802433
773.000000	67.394611
772.000000	67.913070
771.000000	68.241638
770.000000	68.348178
769.000000	68.310601
768.000000	68.269307
767.000000	68.357135
766.000000	68.654065
765.000000	69.157253
764.000000	69.765267
763.000000	70.310076
762.000000	70.646386
761.000000	70.729897
760.000000	70.627191
759.000000	70.475090
758.000000	70.429286
757.000000	70.601654
756.000000	71.001581
755.000000	71.525119
754.000000	72.013252
753.000000	72.330237
752.000000	72.415028
751.000000	72.301331
750.000000	72.109929
749.000000	71.992988
748.000000	72.051689
747.000000	72.289077
746.000000	72.628907
745.000000	72.960243
744.000000	73.176800
743.000000	73.220504
742.000000	73.120702
741.000000	72.977831
740.000000	72.893232
739.000000	72.913730
738.000000	73.030689
737.000000	73.198252
736.000000	73.346881
735.000000	73.416035
734.000000	73.404197
733.000000	73.373352
732.000000	73.393247
731.000000	73.491839
730.000000	73.655317
729.000000	73.841698
728.000000	73.986778
727.000000	74.035469
726.000000	73.996957
725.000000	73.956223
724.000000	74.013551
723.000000	74.221040
722.000000	74.567201
721.000000	74.982504
720.000000	75.344882
719.000000	75.527148
718.000000	75.486009
717.000000	75.305349
716.000000	75.142851
715.000000	75.145000
714.000000	75.395240
713.000000	75.882625
712.000000	76.479693
711.000000	76.979639
710.000000	77.208183
709.000000	77.122821
708.000000	76.821978
707.000000	76.492825
706.000000	76.343123
705.000000	76.519370
704.000000	77.021898
703.000000	77.686200
702.000000	78.269793
701.000000	78.575482
700.000000	78.522808
699.000000	78.178587
698.000000	77.747327
697.000000	77.486998
696.000000	77.569127
695.000000	77.991702
694.000000	78.607655
693.000000	79.206148
692.000000	79.578096
691.000000	79.597152
690.000000	79.303385
689.000000	78.899541
688.000000	78.626321
687.000000	78.625844
686.000000	78.911042
685.000000	79.393265
684.000000	79.896256
683.000000	80.214966
682.000000	80.245885
681.000000	80.054535
680.000000	79.798022
679.000000	79.614466
678.000000	79.595267
677.000000	79.774101
676.000000	80.076785
675.000000	80.359059
674.000000	80.512613
673.000000	80.533165
672.000000	80.498074
671.000000	80.507283
670.000000	80.641807
669.000000	80.920490
668.000000	81.205948
667.000000	81.293820
666.000000	81.178407
665.000000	80.968072
664.000000	80.762465
663.000000	80.655840
662.000000	80.718847
661.000000	80.956525
660.000000	81.285399
659.000000	81.564072
658.000000	81.665910
657.000000	81.544307
656.000000	81.253321
655.000000	80.952273
654.000000	80.827034
653.000000	80.975710
652.000000	81.369525
651.000000	81.872912
650.000000	82.284101
649.000000	82.412442
648.000000	82.185451
647.000000	81.710273
646.000000	81.224288
645.000000	80.969412
644.000000	81.081080
643.000000	81.539184
642.000000	82.168434
641.000000	82.699347
640.000000	82.891619
639.000000	82.661440
638.000000	82.127561
637.000000	81.545410
636.000000	81.182834
635.000000	81.210402
634.000000	81.630999
633.000000	82.270378
632.000000	82.848749
631.000000	83.112205
630.000000	82.960711
629.000000	82.490298
628.000000	81.930898
627.000000	81.538763
626.000000	81.490089
625.000000	81.804272
624.000000	82.333422
623.000000	82.834715
622.000000	83.093343
621.000000	83.024042
620.000000	82.694001
619.000000	82.276822
618.000000	81.973298
617.000000	81.920323
616.000000	82.126521
615.000000	82.476848
614.000000	82.800875
613.000000	82.961090
612.000000	82.911748
611.000000	82.711788
610.000000	82.493499
609.000000	82.386249
608.000000	82.439187
607.000000	82.602217
606.000000	82.771329
605.000000	82.853392
604.000000	82.808186
603.000000	82.666409
602.000000	82.522979
601.000000	82.481242
600.000000	82.577939
599.000000	82.753832
598.000000	82.891841
597.000000	82.884558
596.000000	82.686893
595.000000	82.348202
594.000000	82.011369
593.000000	81.845204
592.000000	81.945510
591.000000	82.280562
590.000000	82.710519
589.000000	83.052503
588.000000	83.155484
587.000000	82.970446
586.000000	82.594715
585.000000	82.235555
584.000000	82.095455
583.000000	82.271759
582.000000	82.723626
581.000000	83.284709
580.000000	83.714953
579.000000	83.812037
578.000000	83.532995
577.000000	83.020952
576.000000	82.524869
575.000000	82.281790
574.000000	82.411657
573.000000	82.865281
572.000000	83.445920
571.000000	83.888698
570.000000	83.989640
569.000000	83.713363
568.000000	83.194019
567.000000	82.661722
566.000000	82.347637
565.000000	82.380701
564.000000	82.722686
563.000000	83.192543
562.000000	83.562033
561.000000	83.667852
560.000000	83.471136
559.000000	83.063716
558.000000	82.633230
557.000000	82.374201
556.000000	82.381890
555.000000	82.613852
554.000000	82.934574
553.000000	83.191569
552.000000	83.273531
551.000000	83.156496
550.000000	82.926608
549.000000	82.729629
548.000000	82.670520
547.000000	82.763141
546.000000	82.952419
545.000000	83.154889
544.000000	83.283169
543.000000	83.284143
542.000000	83.185476
541.000000	83.084942
540.000000	83.068394
539.000000	83.151722
538.000000	83.291693
537.000000	83.421424
536.000000	83.470611
535.000000	83.399498
534.000000	83.244052
533.000000	83.110676
532.000000	83.098908
531.000000	83.236354
530.000000	83.475465
529.000000	83.718257
528.000000	83.843412
527.000000	83.763368
526.000000	83.501994
525.000000	83.199542
524.000000	83.009503
523.000000	83.008244
522.000000	83.200160
521.000000	83.530313
520.000000	83.865296
519.000000	84.024810
518.000000	83.896473
517.000000	83.523145
516.000000	83.060520
515.000000	82.675771
514.000000	82.489944
513.000000	82.543444
512.000000	82.759775
511.000000	82.959775
510.000000	82.963304
509.000000	82.687600
508.000000	82.157101
507.000000	81.485682
506.000000	80.853167
505.000000	80.416916
504.000000	80.222575
503.000000	80.205111
502.000000	80.252610
501.000000	80.251084
500.000000	80.105241
499.000000	79.781951
498.000000	79.369223
497.000000	79.044101
496.000000	78.947349
495.000000	79.100240
494.000000	79.439167
493.000000	79.874784
492.000000	80.299920
491.000000	80.618398
490.000000	80.810596
489.000000	80.943186
488.000000	81.093754
487.000000	81.299373
486.000000	81.575431
485.000000	81.918980
484.000000	82.272074
483.000000	82.537852
482.000000	82.672548
481.000000	82.718362
480.000000	82.735337
479.000000	82.748932
478.000000	82.768130
477.000000	82.801621
476.000000	82.829197
475.000000	82.803525
474.000000	82.719471
473.000000	82.646810
472.000000	82.669269
471.000000	82.818936
470.000000	83.066414
469.000000	83.361595
468.000000	83.641018
467.000000	83.823433
466.000000	83.865476
465.000000	83.809164
464.000000	83.737391
463.000000	83.719934
462.000000	83.802786
461.000000	83.987920
460.000000	84.208136
459.000000	84.358219
458.000000	84.375949
457.000000	84.304556
456.000000	84.218262
455.000000	84.123719
454.000000	84.042218
453.000000	84.076399
452.000000	84.303224
451.000000	84.655918
450.000000	84.981913
449.000000	85.178685
448.000000	85.199024
447.000000	85.029692
446.000000	84.752899
445.000000	84.554689
444.000000	84.588741
443.000000	84.858868
442.000000	85.256549
441.000000	85.666150
440.000000	85.973827
439.000000	86.061370
438.000000	85.909635
437.000000	85.661127
436.000000	85.495689
435.000000	85.482294
434.000000	85.608815
433.000000	85.873603
432.000000	86.233680
431.000000	86.537474
430.000000	86.648101
429.000000	86.586885
428.000000	86.451221
427.000000	86.292389
426.000000	86.156510
425.000000	86.136896
424.000000	86.267922
423.000000	86.438975
422.000000	86.515446
421.000000	86.479237
420.000000	86.375869
419.000000	86.232134
418.000000	86.180797
417.000000	86.382140
416.000000	86.727509
415.000000	86.993027
414.000000	87.104252
413.000000	87.176857
412.000000	87.295749
411.000000	87.373521
410.000000	87.354543
409.000000	87.352556
408.000000	87.439691
407.000000	87.498139
406.000000	87.440536
405.000000	87.374252
404.000000	87.382609
403.000000	87.372456
402.000000	87.301990
401.000000	87.328039
400.000000	87.505911
