PE IR       SUBTECH     SPECTRUM    ASCII       PEDS        4.00        
   -1
23MS145_nitro.asc
24/09/06
16:36:02.00
24/09/06
16:36:02.00
Administrator
Sample 1130 By Administrator Date Friday, September 06 2024
400.000000
#HDR
-1
-1
#GR
cm-1
%T
1.0
0.0
4000.000000
-1.000000
3601
8
88.034855
5.406494
#DATA
4000.000000	57.824258
3999.000000	57.859392
3998.000000	57.895722
3997.000000	57.933495
3996.000000	57.972388
3995.000000	58.011074
3994.000000	58.047647
3993.000000	58.081100
3992.000000	58.112397
3991.000000	58.143639
3990.000000	58.175825
3989.000000	58.208120
3988.000000	58.239685
3987.000000	58.271364
3986.000000	58.304928
3985.000000	58.340969
3984.000000	58.378390
3983.000000	58.415596
3982.000000	58.451454
3981.000000	58.485283
3980.000000	58.516622
3979.000000	58.545512
3978.000000	58.573009
3977.000000	58.600708
3976.000000	58.629441
3975.000000	58.658616
3974.000000	58.687284
3973.000000	58.715478
3972.000000	58.744157
3971.000000	58.774573
3970.000000	58.807450
3969.000000	58.842179
3968.000000	58.876793
3967.000000	58.909130
3966.000000	58.937907
3965.000000	58.963554
3964.000000	58.988077
3963.000000	59.013545
3962.000000	59.040739
3961.000000	59.068751
3960.000000	59.096031
3959.000000	59.122806
3958.000000	59.151249
3957.000000	59.182778
3956.000000	59.216145
3955.000000	59.248940
3954.000000	59.279694
3953.000000	59.308214
3952.000000	59.334803
3951.000000	59.360184
3950.000000	59.385072
3949.000000	59.408621
3948.000000	59.429401
3947.000000	59.447390
3946.000000	59.465132
3945.000000	59.488285
3944.000000	59.523189
3943.000000	59.570032
3942.000000	59.619502
3941.000000	59.660701
3940.000000	59.691352
3939.000000	59.718613
3938.000000	59.749545
3937.000000	59.782798
3936.000000	59.810851
3935.000000	59.830077
3934.000000	59.846689
3933.000000	59.870136
3932.000000	59.902413
3931.000000	59.936850
3930.000000	59.966757
3929.000000	59.992769
3928.000000	60.020083
3927.000000	60.052938
3926.000000	60.092882
3925.000000	60.137395
3924.000000	60.177236
3923.000000	60.202034
3922.000000	60.211425
3921.000000	60.216524
3920.000000	60.229168
3919.000000	60.252257
3918.000000	60.282558
3917.000000	60.318679
3916.000000	60.359635
3915.000000	60.401100
3914.000000	60.439555
3913.000000	60.478105
3912.000000	60.520834
3911.000000	60.565753
3910.000000	60.605470
3909.000000	60.635625
3908.000000	60.657451
3907.000000	60.673700
3906.000000	60.684228
3905.000000	60.687807
3904.000000	60.684249
3903.000000	60.675771
3902.000000	60.669780
3901.000000	60.677816
3900.000000	60.709101
3899.000000	60.760573
3898.000000	60.815774
3897.000000	60.861733
3896.000000	60.898902
3895.000000	60.936198
3894.000000	60.979072
3893.000000	61.025422
3892.000000	61.067581
3891.000000	61.100952
3890.000000	61.122795
3889.000000	61.129504
3888.000000	61.123442
3887.000000	61.123507
3886.000000	61.151454
3885.000000	61.201006
3884.000000	61.239968
3883.000000	61.253237
3882.000000	61.261185
3881.000000	61.291265
3880.000000	61.342121
3879.000000	61.387775
3878.000000	61.410079
3877.000000	61.415139
3876.000000	61.425627
3875.000000	61.462377
3874.000000	61.520564
3873.000000	61.567890
3872.000000	61.578532
3871.000000	61.567208
3870.000000	61.572990
3869.000000	61.605378
3868.000000	61.633726
3867.000000	61.636906
3866.000000	61.636081
3865.000000	61.667067
3864.000000	61.728260
3863.000000	61.784696
3862.000000	61.817168
3861.000000	61.837844
3860.000000	61.866015
3859.000000	61.914809
3858.000000	61.985591
3857.000000	62.064980
3856.000000	62.124360
3855.000000	62.142986
3854.000000	62.134008
3853.000000	62.119654
3852.000000	62.104200
3851.000000	62.091610
3850.000000	62.094047
3849.000000	62.122875
3848.000000	62.177069
3847.000000	62.243049
3846.000000	62.307092
3845.000000	62.362452
3844.000000	62.405635
3843.000000	62.437426
3842.000000	62.459274
3841.000000	62.471983
3840.000000	62.478997
3839.000000	62.486961
3838.000000	62.499063
3837.000000	62.516910
3836.000000	62.540989
3835.000000	62.570197
3834.000000	62.602825
3833.000000	62.640565
3832.000000	62.687489
3831.000000	62.741067
3830.000000	62.791046
3829.000000	62.831182
3828.000000	62.865053
3827.000000	62.902771
3826.000000	62.947056
3825.000000	62.984561
3824.000000	62.997372
3823.000000	62.991105
3822.000000	62.998954
3821.000000	63.041204
3820.000000	63.091865
3819.000000	63.114607
3818.000000	63.107708
3817.000000	63.104858
3816.000000	63.142187
3815.000000	63.212975
3814.000000	63.277292
3813.000000	63.316009
3812.000000	63.346770
3811.000000	63.389909
3810.000000	63.441828
3809.000000	63.483351
3808.000000	63.508169
3807.000000	63.530567
3806.000000	63.558290
3805.000000	63.577245
3804.000000	63.574715
3803.000000	63.565376
3802.000000	63.580234
3801.000000	63.624348
3800.000000	63.665172
3799.000000	63.681408
3798.000000	63.690033
3797.000000	63.720561
3796.000000	63.781004
3795.000000	63.851378
3794.000000	63.910218
3793.000000	63.956159
3792.000000	64.001051
3791.000000	64.049931
3790.000000	64.096267
3789.000000	64.132780
3788.000000	64.160336
3787.000000	64.184760
3786.000000	64.210855
3785.000000	64.239745
3784.000000	64.268917
3783.000000	64.293259
3782.000000	64.311605
3781.000000	64.333183
3780.000000	64.369304
3779.000000	64.417256
3778.000000	64.460730
3777.000000	64.488951
3776.000000	64.506984
3775.000000	64.529017
3774.000000	64.561273
3773.000000	64.595076
3772.000000	64.619774
3771.000000	64.640009
3770.000000	64.666474
3769.000000	64.696280
3768.000000	64.718847
3767.000000	64.735872
3766.000000	64.761594
3765.000000	64.804195
3764.000000	64.851712
3763.000000	64.883632
3762.000000	64.896231
3761.000000	64.909504
3760.000000	64.940489
3759.000000	64.979384
3758.000000	65.008805
3757.000000	65.031010
3756.000000	65.054343
3755.000000	65.076193
3754.000000	65.091407
3753.000000	65.105320
3752.000000	65.123491
3751.000000	65.133022
3750.000000	65.125258
3749.000000	65.122812
3748.000000	65.142489
3747.000000	65.167840
3746.000000	65.184022
3745.000000	65.212234
3744.000000	65.275117
3743.000000	65.347760
3742.000000	65.394810
3741.000000	65.420310
3740.000000	65.448083
3739.000000	65.483861
3738.000000	65.515465
3737.000000	65.544836
3736.000000	65.590100
3735.000000	65.648019
3734.000000	65.690845
3733.000000	65.712914
3732.000000	65.740721
3731.000000	65.792278
3730.000000	65.856898
3729.000000	65.914131
3728.000000	65.961190
3727.000000	66.013330
3726.000000	66.076128
3725.000000	66.132414
3724.000000	66.169344
3723.000000	66.197428
3722.000000	66.231654
3721.000000	66.273599
3720.000000	66.316926
3719.000000	66.358208
3718.000000	66.400128
3717.000000	66.446765
3716.000000	66.492909
3715.000000	66.528337
3714.000000	66.551374
3713.000000	66.573241
3712.000000	66.604062
3711.000000	66.638271
3710.000000	66.667470
3709.000000	66.694216
3708.000000	66.726236
3707.000000	66.769043
3706.000000	66.820836
3705.000000	66.874876
3704.000000	66.927858
3703.000000	66.983714
3702.000000	67.044884
3701.000000	67.104206
3700.000000	67.152405
3699.000000	67.187402
3698.000000	67.215911
3697.000000	67.248864
3696.000000	67.287622
3695.000000	67.319948
3694.000000	67.337178
3693.000000	67.348303
3692.000000	67.368599
3691.000000	67.400004
3690.000000	67.429803
3689.000000	67.450176
3688.000000	67.471382
3687.000000	67.505917
3686.000000	67.549998
3685.000000	67.594896
3684.000000	67.639752
3683.000000	67.684671
3682.000000	67.724548
3681.000000	67.756139
3680.000000	67.785148
3679.000000	67.810422
3678.000000	67.814637
3677.000000	67.795562
3676.000000	67.791030
3675.000000	67.824635
3674.000000	67.865466
3673.000000	67.876693
3672.000000	67.861376
3671.000000	67.865985
3670.000000	67.928066
3669.000000	68.019936
3668.000000	68.093449
3667.000000	68.142958
3666.000000	68.188632
3665.000000	68.245610
3664.000000	68.313894
3663.000000	68.384011
3662.000000	68.448583
3661.000000	68.504753
3660.000000	68.548503
3659.000000	68.572767
3658.000000	68.576555
3657.000000	68.571836
3656.000000	68.572952
3655.000000	68.578095
3654.000000	68.572196
3653.000000	68.545749
3652.000000	68.509494
3651.000000	68.487870
3650.000000	68.491523
3649.000000	68.504717
3648.000000	68.522979
3647.000000	68.561910
3646.000000	68.622317
3645.000000	68.687922
3644.000000	68.749011
3643.000000	68.808238
3642.000000	68.868537
3641.000000	68.923076
3640.000000	68.961996
3639.000000	68.987093
3638.000000	69.007932
3637.000000	69.027438
3636.000000	69.041628
3635.000000	69.053334
3634.000000	69.072118
3633.000000	69.093646
3632.000000	69.094912
3631.000000	69.061203
3630.000000	69.017023
3629.000000	69.003795
3628.000000	69.019768
3627.000000	69.037688
3626.000000	69.051342
3625.000000	69.071274
3624.000000	69.104890
3623.000000	69.146884
3622.000000	69.182562
3621.000000	69.204854
3620.000000	69.219914
3619.000000	69.231574
3618.000000	69.234244
3617.000000	69.225383
3616.000000	69.209730
3615.000000	69.198664
3614.000000	69.203400
3613.000000	69.220542
3612.000000	69.233128
3611.000000	69.231290
3610.000000	69.227178
3609.000000	69.246168
3608.000000	69.298247
3607.000000	69.365605
3606.000000	69.424695
3605.000000	69.466746
3604.000000	69.496803
3603.000000	69.523084
3602.000000	69.547983
3601.000000	69.568738
3600.000000	69.581411
3599.000000	69.582736
3598.000000	69.575781
3597.000000	69.570430
3596.000000	69.576470
3595.000000	69.597271
3594.000000	69.626845
3593.000000	69.651995
3592.000000	69.661857
3591.000000	69.652791
3590.000000	69.632502
3589.000000	69.621694
3588.000000	69.639160
3587.000000	69.678570
3586.000000	69.717588
3585.000000	69.745849
3584.000000	69.769602
3583.000000	69.798801
3582.000000	69.837084
3581.000000	69.880291
3580.000000	69.921688
3579.000000	69.957070
3578.000000	69.985697
3577.000000	70.008279
3576.000000	70.025975
3575.000000	70.039958
3574.000000	70.050893
3573.000000	70.056950
3572.000000	70.054298
3571.000000	70.038893
3570.000000	70.009764
3569.000000	69.978344
3568.000000	69.967486
3567.000000	69.989349
3566.000000	70.030536
3565.000000	70.072600
3564.000000	70.110186
3563.000000	70.148285
3562.000000	70.190911
3561.000000	70.235063
3560.000000	70.274235
3559.000000	70.304924
3558.000000	70.328179
3557.000000	70.346688
3556.000000	70.363528
3555.000000	70.382510
3554.000000	70.407181
3553.000000	70.437221
3552.000000	70.466082
3551.000000	70.485075
3550.000000	70.489909
3549.000000	70.485519
3548.000000	70.484707
3547.000000	70.499106
3546.000000	70.528940
3545.000000	70.564312
3544.000000	70.596621
3543.000000	70.625037
3542.000000	70.652660
3541.000000	70.681007
3540.000000	70.710124
3539.000000	70.740145
3538.000000	70.770758
3537.000000	70.799479
3536.000000	70.821820
3535.000000	70.835056
3534.000000	70.840266
3533.000000	70.841977
3532.000000	70.845529
3531.000000	70.854197
3530.000000	70.867418
3529.000000	70.882708
3528.000000	70.899301
3527.000000	70.918557
3526.000000	70.941611
3525.000000	70.968185
3524.000000	70.996785
3523.000000	71.023781
3522.000000	71.044466
3521.000000	71.057282
3520.000000	71.066635
3519.000000	71.079129
3518.000000	71.097326
3517.000000	71.118732
3516.000000	71.140037
3515.000000	71.159904
3514.000000	71.176397
3513.000000	71.185793
3512.000000	71.187346
3511.000000	71.186201
3510.000000	71.187553
3509.000000	71.190492
3508.000000	71.190381
3507.000000	71.185992
3506.000000	71.181747
3505.000000	71.184100
3504.000000	71.196124
3503.000000	71.214610
3502.000000	71.232737
3501.000000	71.246037
3500.000000	71.255668
3499.000000	71.264879
3498.000000	71.273868
3497.000000	71.278990
3496.000000	71.276655
3495.000000	71.266587
3494.000000	71.250950
3493.000000	71.232110
3492.000000	71.212797
3491.000000	71.196569
3490.000000	71.185836
3489.000000	71.180268
3488.000000	71.177395
3487.000000	71.173036
3486.000000	71.161992
3485.000000	71.141349
3484.000000	71.114092
3483.000000	71.087474
3482.000000	71.065394
3481.000000	71.044407
3480.000000	71.018362
3479.000000	70.985275
3478.000000	70.948438
3477.000000	70.912962
3476.000000	70.882722
3475.000000	70.858451
3474.000000	70.837767
3473.000000	70.817515
3472.000000	70.796055
3471.000000	70.772336
3470.000000	70.742877
3469.000000	70.702269
3468.000000	70.647967
3467.000000	70.582602
3466.000000	70.511408
3465.000000	70.439643
3464.000000	70.372726
3463.000000	70.315227
3462.000000	70.266940
3461.000000	70.221992
3460.000000	70.173401
3459.000000	70.117603
3458.000000	70.054275
3457.000000	69.983991
3456.000000	69.907911
3455.000000	69.827886
3454.000000	69.744983
3453.000000	69.659611
3452.000000	69.573146
3451.000000	69.487983
3450.000000	69.405585
3449.000000	69.326009
3448.000000	69.249252
3447.000000	69.174222
3446.000000	69.096736
3445.000000	69.011747
3444.000000	68.917890
3443.000000	68.817868
3442.000000	68.714389
3441.000000	68.608207
3440.000000	68.500713
3439.000000	68.395089
3438.000000	68.292653
3437.000000	68.190036
3436.000000	68.082357
3435.000000	67.967812
3434.000000	67.847579
3433.000000	67.723565
3432.000000	67.596392
3431.000000	67.464287
3430.000000	67.323090
3429.000000	67.168947
3428.000000	67.002531
3427.000000	66.828881
3426.000000	66.653377
3425.000000	66.479058
3424.000000	66.307457
3423.000000	66.139626
3422.000000	65.974755
3421.000000	65.809535
3420.000000	65.640098
3419.000000	65.463867
3418.000000	65.279444
3417.000000	65.086272
3416.000000	64.884938
3415.000000	64.676156
3414.000000	64.459042
3413.000000	64.232465
3412.000000	63.997979
3411.000000	63.759578
3410.000000	63.519824
3409.000000	63.277649
3408.000000	63.030785
3407.000000	62.778356
3406.000000	62.520930
3405.000000	62.259464
3404.000000	61.994068
3403.000000	61.722495
3402.000000	61.438974
3401.000000	61.136898
3400.000000	60.814235
3399.000000	60.475949
3398.000000	60.131025
3397.000000	59.787262
3396.000000	59.448085
3395.000000	59.112465
3394.000000	58.775805
3393.000000	58.431501
3392.000000	58.072984
3391.000000	57.695603
3390.000000	57.298881
3389.000000	56.886875
3388.000000	56.465559
3387.000000	56.038696
3386.000000	55.606523
3385.000000	55.169138
3384.000000	54.728372
3383.000000	54.285854
3382.000000	53.840613
3381.000000	53.390074
3380.000000	52.932284
3379.000000	52.465559
3378.000000	51.987650
3377.000000	51.497096
3376.000000	50.994595
3375.000000	50.482382
3374.000000	49.963013
3373.000000	49.439319
3372.000000	48.914009
3371.000000	48.387099
3370.000000	47.855646
3369.000000	47.316606
3368.000000	46.769173
3367.000000	46.213955
3366.000000	45.651461
3365.000000	45.082855
3364.000000	44.509892
3363.000000	43.932935
3362.000000	43.350743
3361.000000	42.762918
3360.000000	42.171148
3359.000000	41.577313
3358.000000	40.982228
3357.000000	40.387262
3356.000000	39.794474
3355.000000	39.204364
3354.000000	38.615352
3353.000000	38.026097
3352.000000	37.436305
3351.000000	36.844806
3350.000000	36.249564
3349.000000	35.650587
3348.000000	35.050662
3347.000000	34.452466
3346.000000	33.857006
3345.000000	33.265291
3344.000000	32.678830
3343.000000	32.097940
3342.000000	31.521724
3341.000000	30.950122
3340.000000	30.383681
3339.000000	29.821327
3338.000000	29.261204
3337.000000	28.703637
3336.000000	28.150807
3335.000000	27.603489
3334.000000	27.060892
3333.000000	26.523759
3332.000000	25.994147
3331.000000	25.472459
3330.000000	24.957486
3329.000000	24.449168
3328.000000	23.948853
3327.000000	23.456638
3326.000000	22.971848
3325.000000	22.495553
3324.000000	22.029169
3323.000000	21.571485
3322.000000	21.119917
3321.000000	20.674459
3320.000000	20.237602
3319.000000	19.810338
3318.000000	19.392357
3317.000000	18.984566
3316.000000	18.588358
3315.000000	18.202996
3314.000000	17.826560
3313.000000	17.459148
3312.000000	17.101693
3311.000000	16.752844
3310.000000	16.411186
3309.000000	16.078726
3308.000000	15.759494
3307.000000	15.455351
3306.000000	15.166447
3305.000000	14.894700
3304.000000	14.641353
3303.000000	14.403498
3302.000000	14.176348
3301.000000	13.958104
3300.000000	13.749552
3299.000000	13.549977
3298.000000	13.358254
3297.000000	13.176459
3296.000000	13.007577
3295.000000	12.851440
3294.000000	12.706179
3293.000000	12.572821
3292.000000	12.454266
3291.000000	12.349865
3290.000000	12.256272
3289.000000	12.171524
3288.000000	12.095291
3287.000000	12.026210
3286.000000	11.962547
3285.000000	11.905336
3284.000000	11.856241
3283.000000	11.813916
3282.000000	11.775779
3281.000000	11.741769
3280.000000	11.713195
3279.000000	11.688986
3278.000000	11.667131
3277.000000	11.648497
3276.000000	11.635126
3275.000000	11.626133
3274.000000	11.618887
3273.000000	11.613426
3272.000000	11.612264
3271.000000	11.616588
3270.000000	11.625884
3269.000000	11.639771
3268.000000	11.656942
3267.000000	11.674048
3266.000000	11.688807
3265.000000	11.703062
3264.000000	11.719793
3263.000000	11.738667
3262.000000	11.757831
3261.000000	11.777652
3260.000000	11.799266
3259.000000	11.821358
3258.000000	11.842147
3257.000000	11.863202
3256.000000	11.887437
3255.000000	11.914765
3254.000000	11.942945
3253.000000	11.971298
3252.000000	12.000150
3251.000000	12.028228
3250.000000	12.054241
3249.000000	12.079923
3248.000000	12.108279
3247.000000	12.139863
3246.000000	12.173356
3245.000000	12.208137
3244.000000	12.243564
3243.000000	12.277511
3242.000000	12.308785
3241.000000	12.339263
3240.000000	12.370941
3239.000000	12.402515
3238.000000	12.431698
3237.000000	12.458849
3236.000000	12.485693
3235.000000	12.512598
3234.000000	12.540026
3233.000000	12.570295
3232.000000	12.604439
3231.000000	12.639318
3230.000000	12.671097
3229.000000	12.699751
3228.000000	12.727229
3227.000000	12.753471
3226.000000	12.777465
3225.000000	12.800195
3224.000000	12.822927
3223.000000	12.844471
3222.000000	12.863351
3221.000000	12.880932
3220.000000	12.899260
3219.000000	12.917459
3218.000000	12.933449
3217.000000	12.947372
3216.000000	12.960319
3215.000000	12.971561
3214.000000	12.979947
3213.000000	12.986429
3212.000000	12.992174
3211.000000	12.996029
3210.000000	12.996779
3209.000000	12.995831
3208.000000	12.994951
3207.000000	12.993211
3206.000000	12.988939
3205.000000	12.982758
3204.000000	12.975648
3203.000000	12.966248
3202.000000	12.953046
3201.000000	12.937198
3200.000000	12.920472
3199.000000	12.902202
3198.000000	12.881248
3197.000000	12.858792
3196.000000	12.836236
3195.000000	12.812481
3194.000000	12.786084
3193.000000	12.758100
3192.000000	12.730042
3191.000000	12.700999
3190.000000	12.669755
3189.000000	12.637505
3188.000000	12.605726
3187.000000	12.573453
3186.000000	12.539435
3185.000000	12.504883
3184.000000	12.471360
3183.000000	12.438181
3182.000000	12.404566
3181.000000	12.372044
3180.000000	12.341897
3179.000000	12.312557
3178.000000	12.282341
3177.000000	12.252509
3176.000000	12.224869
3175.000000	12.198698
3174.000000	12.172847
3173.000000	12.148473
3172.000000	12.126847
3171.000000	12.106904
3170.000000	12.087617
3169.000000	12.070433
3168.000000	12.056722
3167.000000	12.045161
3166.000000	12.034470
3165.000000	12.026047
3164.000000	12.021178
3163.000000	12.018301
3162.000000	12.015749
3161.000000	12.014819
3160.000000	12.017177
3159.000000	12.021785
3158.000000	12.027231
3157.000000	12.034378
3156.000000	12.044175
3155.000000	12.055499
3154.000000	12.068101
3153.000000	12.085055
3152.000000	12.108896
3151.000000	12.137822
3150.000000	12.168377
3149.000000	12.199554
3148.000000	12.231743
3147.000000	12.264291
3146.000000	12.297123
3145.000000	12.332243
3144.000000	12.370613
3143.000000	12.410099
3142.000000	12.449079
3141.000000	12.489799
3140.000000	12.535301
3139.000000	12.585314
3138.000000	12.637917
3137.000000	12.692665
3136.000000	12.749474
3135.000000	12.806929
3134.000000	12.864236
3133.000000	12.922929
3132.000000	12.984178
3131.000000	13.046946
3130.000000	13.110855
3129.000000	13.177911
3128.000000	13.249124
3127.000000	13.322138
3126.000000	13.394694
3125.000000	13.467654
3124.000000	13.542091
3123.000000	13.616504
3122.000000	13.689761
3121.000000	13.764026
3120.000000	13.841914
3119.000000	13.923131
3118.000000	14.006710
3117.000000	14.093865
3116.000000	14.185792
3115.000000	14.281094
3114.000000	14.377745
3113.000000	14.475499
3112.000000	14.574027
3111.000000	14.671529
3110.000000	14.767671
3109.000000	14.865296
3108.000000	14.966679
3107.000000	15.070431
3106.000000	15.174281
3105.000000	15.278445
3104.000000	15.383943
3103.000000	15.490324
3102.000000	15.597578
3101.000000	15.707589
3100.000000	15.821363
3099.000000	15.936949
3098.000000	16.052483
3097.000000	16.168714
3096.000000	16.286350
3095.000000	16.403631
3094.000000	16.518944
3093.000000	16.633551
3092.000000	16.749537
3091.000000	16.867286
3090.000000	16.986872
3089.000000	17.109296
3088.000000	17.234246
3087.000000	17.359175
3086.000000	17.482709
3085.000000	17.606598
3084.000000	17.732365
3083.000000	17.858605
3082.000000	17.983743
3081.000000	18.108761
3080.000000	18.235150
3079.000000	18.362643
3078.000000	18.491056
3077.000000	18.621758
3076.000000	18.755118
3075.000000	18.889022
3074.000000	19.021914
3073.000000	19.154825
3072.000000	19.288452
3071.000000	19.420868
3070.000000	19.550524
3069.000000	19.679027
3068.000000	19.808693
3067.000000	19.939498
3066.000000	20.070533
3065.000000	20.202212
3064.000000	20.334837
3063.000000	20.467181
3062.000000	20.598559
3061.000000	20.730267
3060.000000	20.863200
3059.000000	20.996161
3058.000000	21.128170
3057.000000	21.260142
3056.000000	21.392420
3055.000000	21.523067
3054.000000	21.650577
3053.000000	21.776326
3052.000000	21.902533
3051.000000	22.029801
3050.000000	22.158195
3049.000000	22.288408
3048.000000	22.420106
3047.000000	22.551236
3046.000000	22.680722
3045.000000	22.809806
3044.000000	22.939377
3043.000000	23.068235
3042.000000	23.195600
3041.000000	23.322751
3040.000000	23.450469
3039.000000	23.577114
3038.000000	23.701233
3037.000000	23.824020
3036.000000	23.947461
3035.000000	24.072070
3034.000000	24.198035
3033.000000	24.326340
3032.000000	24.456793
3031.000000	24.586899
3030.000000	24.714514
3029.000000	24.839869
3028.000000	24.963656
3027.000000	25.085256
3026.000000	25.204539
3025.000000	25.323298
3024.000000	25.443125
3023.000000	25.563632
3022.000000	25.684221
3021.000000	25.805613
3020.000000	25.928132
3019.000000	26.050299
3018.000000	26.170789
3017.000000	26.290006
3016.000000	26.408498
3015.000000	26.525749
3014.000000	26.641881
3013.000000	26.758592
3012.000000	26.876916
3011.000000	26.995915
3010.000000	27.114753
3009.000000	27.234114
3008.000000	27.354347
3007.000000	27.474304
3006.000000	27.593328
3005.000000	27.712364
3004.000000	27.831789
3003.000000	27.949992
3002.000000	28.065473
3001.000000	28.178507
3000.000000	28.289714
2999.000000	28.399010
2998.000000	28.507174
2997.000000	28.616255
2996.000000	28.727054
2995.000000	28.838231
2994.000000	28.949153
2993.000000	29.061483
2992.000000	29.176383
2991.000000	29.292263
2990.000000	29.406936
2989.000000	29.520098
2988.000000	29.632033
2987.000000	29.741842
2986.000000	29.848741
2985.000000	29.953640
2984.000000	30.057814
2983.000000	30.161522
2982.000000	30.265324
2981.000000	30.371053
2980.000000	30.479805
2979.000000	30.590196
2978.000000	30.700102
2977.000000	30.808815
2976.000000	30.916379
2975.000000	31.022322
2974.000000	31.126549
2973.000000	31.230078
2972.000000	31.333653
2971.000000	31.436798
2970.000000	31.539373
2969.000000	31.642614
2968.000000	31.747440
2967.000000	31.853216
2966.000000	31.959213
2965.000000	32.065790
2964.000000	32.172916
2963.000000	32.279128
2962.000000	32.383241
2961.000000	32.485652
2960.000000	32.586835
2959.000000	32.686225
2958.000000	32.783662
2957.000000	32.880338
2956.000000	32.977056
2955.000000	33.073284
2954.000000	33.169085
2953.000000	33.266115
2952.000000	33.365240
2951.000000	33.464655
2950.000000	33.561891
2949.000000	33.656372
2948.000000	33.748865
2947.000000	33.839888
2946.000000	33.930075
2945.000000	34.020850
2944.000000	34.113325
2943.000000	34.207279
2942.000000	34.302189
2941.000000	34.398199
2940.000000	34.495258
2939.000000	34.592444
2938.000000	34.688985
2937.000000	34.784799
2936.000000	34.879349
2935.000000	34.971227
2934.000000	35.059779
2933.000000	35.145981
2932.000000	35.231097
2931.000000	35.315804
2930.000000	35.401114
2929.000000	35.488462
2928.000000	35.577958
2927.000000	35.668047
2926.000000	35.757654
2925.000000	35.847058
2924.000000	35.936061
2923.000000	36.023108
2922.000000	36.107219
2921.000000	36.189101
2920.000000	36.269485
2919.000000	36.348036
2918.000000	36.424801
2917.000000	36.501214
2916.000000	36.578672
2915.000000	36.657409
2914.000000	36.737461
2913.000000	36.819244
2912.000000	36.902441
2911.000000	36.985663
2910.000000	37.067931
2909.000000	37.149376
2908.000000	37.229831
2907.000000	37.308290
2906.000000	37.384358
2905.000000	37.459024
2904.000000	37.533299
2903.000000	37.607351
2902.000000	37.681504
2901.000000	37.757338
2900.000000	37.835609
2899.000000	37.915913
2898.000000	37.997482
2897.000000	38.079603
2896.000000	38.160711
2895.000000	38.238622
2894.000000	38.312575
2893.000000	38.383936
2892.000000	38.454228
2891.000000	38.523789
2890.000000	38.592920
2889.000000	38.662882
2888.000000	38.734702
2887.000000	38.808113
2886.000000	38.882518
2885.000000	38.957999
2884.000000	39.034546
2883.000000	39.111263
2882.000000	39.187089
2881.000000	39.261462
2880.000000	39.333844
2879.000000	39.403866
2878.000000	39.472815
2877.000000	39.543732
2876.000000	39.618613
2875.000000	39.695834
2874.000000	39.771230
2873.000000	39.841554
2872.000000	39.906820
2871.000000	39.970056
2870.000000	40.035162
2869.000000	40.104218
2868.000000	40.176030
2867.000000	40.247449
2866.000000	40.316249
2865.000000	40.382489
2864.000000	40.447701
2863.000000	40.513638
2862.000000	40.581472
2861.000000	40.650814
2860.000000	40.719565
2859.000000	40.786035
2858.000000	40.851270
2857.000000	40.917994
2856.000000	40.987271
2855.000000	41.057614
2854.000000	41.127458
2853.000000	41.196842
2852.000000	41.266400
2851.000000	41.336136
2850.000000	41.405627
2849.000000	41.474112
2848.000000	41.540194
2847.000000	41.602996
2846.000000	41.664071
2845.000000	41.726816
2844.000000	41.793779
2843.000000	41.865541
2842.000000	41.941877
2841.000000	42.021657
2840.000000	42.101170
2839.000000	42.174930
2838.000000	42.239929
2837.000000	42.298104
2836.000000	42.353712
2835.000000	42.409569
2834.000000	42.466598
2833.000000	42.525413
2832.000000	42.586674
2831.000000	42.650478
2830.000000	42.716648
2829.000000	42.785203
2828.000000	42.855833
2827.000000	42.927444
2826.000000	42.998975
2825.000000	43.070080
2824.000000	43.140466
2823.000000	43.209290
2822.000000	43.275970
2821.000000	43.340965
2820.000000	43.405134
2819.000000	43.468964
2818.000000	43.532913
2817.000000	43.597742
2816.000000	43.663809
2815.000000	43.730703
2814.000000	43.798122
2813.000000	43.866318
2812.000000	43.934931
2811.000000	44.002112
2810.000000	44.065755
2809.000000	44.125252
2808.000000	44.181410
2807.000000	44.235220
2806.000000	44.287459
2805.000000	44.339001
2804.000000	44.390705
2803.000000	44.443118
2802.000000	44.496673
2801.000000	44.551754
2800.000000	44.607973
2799.000000	44.663829
2798.000000	44.717742
2797.000000	44.769258
2796.000000	44.818908
2795.000000	44.867326
2794.000000	44.915035
2793.000000	44.962676
2792.000000	45.010783
2791.000000	45.059414
2790.000000	45.108428
2789.000000	45.157946
2788.000000	45.208325
2787.000000	45.259933
2786.000000	45.313138
2785.000000	45.368068
2784.000000	45.424059
2783.000000	45.479672
2782.000000	45.533617
2781.000000	45.585367
2780.000000	45.634726
2779.000000	45.681398
2778.000000	45.725309
2777.000000	45.766846
2776.000000	45.806383
2775.000000	45.843870
2774.000000	45.879228
2773.000000	45.912730
2772.000000	45.944418
2771.000000	45.973575
2770.000000	45.999115
2769.000000	46.020185
2768.000000	46.036175
2767.000000	46.046481
2766.000000	46.050894
2765.000000	46.050000
2764.000000	46.044839
2763.000000	46.036512
2762.000000	46.026262
2761.000000	46.015543
2760.000000	46.005591
2759.000000	45.996970
2758.000000	45.989775
2757.000000	45.983726
2756.000000	45.977814
2755.000000	45.970419
2754.000000	45.960206
2753.000000	45.946712
2752.000000	45.929799
2751.000000	45.909191
2750.000000	45.884861
2749.000000	45.857137
2748.000000	45.825948
2747.000000	45.790308
2746.000000	45.749154
2745.000000	45.702419
2744.000000	45.650683
2743.000000	45.594467
2742.000000	45.534348
2741.000000	45.471328
2740.000000	45.406786
2739.000000	45.342512
2738.000000	45.281342
2737.000000	45.227477
2736.000000	45.185372
2735.000000	45.158426
2734.000000	45.149128
2733.000000	45.159064
2732.000000	45.188404
2731.000000	45.235934
2730.000000	45.299747
2729.000000	45.378178
2728.000000	45.469046
2727.000000	45.568921
2726.000000	45.674327
2725.000000	45.782981
2724.000000	45.894017
2723.000000	46.007064
2722.000000	46.121520
2721.000000	46.236605
2720.000000	46.351246
2719.000000	46.463976
2718.000000	46.573211
2717.000000	46.677487
2716.000000	46.775263
2715.000000	46.864977
2714.000000	46.945431
2713.000000	47.016166
2712.000000	47.077479
2711.000000	47.130025
2710.000000	47.175123
2709.000000	47.214746
2708.000000	47.250715
2707.000000	47.283981
2706.000000	47.314454
2705.000000	47.341727
2704.000000	47.365416
2703.000000	47.384966
2702.000000	47.399784
2701.000000	47.409405
2700.000000	47.413752
2699.000000	47.413294
2698.000000	47.409165
2697.000000	47.403127
2696.000000	47.396894
2695.000000	47.391603
2694.000000	47.387873
2693.000000	47.385953
2692.000000	47.385560
2691.000000	47.385764
2690.000000	47.385382
2689.000000	47.383330
2688.000000	47.378476
2687.000000	47.369700
2686.000000	47.356655
2685.000000	47.340402
2684.000000	47.322965
2683.000000	47.306284
2682.000000	47.291826
2681.000000	47.280670
2680.000000	47.273319
2679.000000	47.269393
2678.000000	47.267951
2677.000000	47.268072
2676.000000	47.269029
2675.000000	47.270097
2674.000000	47.270641
2673.000000	47.270616
2672.000000	47.270825
2671.000000	47.272955
2670.000000	47.279352
2669.000000	47.292221
2668.000000	47.312664
2667.000000	47.340162
2666.000000	47.373048
2665.000000	47.409178
2664.000000	47.445971
2663.000000	47.480558
2662.000000	47.510396
2661.000000	47.533869
2660.000000	47.550366
2659.000000	47.560191
2658.000000	47.564615
2657.000000	47.565874
2656.000000	47.566627
2655.000000	47.569223
2654.000000	47.575461
2653.000000	47.586467
2652.000000	47.602446
2651.000000	47.622777
2650.000000	47.646696
2649.000000	47.673692
2648.000000	47.703456
2647.000000	47.735838
2646.000000	47.771222
2645.000000	47.810957
2644.000000	47.856664
2643.000000	47.909572
2642.000000	47.970381
2641.000000	48.039220
2640.000000	48.115497
2639.000000	48.197441
2638.000000	48.282484
2637.000000	48.367983
2636.000000	48.451448
2635.000000	48.530442
2634.000000	48.602738
2633.000000	48.666865
2632.000000	48.722466
2631.000000	48.770290
2630.000000	48.811725
2629.000000	48.848674
2628.000000	48.883271
2627.000000	48.917242
2626.000000	48.951551
2625.000000	48.986189
2624.000000	49.020442
2623.000000	49.053126
2622.000000	49.082705
2621.000000	49.107614
2620.000000	49.126411
2619.000000	49.138060
2618.000000	49.142221
2617.000000	49.139326
2616.000000	49.130602
2615.000000	49.117521
2614.000000	49.101365
2613.000000	49.083090
2612.000000	49.063124
2611.000000	49.041501
2610.000000	49.017981
2609.000000	48.992322
2608.000000	48.964578
2607.000000	48.935258
2606.000000	48.905559
2605.000000	48.877437
2604.000000	48.853374
2603.000000	48.835965
2602.000000	48.827857
2601.000000	48.831320
2600.000000	48.847818
2599.000000	48.877769
2598.000000	48.920276
2597.000000	48.973588
2596.000000	49.035044
2595.000000	49.101475
2594.000000	49.170021
2593.000000	49.238461
2592.000000	49.305556
2591.000000	49.370877
2590.000000	49.434697
2589.000000	49.497999
2588.000000	49.562248
2587.000000	49.629143
2586.000000	49.700156
2585.000000	49.776040
2584.000000	49.856568
2583.000000	49.940552
2582.000000	50.026325
2581.000000	50.112220
2580.000000	50.196890
2579.000000	50.279527
2578.000000	50.359943
2577.000000	50.438610
2576.000000	50.516424
2575.000000	50.594251
2574.000000	50.672549
2573.000000	50.751393
2572.000000	50.830516
2571.000000	50.909120
2570.000000	50.985719
2569.000000	51.058222
2568.000000	51.124550
2567.000000	51.182893
2566.000000	51.231812
2565.000000	51.270740
2564.000000	51.299995
2563.000000	51.320634
2562.000000	51.333634
2561.000000	51.339471
2560.000000	51.338473
2559.000000	51.330496
2558.000000	51.315115
2557.000000	51.292094
2556.000000	51.262232
2555.000000	51.228087
2554.000000	51.193825
2553.000000	51.164874
2552.000000	51.147194
2551.000000	51.146291
2550.000000	51.165789
2549.000000	51.207137
2548.000000	51.269355
2547.000000	51.349276
2546.000000	51.442535
2545.000000	51.544061
2544.000000	51.649267
2543.000000	51.754153
2542.000000	51.855113
2541.000000	51.949345
2540.000000	52.035294
2539.000000	52.112649
2538.000000	52.181836
2537.000000	52.243950
2536.000000	52.300859
2535.000000	52.355091
2534.000000	52.408901
2533.000000	52.463774
2532.000000	52.520598
2531.000000	52.579482
2530.000000	52.639459
2529.000000	52.698523
2528.000000	52.754353
2527.000000	52.805039
2526.000000	52.849268
2525.000000	52.886791
2524.000000	52.918744
2523.000000	52.947241
2522.000000	52.974576
2521.000000	53.002801
2520.000000	53.033871
2519.000000	53.069258
2518.000000	53.109226
2517.000000	53.152712
2516.000000	53.197839
2515.000000	53.242191
2514.000000	53.282985
2513.000000	53.317876
2512.000000	53.346063
2511.000000	53.368251
2510.000000	53.385921
2509.000000	53.401099
2508.000000	53.416558
2507.000000	53.435311
2506.000000	53.459351
2505.000000	53.489143
2504.000000	53.523994
2503.000000	53.562353
2502.000000	53.601702
2501.000000	53.639066
2500.000000	53.671894
2499.000000	53.698420
2498.000000	53.717578
2497.000000	53.729674
2496.000000	53.736994
2495.000000	53.743073
2494.000000	53.751062
2493.000000	53.763058
2492.000000	53.780602
2491.000000	53.804592
2490.000000	53.834416
2489.000000	53.867734
2488.000000	53.901398
2487.000000	53.932219
2486.000000	53.957253
2485.000000	53.974485
2484.000000	53.983817
2483.000000	53.986960
2482.000000	53.986503
2481.000000	53.985440
2480.000000	53.987165
2479.000000	53.994740
2478.000000	54.009609
2477.000000	54.031358
2476.000000	54.058428
2475.000000	54.088503
2474.000000	54.118288
2473.000000	54.144151
2472.000000	54.163439
2471.000000	54.175127
2470.000000	54.179487
2469.000000	54.178122
2468.000000	54.174094
2467.000000	54.171111
2466.000000	54.172149
2465.000000	54.179074
2464.000000	54.193087
2463.000000	54.214392
2462.000000	54.241267
2461.000000	54.270198
2460.000000	54.297331
2459.000000	54.319502
2458.000000	54.334496
2457.000000	54.341568
2456.000000	54.342063
2455.000000	54.338801
2454.000000	54.334871
2453.000000	54.333193
2452.000000	54.336670
2451.000000	54.347352
2450.000000	54.365301
2449.000000	54.388805
2448.000000	54.415641
2447.000000	54.443404
2446.000000	54.469007
2445.000000	54.489361
2444.000000	54.502895
2443.000000	54.509903
2442.000000	54.511556
2441.000000	54.509700
2440.000000	54.507361
2439.000000	54.508194
2438.000000	54.514840
2437.000000	54.528295
2436.000000	54.548428
2435.000000	54.574027
2434.000000	54.602250
2433.000000	54.629356
2432.000000	54.652548
2431.000000	54.670521
2430.000000	54.682588
2429.000000	54.688627
2428.000000	54.690198
2427.000000	54.690483
2426.000000	54.692687
2425.000000	54.698949
2424.000000	54.710684
2423.000000	54.728564
2422.000000	54.751769
2421.000000	54.778023
2420.000000	54.804845
2419.000000	54.830124
2418.000000	54.851708
2417.000000	54.867748
2416.000000	54.878015
2415.000000	54.884159
2414.000000	54.888437
2413.000000	54.892949
2412.000000	54.899997
2411.000000	54.911895
2410.000000	54.929670
2409.000000	54.952529
2408.000000	54.978704
2407.000000	55.006253
2406.000000	55.032934
2405.000000	55.056502
2404.000000	55.075703
2403.000000	55.090621
2402.000000	55.102020
2401.000000	55.111117
2400.000000	55.119915
2399.000000	55.130805
2398.000000	55.145461
2397.000000	55.164571
2396.000000	55.188363
2395.000000	55.216370
2394.000000	55.246741
2393.000000	55.276780
2392.000000	55.304562
2391.000000	55.329455
2390.000000	55.351461
2389.000000	55.371089
2388.000000	55.390091
2387.000000	55.411138
2386.000000	55.436512
2385.000000	55.467754
2384.000000	55.505982
2383.000000	55.551729
2382.000000	55.603874
2381.000000	55.659786
2380.000000	55.716710
2379.000000	55.771966
2378.000000	55.822691
2377.000000	55.866713
2376.000000	55.904012
2375.000000	55.936554
2374.000000	55.966751
2373.000000	55.996819
2372.000000	56.029588
2371.000000	56.067674
2370.000000	56.111315
2369.000000	56.158914
2368.000000	56.209350
2367.000000	56.261528
2366.000000	56.312356
2365.000000	56.358771
2364.000000	56.401499
2363.000000	56.440851
2362.000000	56.476741
2361.000000	56.510603
2360.000000	56.543378
2359.000000	56.578170
2358.000000	56.614810
2357.000000	56.651225
2356.000000	56.688560
2355.000000	56.725884
2354.000000	56.764396
2353.000000	56.805275
2352.000000	56.855963
2351.000000	56.918632
2350.000000	56.980999
2349.000000	57.031380
2348.000000	57.066916
2347.000000	57.100094
2346.000000	57.141506
2345.000000	57.188389
2344.000000	57.234936
2343.000000	57.274930
2342.000000	57.314528
2341.000000	57.355721
2340.000000	57.398187
2339.000000	57.440588
2338.000000	57.481070
2337.000000	57.519322
2336.000000	57.555389
2335.000000	57.592747
2334.000000	57.632184
2333.000000	57.674013
2332.000000	57.716082
2331.000000	57.761449
2330.000000	57.806388
2329.000000	57.854906
2328.000000	57.903194
2327.000000	57.954504
2326.000000	58.005320
2325.000000	58.053546
2324.000000	58.098585
2323.000000	58.139699
2322.000000	58.178323
2321.000000	58.213296
2320.000000	58.246425
2319.000000	58.281203
2318.000000	58.319303
2317.000000	58.362427
2316.000000	58.408237
2315.000000	58.458021
2314.000000	58.507525
2313.000000	58.556052
2312.000000	58.599327
2311.000000	58.639574
2310.000000	58.675038
2309.000000	58.707972
2308.000000	58.738291
2307.000000	58.770107
2306.000000	58.803496
2305.000000	58.839096
2304.000000	58.875525
2303.000000	58.913871
2302.000000	58.952403
2301.000000	58.990499
2300.000000	59.026593
2299.000000	59.062367
2298.000000	59.096653
2297.000000	59.129183
2296.000000	59.159117
2295.000000	59.188969
2294.000000	59.219499
2293.000000	59.251018
2292.000000	59.283158
2291.000000	59.316558
2290.000000	59.350606
2289.000000	59.383725
2288.000000	59.415378
2287.000000	59.446234
2286.000000	59.476667
2285.000000	59.505918
2284.000000	59.534483
2283.000000	59.563770
2282.000000	59.594614
2281.000000	59.626360
2280.000000	59.659090
2279.000000	59.693531
2278.000000	59.729307
2277.000000	59.764540
2276.000000	59.797982
2275.000000	59.829800
2274.000000	59.859640
2273.000000	59.886756
2272.000000	59.911724
2271.000000	59.936695
2270.000000	59.962874
2269.000000	59.990072
2268.000000	60.018632
2267.000000	60.049733
2266.000000	60.083092
2265.000000	60.116691
2264.000000	60.148793
2263.000000	60.178774
2262.000000	60.205447
2261.000000	60.227069
2260.000000	60.243660
2259.000000	60.256884
2258.000000	60.268064
2257.000000	60.277572
2256.000000	60.286867
2255.000000	60.298054
2254.000000	60.311176
2253.000000	60.324025
2252.000000	60.334559
2251.000000	60.341943
2250.000000	60.344396
2249.000000	60.339400
2248.000000	60.325203
2247.000000	60.302271
2246.000000	60.270859
2245.000000	60.231034
2244.000000	60.184576
2243.000000	60.134528
2242.000000	60.082441
2241.000000	60.028244
2240.000000	59.972580
2239.000000	59.917059
2238.000000	59.862017
2237.000000	59.806601
2236.000000	59.751453
2235.000000	59.698979
2234.000000	59.650874
2233.000000	59.607521
2232.000000	59.570218
2231.000000	59.541342
2230.000000	59.521901
2229.000000	59.511041
2228.000000	59.508142
2227.000000	59.513240
2226.000000	59.524627
2225.000000	59.538605
2224.000000	59.552111
2223.000000	59.563730
2222.000000	59.571793
2221.000000	59.573956
2220.000000	59.569570
2219.000000	59.560381
2218.000000	59.548408
2217.000000	59.535025
2216.000000	59.522542
2215.000000	59.514180
2214.000000	59.511651
2213.000000	59.514385
2212.000000	59.521408
2211.000000	59.531906
2210.000000	59.543674
2209.000000	59.553364
2208.000000	59.558986
2207.000000	59.560467
2206.000000	59.557700
2205.000000	59.550482
2204.000000	59.540658
2203.000000	59.531888
2202.000000	59.526573
2201.000000	59.524988
2200.000000	59.527466
2199.000000	59.534864
2198.000000	59.546218
2197.000000	59.558348
2196.000000	59.568544
2195.000000	59.575662
2194.000000	59.578243
2193.000000	59.574160
2192.000000	59.563112
2191.000000	59.547335
2190.000000	59.529234
2189.000000	59.510213
2188.000000	59.492174
2187.000000	59.477671
2186.000000	59.467779
2185.000000	59.461632
2184.000000	59.458509
2183.000000	59.458394
2182.000000	59.460124
2181.000000	59.461386
2180.000000	59.461210
2179.000000	59.460624
2178.000000	59.460543
2177.000000	59.461199
2176.000000	59.464055
2175.000000	59.471783
2174.000000	59.485653
2173.000000	59.504776
2172.000000	59.528306
2171.000000	59.556222
2170.000000	59.587428
2169.000000	59.619528
2168.000000	59.651096
2167.000000	59.682239
2166.000000	59.712543
2165.000000	59.740811
2164.000000	59.767295
2163.000000	59.793900
2162.000000	59.821718
2161.000000	59.850513
2160.000000	59.880842
2159.000000	59.914110
2158.000000	59.949967
2157.000000	59.986132
2156.000000	60.021313
2155.000000	60.055972
2154.000000	60.089875
2153.000000	60.121542
2152.000000	60.150765
2151.000000	60.179039
2150.000000	60.206990
2149.000000	60.233873
2148.000000	60.260082
2147.000000	60.287388
2146.000000	60.316282
2145.000000	60.345472
2144.000000	60.374602
2143.000000	60.404839
2142.000000	60.436101
2141.000000	60.466633
2140.000000	60.496053
2139.000000	60.526097
2138.000000	60.557730
2137.000000	60.590299
2136.000000	60.624075
2135.000000	60.660734
2134.000000	60.700383
2133.000000	60.740805
2132.000000	60.780306
2131.000000	60.818729
2130.000000	60.855119
2129.000000	60.887510
2128.000000	60.915753
2127.000000	60.941890
2126.000000	60.967153
2125.000000	60.991355
2124.000000	61.015628
2123.000000	61.042693
2122.000000	61.073690
2121.000000	61.107359
2120.000000	61.142903
2119.000000	61.180467
2118.000000	61.218325
2117.000000	61.252937
2116.000000	61.282864
2115.000000	61.309765
2114.000000	61.335082
2113.000000	61.358787
2112.000000	61.381957
2111.000000	61.407211
2110.000000	61.435652
2109.000000	61.466353
2108.000000	61.499208
2107.000000	61.535016
2106.000000	61.572014
2105.000000	61.605785
2104.000000	61.633420
2103.000000	61.654570
2102.000000	61.668399
2101.000000	61.673055
2100.000000	61.669415
2099.000000	61.661503
2098.000000	61.652182
2097.000000	61.642116
2096.000000	61.632790
2095.000000	61.627091
2094.000000	61.625544
2093.000000	61.625188
2092.000000	61.623387
2091.000000	61.619780
2090.000000	61.613955
2089.000000	61.604678
2088.000000	61.592552
2087.000000	61.580601
2086.000000	61.571205
2085.000000	61.565382
2084.000000	61.565657
2083.000000	61.576007
2082.000000	61.598082
2081.000000	61.630196
2080.000000	61.670567
2079.000000	61.718387
2078.000000	61.770454
2077.000000	61.821339
2076.000000	61.867381
2075.000000	61.908546
2074.000000	61.945458
2073.000000	61.977774
2072.000000	62.008004
2071.000000	62.041747
2070.000000	62.083016
2069.000000	62.131845
2068.000000	62.187291
2067.000000	62.249280
2066.000000	62.316656
2065.000000	62.387041
2064.000000	62.459321
2063.000000	62.533007
2062.000000	62.604728
2061.000000	62.669223
2060.000000	62.724947
2059.000000	62.775540
2058.000000	62.824930
2057.000000	62.874878
2056.000000	62.927662
2055.000000	62.986865
2054.000000	63.053662
2053.000000	63.125404
2052.000000	63.199712
2051.000000	63.275526
2050.000000	63.349430
2049.000000	63.415924
2048.000000	63.473091
2047.000000	63.523249
2046.000000	63.568007
2045.000000	63.607037
2044.000000	63.642335
2043.000000	63.679146
2042.000000	63.722051
2041.000000	63.773607
2040.000000	63.836163
2039.000000	63.910580
2038.000000	63.992646
2037.000000	64.074859
2036.000000	64.152897
2035.000000	64.226593
2034.000000	64.295161
2033.000000	64.356813
2032.000000	64.413010
2031.000000	64.468778
2030.000000	64.527032
2029.000000	64.587652
2028.000000	64.652401
2027.000000	64.724625
2026.000000	64.804559
2025.000000	64.887462
2024.000000	64.970587
2023.000000	65.054046
2022.000000	65.135395
2021.000000	65.208607
2020.000000	65.269824
2019.000000	65.319681
2018.000000	65.360832
2017.000000	65.398836
2016.000000	65.443539
2015.000000	65.503550
2014.000000	65.579184
2013.000000	65.664355
2012.000000	65.754158
2011.000000	65.846796
2010.000000	65.939048
2009.000000	66.025965
2008.000000	66.106058
2007.000000	66.181526
2006.000000	66.254071
2005.000000	66.322823
2004.000000	66.390407
2003.000000	66.461769
2002.000000	66.538828
2001.000000	66.620737
2000.000000	66.706105
1999.000000	66.797480
1998.000000	66.895138
1997.000000	66.993634
1996.000000	67.085756
1995.000000	67.166674
1994.000000	67.232038
1993.000000	67.280402
1992.000000	67.320644
1991.000000	67.366227
1990.000000	67.420835
1989.000000	67.480551
1988.000000	67.545734
1987.000000	67.619981
1986.000000	67.701322
1985.000000	67.782607
1984.000000	67.860296
1983.000000	67.933934
1982.000000	67.999727
1981.000000	68.053271
1980.000000	68.095153
1979.000000	68.132626
1978.000000	68.168763
1977.000000	68.202442
1976.000000	68.237179
1975.000000	68.281315
1974.000000	68.337310
1973.000000	68.400435
1972.000000	68.468128
1971.000000	68.540277
1970.000000	68.609072
1969.000000	68.659613
1968.000000	68.685691
1967.000000	68.697804
1966.000000	68.709758
1965.000000	68.726375
1964.000000	68.749871
1963.000000	68.783303
1962.000000	68.824742
1961.000000	68.869427
1960.000000	68.919648
1959.000000	68.981054
1958.000000	69.048656
1957.000000	69.109015
1956.000000	69.155764
1955.000000	69.192983
1954.000000	69.222746
1953.000000	69.241648
1952.000000	69.254098
1951.000000	69.269396
1950.000000	69.292409
1949.000000	69.323637
1948.000000	69.364782
1947.000000	69.416159
1946.000000	69.469490
1945.000000	69.513213
1944.000000	69.543223
1943.000000	69.564282
1942.000000	69.583812
1941.000000	69.601955
1940.000000	69.617000
1939.000000	69.632853
1938.000000	69.648874
1937.000000	69.659113
1936.000000	69.667308
1935.000000	69.687350
1934.000000	69.724432
1933.000000	69.770752
1932.000000	69.823248
1931.000000	69.880795
1930.000000	69.938074
1929.000000	69.985450
1928.000000	70.019488
1927.000000	70.046771
1926.000000	70.063037
1925.000000	70.061754
1924.000000	70.041193
1923.000000	70.011439
1922.000000	69.985988
1921.000000	69.972999
1920.000000	69.987027
1919.000000	70.039720
1918.000000	70.114959
1917.000000	70.185597
1916.000000	70.237008
1915.000000	70.277200
1914.000000	70.315263
1913.000000	70.342501
1912.000000	70.348467
1911.000000	70.335366
1910.000000	70.315465
1909.000000	70.300016
1908.000000	70.300428
1907.000000	70.330906
1906.000000	70.386798
1905.000000	70.452709
1904.000000	70.514311
1903.000000	70.565293
1902.000000	70.604548
1901.000000	70.628837
1900.000000	70.636994
1899.000000	70.636490
1898.000000	70.628811
1897.000000	70.611576
1896.000000	70.589909
1895.000000	70.580218
1894.000000	70.593305
1893.000000	70.623270
1892.000000	70.661507
1891.000000	70.701875
1890.000000	70.734393
1889.000000	70.755403
1888.000000	70.767249
1887.000000	70.770876
1886.000000	70.764641
1885.000000	70.744057
1884.000000	70.712211
1883.000000	70.682935
1882.000000	70.670726
1881.000000	70.677964
1880.000000	70.700246
1879.000000	70.739400
1878.000000	70.791205
1877.000000	70.841117
1876.000000	70.883086
1875.000000	70.918348
1874.000000	70.936849
1873.000000	70.923915
1872.000000	70.888963
1871.000000	70.861446
1870.000000	70.841633
1869.000000	70.804834
1868.000000	70.762509
1867.000000	70.747850
1866.000000	70.772451
1865.000000	70.825617
1864.000000	70.887297
1863.000000	70.939454
1862.000000	70.971339
1861.000000	70.978448
1860.000000	70.961625
1859.000000	70.928863
1858.000000	70.889457
1857.000000	70.849034
1856.000000	70.814574
1855.000000	70.794812
1854.000000	70.795203
1853.000000	70.814193
1852.000000	70.839395
1851.000000	70.874604
1850.000000	70.915129
1849.000000	70.928576
1848.000000	70.884682
1847.000000	70.801454
1846.000000	70.731539
1845.000000	70.693447
1844.000000	70.667038
1843.000000	70.641863
1842.000000	70.617946
1841.000000	70.607208
1840.000000	70.625528
1839.000000	70.663852
1838.000000	70.688080
1837.000000	70.688855
1836.000000	70.682803
1835.000000	70.675487
1834.000000	70.652121
1833.000000	70.605307
1832.000000	70.549862
1831.000000	70.492176
1830.000000	70.413296
1829.000000	70.318655
1828.000000	70.228436
1827.000000	70.170896
1826.000000	70.161299
1825.000000	70.177527
1824.000000	70.196288
1823.000000	70.209691
1822.000000	70.212972
1821.000000	70.194672
1820.000000	70.145742
1819.000000	70.072391
1818.000000	69.984285
1817.000000	69.898834
1816.000000	69.832838
1815.000000	69.789759
1814.000000	69.760814
1813.000000	69.729508
1812.000000	69.695576
1811.000000	69.665836
1810.000000	69.640035
1809.000000	69.614668
1808.000000	69.588641
1807.000000	69.560390
1806.000000	69.518857
1805.000000	69.452000
1804.000000	69.361892
1803.000000	69.262919
1802.000000	69.176995
1801.000000	69.117448
1800.000000	69.103679
1799.000000	69.133043
1798.000000	69.173136
1797.000000	69.186090
1796.000000	69.158741
1795.000000	69.112194
1794.000000	69.071372
1793.000000	69.010482
1792.000000	68.916400
1791.000000	68.832724
1790.000000	68.779727
1789.000000	68.737502
1788.000000	68.694417
1787.000000	68.656990
1786.000000	68.634414
1785.000000	68.632189
1784.000000	68.640673
1783.000000	68.635847
1782.000000	68.607074
1781.000000	68.536821
1780.000000	68.439806
1779.000000	68.344649
1778.000000	68.259872
1777.000000	68.170178
1776.000000	68.062707
1775.000000	67.966440
1774.000000	67.914321
1773.000000	67.853839
1772.000000	67.734489
1771.000000	67.600782
1770.000000	67.486710
1769.000000	67.413028
1768.000000	67.395110
1767.000000	67.400582
1766.000000	67.367352
1765.000000	67.269617
1764.000000	67.149891
1763.000000	67.050933
1762.000000	66.972995
1761.000000	66.895191
1760.000000	66.810715
1759.000000	66.725753
1758.000000	66.669652
1757.000000	66.646659
1756.000000	66.632284
1755.000000	66.599424
1754.000000	66.535825
1753.000000	66.457728
1752.000000	66.373538
1751.000000	66.270455
1750.000000	66.132602
1749.000000	65.975943
1748.000000	65.839622
1747.000000	65.755197
1746.000000	65.705273
1745.000000	65.638128
1744.000000	65.542194
1743.000000	65.440021
1742.000000	65.344976
1741.000000	65.254393
1740.000000	65.164191
1739.000000	65.050362
1738.000000	64.878191
1737.000000	64.654191
1736.000000	64.481452
1735.000000	64.390526
1734.000000	64.273145
1733.000000	64.105000
1732.000000	63.901468
1731.000000	63.704300
1730.000000	63.556390
1729.000000	63.442175
1728.000000	63.322832
1727.000000	63.190033
1726.000000	63.037921
1725.000000	62.837326
1724.000000	62.596955
1723.000000	62.350231
1722.000000	62.109844
1721.000000	61.884087
1720.000000	61.718649
1719.000000	61.606046
1718.000000	61.410942
1717.000000	61.098269
1716.000000	60.768031
1715.000000	60.495209
1714.000000	60.289692
1713.000000	60.106220
1712.000000	59.899820
1711.000000	59.667395
1710.000000	59.423276
1709.000000	59.163485
1708.000000	58.886380
1707.000000	58.613018
1706.000000	58.337573
1705.000000	58.044045
1704.000000	57.714553
1703.000000	57.365467
1702.000000	57.119695
1701.000000	57.003432
1700.000000	56.853652
1699.000000	56.613837
1698.000000	56.287089
1697.000000	55.913617
1696.000000	55.567782
1695.000000	55.278018
1694.000000	55.004055
1693.000000	54.727761
1692.000000	54.479615
1691.000000	54.257096
1690.000000	54.021746
1689.000000	53.764032
1688.000000	53.504039
1687.000000	53.276130
1686.000000	53.080969
1685.000000	52.760118
1684.000000	52.255612
1683.000000	51.833507
1682.000000	51.532464
1681.000000	51.262596
1680.000000	50.995708
1679.000000	50.727898
1678.000000	50.461425
1677.000000	50.210157
1676.000000	49.982278
1675.000000	49.766648
1674.000000	49.547583
1673.000000	49.285224
1672.000000	48.992885
1671.000000	48.694060
1670.000000	48.376734
1669.000000	48.058536
1668.000000	47.781709
1667.000000	47.548395
1666.000000	47.332519
1665.000000	47.115517
1664.000000	46.890295
1663.000000	46.644383
1662.000000	46.397583
1661.000000	46.155138
1660.000000	45.909156
1659.000000	45.670789
1658.000000	45.432502
1657.000000	45.165744
1656.000000	44.889464
1655.000000	44.699450
1654.000000	44.497173
1653.000000	44.206713
1652.000000	43.993675
1651.000000	43.767351
1650.000000	43.509019
1649.000000	43.271707
1648.000000	43.016861
1647.000000	42.704209
1646.000000	42.428556
1645.000000	42.209633
1644.000000	41.986242
1643.000000	41.753503
1642.000000	41.539954
1641.000000	41.339752
1640.000000	41.133075
1639.000000	40.927872
1638.000000	40.736443
1637.000000	40.526333
1636.000000	40.258350
1635.000000	40.032516
1634.000000	39.873673
1633.000000	39.707831
1632.000000	39.517684
1631.000000	39.329002
1630.000000	39.151210
1629.000000	38.966288
1628.000000	38.769045
1627.000000	38.585356
1626.000000	38.435107
1625.000000	38.305280
1624.000000	38.176320
1623.000000	38.053882
1622.000000	37.956701
1621.000000	37.860892
1620.000000	37.753939
1619.000000	37.666393
1618.000000	37.602505
1617.000000	37.505183
1616.000000	37.360490
1615.000000	37.217313
1614.000000	37.105366
1613.000000	37.029648
1612.000000	36.983354
1611.000000	36.955152
1610.000000	36.936714
1609.000000	36.913953
1608.000000	36.880104
1607.000000	36.845445
1606.000000	36.822998
1605.000000	36.799801
1604.000000	36.762264
1603.000000	36.723018
1602.000000	36.698673
1601.000000	36.686779
1600.000000	36.682755
1599.000000	36.697209
1598.000000	36.734680
1597.000000	36.776978
1596.000000	36.807291
1595.000000	36.831158
1594.000000	36.858046
1593.000000	36.878585
1592.000000	36.882469
1591.000000	36.879045
1590.000000	36.881666
1589.000000	36.887203
1588.000000	36.891162
1587.000000	36.904268
1586.000000	36.936366
1585.000000	36.979164
1584.000000	37.014123
1583.000000	37.049496
1582.000000	37.097516
1581.000000	37.141436
1580.000000	37.158347
1579.000000	37.166571
1578.000000	37.193240
1577.000000	37.207811
1576.000000	37.174344
1575.000000	37.120311
1574.000000	37.059183
1573.000000	36.993126
1572.000000	36.952951
1571.000000	36.959826
1570.000000	36.987107
1569.000000	37.012791
1568.000000	37.023631
1567.000000	37.025647
1566.000000	37.039867
1565.000000	37.065896
1564.000000	37.070895
1563.000000	37.040313
1562.000000	37.002616
1561.000000	37.065185
1560.000000	37.196017
1559.000000	37.223207
1558.000000	37.375143
1557.000000	37.559405
1556.000000	37.667781
1555.000000	37.787428
1554.000000	37.965374
1553.000000	38.136969
1552.000000	38.256488
1551.000000	38.363680
1550.000000	38.502738
1549.000000	38.669367
1548.000000	38.824959
1547.000000	38.976610
1546.000000	39.163947
1545.000000	39.380732
1544.000000	39.592534
1543.000000	39.820161
1542.000000	40.101540
1541.000000	40.394096
1540.000000	40.669427
1539.000000	40.992541
1538.000000	41.256991
1537.000000	41.389586
1536.000000	41.477008
1535.000000	41.638772
1534.000000	41.909474
1533.000000	42.241669
1532.000000	42.578050
1531.000000	42.887146
1530.000000	43.184966
1529.000000	43.495407
1528.000000	43.821880
1527.000000	44.172492
1526.000000	44.552772
1525.000000	44.922286
1524.000000	45.250530
1523.000000	45.583964
1522.000000	45.977757
1521.000000	46.430308
1520.000000	46.851433
1519.000000	47.195905
1518.000000	47.537719
1517.000000	47.932195
1516.000000	48.366795
1515.000000	48.794017
1514.000000	49.206225
1513.000000	49.628496
1512.000000	50.054831
1511.000000	50.437754
1510.000000	50.773552
1509.000000	51.109503
1508.000000	51.444194
1507.000000	51.799034
1506.000000	52.400577
1505.000000	53.039946
1504.000000	53.464828
1503.000000	53.762494
1502.000000	54.071623
1501.000000	54.427114
1500.000000	54.800392
1499.000000	55.179431
1498.000000	55.570707
1497.000000	55.972831
1496.000000	56.375365
1495.000000	56.732587
1494.000000	57.009506
1493.000000	57.231660
1492.000000	57.469926
1491.000000	57.752863
1490.000000	58.045151
1489.000000	58.329298
1488.000000	58.617351
1487.000000	58.917359
1486.000000	59.218598
1485.000000	59.487773
1484.000000	59.693194
1483.000000	59.860752
1482.000000	60.014478
1481.000000	60.142824
1480.000000	60.228120
1479.000000	60.290567
1478.000000	60.356487
1477.000000	60.411421
1476.000000	60.433763
1475.000000	60.431066
1474.000000	60.408582
1473.000000	60.323799
1472.000000	60.211681
1471.000000	60.126141
1470.000000	60.012593
1469.000000	59.803180
1468.000000	59.497852
1467.000000	59.121153
1466.000000	58.661129
1465.000000	58.086587
1464.000000	57.465449
1463.000000	56.903172
1462.000000	56.394462
1461.000000	55.888673
1460.000000	55.376357
1459.000000	54.858615
1458.000000	54.214697
1457.000000	53.385994
1456.000000	52.573944
1455.000000	51.853443
1454.000000	51.112108
1453.000000	50.244914
1452.000000	49.243585
1451.000000	48.158968
1450.000000	46.975235
1449.000000	45.602746
1448.000000	44.040268
1447.000000	42.413135
1446.000000	40.788850
1445.000000	39.095810
1444.000000	37.285903
1443.000000	35.377698
1442.000000	33.370506
1441.000000	31.277033
1440.000000	29.183477
1439.000000	27.114848
1438.000000	24.867128
1437.000000	22.247849
1436.000000	19.587877
1435.000000	17.420176
1434.000000	15.738520
1433.000000	14.265721
1432.000000	12.927398
1431.000000	11.811162
1430.000000	10.936944
1429.000000	10.275606
1428.000000	9.896529
1427.000000	9.861369
1426.000000	10.109089
1425.000000	10.577415
1424.000000	11.296442
1423.000000	12.240489
1422.000000	13.275821
1421.000000	14.389134
1420.000000	15.761833
1419.000000	17.453725
1418.000000	19.168843
1417.000000	20.667517
1416.000000	22.051679
1415.000000	23.472589
1414.000000	24.922944
1413.000000	26.352602
1412.000000	27.791826
1411.000000	29.272439
1410.000000	30.736991
1409.000000	32.127863
1408.000000	33.477715
1407.000000	34.837981
1406.000000	36.217073
1405.000000	37.604547
1404.000000	38.981539
1403.000000	40.282318
1402.000000	41.457981
1401.000000	42.574434
1400.000000	43.741742
1399.000000	44.954523
1398.000000	46.096502
1397.000000	47.133632
1396.000000	48.170297
1395.000000	49.292851
1394.000000	50.458435
1393.000000	51.563535
1392.000000	52.566719
1391.000000	53.487624
1390.000000	54.360125
1389.000000	55.224738
1388.000000	56.106425
1387.000000	56.971329
1386.000000	57.750513
1385.000000	58.415529
1384.000000	58.991455
1383.000000	59.496083
1382.000000	59.908363
1381.000000	60.203771
1380.000000	60.367385
1379.000000	60.376120
1378.000000	60.200996
1377.000000	59.815287
1376.000000	59.164166
1375.000000	58.170734
1374.000000	56.844827
1373.000000	55.325628
1372.000000	53.757799
1371.000000	52.220529
1370.000000	50.807175
1369.000000	49.679771
1368.000000	49.018035
1367.000000	48.903787
1366.000000	49.297754
1365.000000	50.123271
1364.000000	51.311102
1363.000000	52.773478
1362.000000	54.376915
1361.000000	55.968472
1360.000000	57.430189
1359.000000	58.696647
1358.000000	59.735258
1357.000000	60.524018
1356.000000	61.037889
1355.000000	61.252180
1354.000000	61.159374
1353.000000	60.764760
1352.000000	60.072000
1351.000000	59.070708
1350.000000	57.760487
1349.000000	56.163954
1348.000000	54.311654
1347.000000	52.229633
1346.000000	49.942195
1345.000000	47.483547
1344.000000	44.907323
1343.000000	42.264174
1342.000000	39.570616
1341.000000	36.826138
1340.000000	34.098103
1339.000000	31.569547
1338.000000	29.437363
1337.000000	27.777423
1336.000000	26.546934
1335.000000	25.651527
1334.000000	24.965048
1333.000000	24.341320
1332.000000	23.648029
1331.000000	22.789667
1330.000000	21.701724
1329.000000	20.345686
1328.000000	18.731620
1327.000000	16.932850
1326.000000	15.060820
1325.000000	13.231297
1324.000000	11.559875
1323.000000	10.150379
1322.000000	9.050909
1321.000000	8.235839
1320.000000	7.646752
1319.000000	7.223453
1318.000000	6.900821
1317.000000	6.617912
1316.000000	6.349115
1315.000000	6.108319
1314.000000	5.906683
1313.000000	5.735966
1312.000000	5.594021
1311.000000	5.491782
1310.000000	5.431710
1309.000000	5.406494
1308.000000	5.428620
1307.000000	5.532047
1306.000000	5.737006
1305.000000	6.042495
1304.000000	6.451216
1303.000000	6.971465
1302.000000	7.591829
1301.000000	8.279321
1300.000000	9.011611
1299.000000	9.782637
1298.000000	10.579242
1297.000000	11.380515
1296.000000	12.178510
1295.000000	12.978253
1294.000000	13.774787
1293.000000	14.551854
1292.000000	15.300657
1291.000000	16.019987
1290.000000	16.695440
1289.000000	17.298596
1288.000000	17.805820
1287.000000	18.200257
1286.000000	18.465588
1285.000000	18.597333
1284.000000	18.628479
1283.000000	18.630916
1282.000000	18.685348
1281.000000	18.855365
1280.000000	19.180151
1279.000000	19.665816
1278.000000	20.277478
1277.000000	20.960433
1276.000000	21.672517
1275.000000	22.391646
1274.000000	23.102290
1273.000000	23.791680
1272.000000	24.458664
1271.000000	25.108791
1270.000000	25.740771
1269.000000	26.347883
1268.000000	26.930038
1267.000000	27.491485
1266.000000	28.030849
1265.000000	28.543809
1264.000000	29.033025
1263.000000	29.507173
1262.000000	29.970493
1261.000000	30.423820
1260.000000	30.872244
1259.000000	31.321898
1258.000000	31.771962
1257.000000	32.217092
1256.000000	32.655124
1255.000000	33.085040
1254.000000	33.501188
1253.000000	33.897577
1252.000000	34.274855
1251.000000	34.637959
1250.000000	34.990084
1249.000000	35.333846
1248.000000	35.675535
1247.000000	36.021893
1246.000000	36.374557
1245.000000	36.731895
1244.000000	37.092891
1243.000000	37.454909
1242.000000	37.810369
1241.000000	38.150541
1240.000000	38.471041
1239.000000	38.770815
1238.000000	39.050010
1237.000000	39.312015
1236.000000	39.565092
1235.000000	39.818875
1234.000000	40.079658
1233.000000	40.350822
1232.000000	40.634362
1231.000000	40.929031
1230.000000	41.229074
1229.000000	41.526957
1228.000000	41.816097
1227.000000	42.090518
1226.000000	42.345485
1225.000000	42.580999
1224.000000	42.802557
1223.000000	43.018191
1222.000000	43.236181
1221.000000	43.464780
1220.000000	43.710654
1219.000000	43.975886
1218.000000	44.257620
1217.000000	44.550180
1216.000000	44.845474
1215.000000	45.132632
1214.000000	45.401140
1213.000000	45.645278
1212.000000	45.864696
1211.000000	46.062317
1210.000000	46.245180
1209.000000	46.424925
1208.000000	46.614096
1207.000000	46.821574
1206.000000	47.051809
1205.000000	47.305509
1204.000000	47.577815
1203.000000	47.857363
1202.000000	48.130448
1201.000000	48.385697
1200.000000	48.614412
1199.000000	48.810295
1198.000000	48.972459
1197.000000	49.107407
1196.000000	49.223734
1195.000000	49.327822
1194.000000	49.423548
1193.000000	49.510642
1192.000000	49.581847
1191.000000	49.622603
1190.000000	49.619710
1189.000000	49.569453
1188.000000	49.479057
1187.000000	49.366772
1186.000000	49.260315
1185.000000	49.189561
1184.000000	49.174726
1183.000000	49.221621
1182.000000	49.326076
1181.000000	49.483383
1180.000000	49.691153
1179.000000	49.946210
1178.000000	50.242904
1177.000000	50.568861
1176.000000	50.903607
1175.000000	51.222728
1174.000000	51.507520
1173.000000	51.749553
1172.000000	51.947654
1171.000000	52.106123
1170.000000	52.237663
1169.000000	52.361928
1168.000000	52.496680
1167.000000	52.653802
1166.000000	52.841901
1165.000000	53.065769
1164.000000	53.320201
1163.000000	53.589527
1162.000000	53.855849
1161.000000	54.104557
1160.000000	54.322390
1159.000000	54.499442
1158.000000	54.636676
1157.000000	54.746953
1156.000000	54.846529
1155.000000	54.950319
1154.000000	55.074423
1153.000000	55.232947
1152.000000	55.428873
1151.000000	55.652676
1150.000000	55.891180
1149.000000	56.131641
1148.000000	56.357285
1147.000000	56.548752
1146.000000	56.695256
1145.000000	56.798654
1144.000000	56.867174
1143.000000	56.912009
1142.000000	56.951465
1141.000000	57.008231
1140.000000	57.097837
1139.000000	57.224430
1138.000000	57.386435
1137.000000	57.577781
1136.000000	57.782140
1135.000000	57.975458
1134.000000	58.138647
1133.000000	58.263077
1132.000000	58.344818
1131.000000	58.384553
1130.000000	58.394913
1129.000000	58.399467
1128.000000	58.420327
1127.000000	58.472321
1126.000000	58.566841
1125.000000	58.710411
1124.000000	58.895713
1123.000000	59.101995
1122.000000	59.307130
1121.000000	59.493553
1120.000000	59.644395
1119.000000	59.746185
1118.000000	59.800002
1117.000000	59.822023
1116.000000	59.831977
1115.000000	59.847604
1114.000000	59.889009
1113.000000	59.975357
1112.000000	60.113031
1111.000000	60.292987
1110.000000	60.500698
1109.000000	60.720073
1108.000000	60.928708
1107.000000	61.101324
1106.000000	61.223979
1105.000000	61.298131
1104.000000	61.331624
1103.000000	61.336390
1102.000000	61.334061
1101.000000	61.351152
1100.000000	61.406283
1099.000000	61.503581
1098.000000	61.642773
1097.000000	61.819542
1096.000000	62.016665
1095.000000	62.207016
1094.000000	62.369182
1093.000000	62.493310
1092.000000	62.573367
1091.000000	62.608396
1090.000000	62.612867
1089.000000	62.613725
1088.000000	62.633915
1087.000000	62.686772
1086.000000	62.783322
1085.000000	62.930757
1084.000000	63.120701
1083.000000	63.329062
1082.000000	63.530743
1081.000000	63.706092
1080.000000	63.836258
1079.000000	63.907368
1078.000000	63.924368
1077.000000	63.907992
1076.000000	63.878468
1075.000000	63.851323
1074.000000	63.844926
1073.000000	63.876087
1072.000000	63.943385
1071.000000	64.025134
1070.000000	64.093925
1069.000000	64.120215
1068.000000	64.067395
1067.000000	63.898185
1066.000000	63.596674
1065.000000	63.179135
1064.000000	62.685223
1063.000000	62.175029
1062.000000	61.726729
1061.000000	61.417091
1060.000000	61.289998
1059.000000	61.348810
1058.000000	61.567174
1057.000000	61.902272
1056.000000	62.299538
1055.000000	62.699932
1054.000000	63.060150
1053.000000	63.357320
1052.000000	63.580584
1051.000000	63.729076
1050.000000	63.821751
1049.000000	63.892693
1048.000000	63.972753
1047.000000	64.081399
1046.000000	64.232658
1045.000000	64.433402
1044.000000	64.672649
1043.000000	64.924402
1042.000000	65.164125
1041.000000	65.374663
1040.000000	65.539108
1039.000000	65.643877
1038.000000	65.693437
1037.000000	65.710914
1036.000000	65.721993
1035.000000	65.749304
1034.000000	65.818318
1033.000000	65.951862
1032.000000	66.153153
1031.000000	66.404403
1030.000000	66.681391
1029.000000	66.959727
1028.000000	67.208398
1027.000000	67.395265
1026.000000	67.505360
1025.000000	67.545809
1024.000000	67.533204
1023.000000	67.489748
1022.000000	67.450153
1021.000000	67.453180
1020.000000	67.521851
1019.000000	67.658952
1018.000000	67.858790
1017.000000	68.107982
1016.000000	68.375868
1015.000000	68.619795
1014.000000	68.807109
1013.000000	68.923701
1012.000000	68.965449
1011.000000	68.937891
1010.000000	68.867290
1009.000000	68.795123
1008.000000	68.757230
1007.000000	68.776272
1006.000000	68.868965
1005.000000	69.042162
1004.000000	69.279188
1003.000000	69.543250
1002.000000	69.797040
1001.000000	70.011122
1000.000000	70.157844
999.000000	70.217200
998.000000	70.193749
997.000000	70.116753
996.000000	70.020934
995.000000	69.938646
994.000000	69.905097
993.000000	69.951769
992.000000	70.087689
991.000000	70.296779
990.000000	70.552147
989.000000	70.822281
988.000000	71.066464
987.000000	71.242940
986.000000	71.330337
985.000000	71.333207
984.000000	71.269265
983.000000	71.164300
982.000000	71.059089
981.000000	71.000587
980.000000	71.020164
979.000000	71.126175
978.000000	71.314549
977.000000	71.569188
976.000000	71.853283
975.000000	72.116560
974.000000	72.319050
973.000000	72.440072
972.000000	72.469822
971.000000	72.410961
970.000000	72.290632
969.000000	72.155749
968.000000	72.049986
967.000000	72.004553
966.000000	72.043280
965.000000	72.178384
964.000000	72.395265
963.000000	72.655638
962.000000	72.917044
961.000000	73.142582
960.000000	73.296411
959.000000	73.351999
958.000000	73.310626
957.000000	73.201207
956.000000	73.060877
955.000000	72.926059
954.000000	72.837739
953.000000	72.832551
952.000000	72.923155
951.000000	73.095333
950.000000	73.324124
949.000000	73.577534
948.000000	73.810310
947.000000	73.974199
946.000000	74.043987
945.000000	74.022247
944.000000	73.923972
943.000000	73.772375
942.000000	73.607794
941.000000	73.479862
940.000000	73.423616
939.000000	73.452176
938.000000	73.565926
937.000000	73.752297
936.000000	73.975032
935.000000	74.183183
934.000000	74.335497
933.000000	74.409826
932.000000	74.393349
931.000000	74.286147
930.000000	74.114316
929.000000	73.923861
928.000000	73.756723
927.000000	73.642022
926.000000	73.603394
925.000000	73.653086
924.000000	73.775780
923.000000	73.932033
922.000000	74.081101
921.000000	74.189321
920.000000	74.223477
919.000000	74.158116
918.000000	73.995760
917.000000	73.764025
916.000000	73.496129
915.000000	73.224862
914.000000	72.989150
913.000000	72.823245
912.000000	72.734380
911.000000	72.702955
910.000000	72.701060
909.000000	72.697747
908.000000	72.651895
907.000000	72.521734
906.000000	72.288337
905.000000	71.958097
904.000000	71.545714
903.000000	71.073524
902.000000	70.579775
901.000000	70.108636
900.000000	69.685791
899.000000	69.312754
898.000000	68.981157
897.000000	68.673182
896.000000	68.353015
895.000000	67.975807
894.000000	67.509335
893.000000	66.940629
892.000000	66.264979
891.000000	65.488233
890.000000	64.636795
889.000000	63.747159
888.000000	62.847953
887.000000	61.955538
886.000000	61.080649
885.000000	60.223339
884.000000	59.362490
883.000000	58.464593
882.000000	57.499886
881.000000	56.446403
880.000000	55.288208
879.000000	54.021429
878.000000	52.663801
877.000000	51.246105
876.000000	49.799691
875.000000	48.355624
874.000000	46.944324
873.000000	45.587090
872.000000	44.290367
871.000000	43.051643
870.000000	41.863408
869.000000	40.713127
868.000000	39.585952
867.000000	38.474514
866.000000	37.382794
865.000000	36.318752
864.000000	35.293618
863.000000	34.323389
862.000000	33.424845
861.000000	32.608928
860.000000	31.878044
859.000000	31.231353
858.000000	30.661630
857.000000	30.152121
856.000000	29.684266
855.000000	29.244186
854.000000	28.824065
853.000000	28.419312
852.000000	28.032892
851.000000	27.680608
850.000000	27.381502
849.000000	27.149472
848.000000	26.995567
847.000000	26.932333
846.000000	26.970542
845.000000	27.108591
844.000000	27.337499
843.000000	27.649969
842.000000	28.037935
841.000000	28.488757
840.000000	28.988026
839.000000	29.532318
838.000000	30.129172
837.000000	30.784319
836.000000	31.501480
835.000000	32.288433
834.000000	33.151134
833.000000	34.063416
832.000000	34.945491
831.000000	35.627761
830.000000	35.808626
829.000000	35.055667
828.000000	33.005792
827.000000	29.746242
826.000000	26.010485
825.000000	22.880378
824.000000	21.171314
823.000000	21.054513
822.000000	22.192421
821.000000	24.121710
820.000000	26.449945
819.000000	28.847653
818.000000	31.064891
817.000000	32.988390
816.000000	34.643671
815.000000	36.090722
814.000000	37.360343
813.000000	38.468544
812.000000	39.443490
811.000000	40.307613
810.000000	41.072715
809.000000	41.762386
808.000000	42.414035
807.000000	43.057144
806.000000	43.704393
805.000000	44.367269
804.000000	45.054624
803.000000	45.751661
802.000000	46.424148
801.000000	47.046032
800.000000	47.608085
799.000000	48.104074
798.000000	48.531011
797.000000	48.906170
796.000000	49.263373
795.000000	49.631785
794.000000	50.030501
793.000000	50.477283
792.000000	50.982940
791.000000	51.536369
790.000000	52.109460
789.000000	52.675405
788.000000	53.211337
787.000000	53.691402
786.000000	54.096497
785.000000	54.429520
784.000000	54.710593
783.000000	54.961846
782.000000	55.208069
781.000000	55.481747
780.000000	55.810867
779.000000	56.202239
778.000000	56.644407
777.000000	57.119537
776.000000	57.602201
775.000000	58.056007
774.000000	58.448110
773.000000	58.765470
772.000000	59.010378
771.000000	59.190950
770.000000	59.326474
769.000000	59.452699
768.000000	59.606433
767.000000	59.808831
766.000000	60.067935
765.000000	60.385702
764.000000	60.749832
763.000000	61.127402
762.000000	61.480120
761.000000	61.782596
760.000000	62.020244
759.000000	62.183728
758.000000	62.278869
757.000000	62.333474
756.000000	62.383223
755.000000	62.456287
754.000000	62.575960
753.000000	62.762841
752.000000	63.021511
751.000000	63.331906
750.000000	63.662992
749.000000	63.987074
748.000000	64.276373
747.000000	64.501995
746.000000	64.651093
745.000000	64.736886
744.000000	64.783909
743.000000	64.814191
742.000000	64.853589
741.000000	64.934554
740.000000	65.078109
739.000000	65.280932
738.000000	65.526628
737.000000	65.796685
736.000000	66.062572
735.000000	66.283898
734.000000	66.429869
733.000000	66.494984
732.000000	66.487589
731.000000	66.419237
730.000000	66.314269
729.000000	66.213162
728.000000	66.151825
727.000000	66.146162
726.000000	66.201351
725.000000	66.320003
724.000000	66.489543
723.000000	66.676114
722.000000	66.844973
721.000000	66.978625
720.000000	67.069373
719.000000	67.112611
718.000000	67.120412
717.000000	67.126792
716.000000	67.166806
715.000000	67.260070
714.000000	67.419695
713.000000	67.657784
712.000000	67.968811
711.000000	68.320732
710.000000	68.675396
709.000000	69.004703
708.000000	69.281876
707.000000	69.479126
706.000000	69.590513
705.000000	69.643357
704.000000	69.675309
703.000000	69.713119
702.000000	69.781067
701.000000	69.907910
700.000000	70.107050
699.000000	70.364390
698.000000	70.655701
697.000000	70.960523
696.000000	71.249203
695.000000	71.479768
694.000000	71.626256
693.000000	71.696336
692.000000	71.710759
691.000000	71.686458
690.000000	71.651232
689.000000	71.651646
688.000000	71.724480
687.000000	71.872806
686.000000	72.085377
685.000000	72.354157
684.000000	72.655130
683.000000	72.938649
682.000000	73.162281
681.000000	73.314167
680.000000	73.393858
679.000000	73.399063
678.000000	73.348819
677.000000	73.291283
676.000000	73.271924
675.000000	73.310928
674.000000	73.421793
673.000000	73.622716
672.000000	73.907919
671.000000	74.236731
670.000000	74.570041
669.000000	74.879005
668.000000	75.094009
667.000000	75.155333
666.000000	75.113287
665.000000	75.037083
664.000000	74.963441
663.000000	74.919261
662.000000	74.934059
661.000000	75.032002
660.000000	75.217132
659.000000	75.472574
658.000000	75.771980
657.000000	76.083923
656.000000	76.369242
655.000000	76.587532
654.000000	76.716775
653.000000	76.762217
652.000000	76.744298
651.000000	76.690404
650.000000	76.639886
649.000000	76.636137
648.000000	76.703917
647.000000	76.844020
646.000000	77.049045
645.000000	77.310703
644.000000	77.603976
643.000000	77.882649
642.000000	78.104397
641.000000	78.251077
640.000000	78.319596
639.000000	78.314019
638.000000	78.257966
637.000000	78.195236
636.000000	78.167089
635.000000	78.198713
634.000000	78.307267
633.000000	78.501738
632.000000	78.767153
631.000000	79.063239
630.000000	79.349158
629.000000	79.596842
628.000000	79.779717
627.000000	79.873901
626.000000	79.885133
625.000000	79.853419
624.000000	79.818421
623.000000	79.801950
622.000000	79.826302
621.000000	79.921021
620.000000	80.097383
619.000000	80.336529
618.000000	80.610647
617.000000	80.896536
616.000000	81.159677
615.000000	81.355288
614.000000	81.461015
613.000000	81.489253
612.000000	81.458039
611.000000	81.377158
610.000000	81.268584
609.000000	81.163499
608.000000	81.066180
607.000000	80.934659
606.000000	80.702197
605.000000	80.279264
604.000000	79.515683
603.000000	78.198751
602.000000	76.081960
601.000000	72.953867
600.000000	68.760138
599.000000	63.778237
598.000000	58.667568
597.000000	54.260104
596.000000	51.250332
595.000000	49.977415
594.000000	50.362279
593.000000	52.006253
592.000000	54.412514
591.000000	57.120177
590.000000	59.765074
589.000000	62.151321
588.000000	64.231504
587.000000	66.026782
586.000000	67.568733
585.000000	68.898478
584.000000	70.058286
583.000000	71.083047
582.000000	72.006778
581.000000	72.869424
580.000000	73.696099
579.000000	74.474464
578.000000	75.182764
577.000000	75.817989
576.000000	76.377687
575.000000	76.842582
574.000000	77.200822
573.000000	77.475199
572.000000	77.700278
571.000000	77.896863
570.000000	78.087011
569.000000	78.304299
568.000000	78.568978
567.000000	78.869198
566.000000	79.182924
565.000000	79.498557
564.000000	79.795664
563.000000	80.036958
562.000000	80.203154
561.000000	80.313995
560.000000	80.395385
559.000000	80.452857
558.000000	80.498265
557.000000	80.568072
556.000000	80.690332
555.000000	80.860295
554.000000	81.067203
553.000000	81.312197
552.000000	81.580149
551.000000	81.825933
550.000000	82.015381
549.000000	82.151165
548.000000	82.239191
547.000000	82.268992
546.000000	82.252480
545.000000	82.242422
544.000000	82.282099
543.000000	82.372315
542.000000	82.504198
541.000000	82.686793
540.000000	82.917058
539.000000	83.158823
538.000000	83.375694
537.000000	83.556257
536.000000	83.687404
535.000000	83.743919
534.000000	83.728804
533.000000	83.689503
532.000000	83.667139
531.000000	83.666676
530.000000	83.694949
529.000000	83.777710
528.000000	83.921748
527.000000	84.101900
526.000000	84.298755
525.000000	84.505889
524.000000	84.682075
523.000000	84.743319
522.000000	84.639604
521.000000	84.387404
520.000000	84.007833
519.000000	83.489753
518.000000	82.848491
517.000000	82.182520
516.000000	81.620644
515.000000	81.246019
514.000000	81.093791
513.000000	81.167228
512.000000	81.405902
511.000000	81.680779
510.000000	81.866477
509.000000	81.894357
508.000000	81.704342
507.000000	81.220121
506.000000	80.408073
505.000000	79.294728
504.000000	77.915099
503.000000	76.342600
502.000000	74.809226
501.000000	73.651367
500.000000	73.063809
499.000000	73.006180
498.000000	73.338261
497.000000	73.912424
496.000000	74.564960
495.000000	75.136681
494.000000	75.547426
493.000000	75.829384
492.000000	76.063743
491.000000	76.331840
490.000000	76.712567
489.000000	77.264441
488.000000	77.972779
487.000000	78.754057
486.000000	79.530766
485.000000	80.268077
484.000000	80.931736
483.000000	81.477064
482.000000	81.909416
481.000000	82.287944
480.000000	82.644105
479.000000	82.955381
478.000000	83.213981
477.000000	83.467157
476.000000	83.754125
475.000000	84.057691
474.000000	84.359450
473.000000	84.672353
472.000000	84.989463
471.000000	85.263127
470.000000	85.453249
469.000000	85.576371
468.000000	85.659995
467.000000	85.694130
466.000000	85.669969
465.000000	85.617979
464.000000	85.567453
463.000000	85.516517
462.000000	85.478885
461.000000	85.498851
460.000000	85.591652
459.000000	85.717198
458.000000	85.836480
457.000000	85.970389
456.000000	86.118994
455.000000	86.186798
454.000000	86.108840
453.000000	85.934017
452.000000	85.735625
451.000000	85.514268
450.000000	85.238118
449.000000	84.929075
448.000000	84.611791
447.000000	84.236883
446.000000	83.735267
445.000000	83.081255
444.000000	82.219144
443.000000	81.008333
442.000000	79.349233
441.000000	77.315286
440.000000	75.053329
439.000000	72.665773
438.000000	70.272223
437.000000	68.120587
436.000000	66.539629
435.000000	65.745599
434.000000	65.717510
433.000000	66.303181
432.000000	67.375954
431.000000	68.787543
430.000000	70.351898
429.000000	71.961530
428.000000	73.582793
427.000000	75.133142
426.000000	76.503815
425.000000	77.708116
424.000000	78.820702
423.000000	79.810401
422.000000	80.596273
421.000000	81.249036
420.000000	81.949864
419.000000	82.747203
418.000000	83.572988
417.000000	84.386488
416.000000	85.114311
415.000000	85.633297
414.000000	85.903994
413.000000	86.072761
412.000000	86.284781
411.000000	86.489753
410.000000	86.624531
409.000000	86.799060
408.000000	87.097859
407.000000	87.354234
406.000000	87.527863
405.000000	87.702754
404.000000	87.945821
403.000000	88.034855
402.000000	87.758161
401.000000	87.234887
400.000000	86.670994
