PE IR       SUBTECH     SPECTRUM    ASCII       PEDS        4.00        
   -1
23ms064_nitro.asc
24/09/12
15:35:45.00
24/09/12
15:35:45.00
Administrator
Sample 1168 By Administrator Date Thursday, September 12 2024
400.000000
#HDR
-1
-1
#GR
cm-1
%T
1.0
0.0
4000.000000
-1.000000
3601
8
75.425253
0.630432
#DATA
4000.000000	40.578505
3999.000000	40.626745
3998.000000	40.674982
3997.000000	40.723366
3996.000000	40.771849
3995.000000	40.820508
3994.000000	40.869559
3993.000000	40.918820
3992.000000	40.967463
3991.000000	41.014707
3990.000000	41.060707
3989.000000	41.106382
3988.000000	41.152302
3987.000000	41.198113
3986.000000	41.243091
3985.000000	41.286815
3984.000000	41.329414
3983.000000	41.371498
3982.000000	41.414123
3981.000000	41.458386
3980.000000	41.504674
3979.000000	41.552156
3978.000000	41.599100
3977.000000	41.643895
3976.000000	41.685999
3975.000000	41.725811
3974.000000	41.764232
3973.000000	41.802479
3972.000000	41.841659
3971.000000	41.882241
3970.000000	41.923660
3969.000000	41.965108
3968.000000	42.006273
3967.000000	42.047576
3966.000000	42.089613
3965.000000	42.132297
3964.000000	42.174643
3963.000000	42.215328
3962.000000	42.253942
3961.000000	42.291570
3960.000000	42.329626
3959.000000	42.368622
3958.000000	42.408062
3957.000000	42.448012
3956.000000	42.489310
3955.000000	42.532586
3954.000000	42.577615
3953.000000	42.623144
3952.000000	42.667798
3951.000000	42.710582
3950.000000	42.751119
3949.000000	42.789293
3948.000000	42.825790
3947.000000	42.863389
3946.000000	42.905392
3945.000000	42.951563
3944.000000	42.997368
3943.000000	43.038851
3942.000000	43.077561
3941.000000	43.118116
3940.000000	43.161908
3939.000000	43.206483
3938.000000	43.249037
3937.000000	43.290431
3936.000000	43.333797
3935.000000	43.379741
3934.000000	43.425571
3933.000000	43.468132
3932.000000	43.507542
3931.000000	43.545674
3930.000000	43.583457
3929.000000	43.622651
3928.000000	43.666194
3927.000000	43.714544
3926.000000	43.761805
3925.000000	43.801779
3924.000000	43.836672
3923.000000	43.873089
3922.000000	43.912481
3921.000000	43.951823
3920.000000	43.990552
3919.000000	44.031661
3918.000000	44.075040
3917.000000	44.117018
3916.000000	44.156620
3915.000000	44.196894
3914.000000	44.239326
3913.000000	44.282593
3912.000000	44.324897
3911.000000	44.367435
3910.000000	44.410929
3909.000000	44.456239
3908.000000	44.504565
3907.000000	44.555232
3906.000000	44.602603
3905.000000	44.638379
3904.000000	44.663653
3903.000000	44.690395
3902.000000	44.727061
3901.000000	44.769301
3900.000000	44.807233
3899.000000	44.838903
3898.000000	44.870667
3897.000000	44.906884
3896.000000	44.946792
3895.000000	44.991417
3894.000000	45.042119
3893.000000	45.095860
3892.000000	45.141393
3891.000000	45.173761
3890.000000	45.202543
3889.000000	45.242184
3888.000000	45.295543
3887.000000	45.348034
3886.000000	45.384599
3885.000000	45.411904
3884.000000	45.446537
3883.000000	45.491770
3882.000000	45.535310
3881.000000	45.565558
3880.000000	45.586870
3879.000000	45.614215
3878.000000	45.656314
3877.000000	45.710188
3876.000000	45.762933
3875.000000	45.801601
3874.000000	45.829847
3873.000000	45.866533
3872.000000	45.918855
3871.000000	45.967265
3870.000000	45.994083
3869.000000	46.014289
3868.000000	46.050576
3867.000000	46.101563
3866.000000	46.147198
3865.000000	46.179241
3864.000000	46.211439
3863.000000	46.255570
3862.000000	46.304688
3861.000000	46.350663
3860.000000	46.391485
3859.000000	46.431357
3858.000000	46.477603
3857.000000	46.539141
3856.000000	46.614160
3855.000000	46.673690
3854.000000	46.695795
3853.000000	46.711347
3852.000000	46.748167
3851.000000	46.791240
3850.000000	46.822922
3849.000000	46.845889
3848.000000	46.873695
3847.000000	46.915866
3846.000000	46.969600
3845.000000	47.026028
3844.000000	47.075986
3843.000000	47.116692
3842.000000	47.154338
3841.000000	47.196818
3840.000000	47.240580
3839.000000	47.280646
3838.000000	47.319416
3837.000000	47.359941
3836.000000	47.399850
3835.000000	47.436763
3834.000000	47.473086
3833.000000	47.510562
3832.000000	47.548170
3831.000000	47.588393
3830.000000	47.635999
3829.000000	47.691604
3828.000000	47.746418
3827.000000	47.788964
3826.000000	47.819413
3825.000000	47.854680
3824.000000	47.908085
3823.000000	47.970297
3822.000000	48.014687
3821.000000	48.034149
3820.000000	48.053428
3819.000000	48.092925
3818.000000	48.147586
3817.000000	48.194267
3816.000000	48.225756
3815.000000	48.263855
3814.000000	48.322095
3813.000000	48.382959
3812.000000	48.426067
3811.000000	48.456379
3810.000000	48.496089
3809.000000	48.553624
3808.000000	48.609996
3807.000000	48.646409
3806.000000	48.671969
3805.000000	48.708642
3804.000000	48.761388
3803.000000	48.813374
3802.000000	48.844688
3801.000000	48.867990
3800.000000	48.908997
3799.000000	48.965455
3798.000000	49.017562
3797.000000	49.053751
3796.000000	49.084267
3795.000000	49.126451
3794.000000	49.183374
3793.000000	49.242188
3792.000000	49.293025
3791.000000	49.338092
3790.000000	49.383281
3789.000000	49.430163
3788.000000	49.478227
3787.000000	49.527393
3786.000000	49.575747
3785.000000	49.619412
3784.000000	49.659072
3783.000000	49.702150
3782.000000	49.752402
3781.000000	49.803477
3780.000000	49.846289
3779.000000	49.883231
3778.000000	49.924656
3777.000000	49.974350
3776.000000	50.024122
3775.000000	50.066640
3774.000000	50.106619
3773.000000	50.154408
3772.000000	50.209337
3771.000000	50.259622
3770.000000	50.300829
3769.000000	50.342635
3768.000000	50.392375
3767.000000	50.444950
3766.000000	50.490025
3765.000000	50.525798
3764.000000	50.563750
3763.000000	50.614788
3762.000000	50.673877
3761.000000	50.727766
3760.000000	50.773212
3759.000000	50.818888
3758.000000	50.865623
3757.000000	50.907522
3756.000000	50.946119
3755.000000	50.987363
3754.000000	51.030545
3753.000000	51.068902
3752.000000	51.105269
3751.000000	51.150892
3750.000000	51.201962
3749.000000	51.245262
3748.000000	51.287684
3747.000000	51.347954
3746.000000	51.417013
3745.000000	51.465315
3744.000000	51.505358
3743.000000	51.569717
3742.000000	51.646820
3741.000000	51.706760
3740.000000	51.744718
3739.000000	51.785069
3738.000000	51.844857
3737.000000	51.911238
3736.000000	51.968126
3735.000000	52.020797
3734.000000	52.081162
3733.000000	52.143792
3732.000000	52.197898
3731.000000	52.245729
3730.000000	52.297050
3729.000000	52.355461
3728.000000	52.413941
3727.000000	52.464853
3726.000000	52.514228
3725.000000	52.571350
3724.000000	52.632935
3723.000000	52.689289
3722.000000	52.739098
3721.000000	52.789480
3720.000000	52.844164
3719.000000	52.900844
3718.000000	52.952495
3717.000000	52.997978
3716.000000	53.044538
3715.000000	53.095882
3714.000000	53.147159
3713.000000	53.192511
3712.000000	53.237035
3711.000000	53.292297
3710.000000	53.360207
3709.000000	53.432089
3708.000000	53.497602
3707.000000	53.553340
3706.000000	53.604986
3705.000000	53.659648
3704.000000	53.718521
3703.000000	53.777061
3702.000000	53.832476
3701.000000	53.887720
3700.000000	53.946516
3699.000000	54.008749
3698.000000	54.068139
3697.000000	54.118317
3696.000000	54.162450
3695.000000	54.207961
3694.000000	54.255581
3693.000000	54.302822
3692.000000	54.351467
3691.000000	54.404918
3690.000000	54.460738
3689.000000	54.515361
3688.000000	54.570231
3687.000000	54.627490
3686.000000	54.685600
3685.000000	54.738041
3684.000000	54.780687
3683.000000	54.820816
3682.000000	54.868226
3681.000000	54.917657
3680.000000	54.958547
3679.000000	54.995407
3678.000000	55.042538
3677.000000	55.091632
3676.000000	55.123536
3675.000000	55.153752
3674.000000	55.206267
3673.000000	55.276528
3672.000000	55.341917
3671.000000	55.384862
3670.000000	55.418838
3669.000000	55.474847
3668.000000	55.554022
3667.000000	55.631374
3666.000000	55.691253
3665.000000	55.738587
3664.000000	55.787166
3663.000000	55.844767
3662.000000	55.905915
3661.000000	55.959544
3660.000000	56.003857
3659.000000	56.043294
3658.000000	56.078326
3657.000000	56.103037
3656.000000	56.121943
3655.000000	56.150319
3654.000000	56.193590
3653.000000	56.240189
3652.000000	56.270643
3651.000000	56.275029
3650.000000	56.270235
3649.000000	56.286534
3648.000000	56.331907
3647.000000	56.390404
3646.000000	56.445802
3645.000000	56.492751
3644.000000	56.531737
3643.000000	56.564876
3642.000000	56.594615
3641.000000	56.624958
3640.000000	56.657582
3639.000000	56.688963
3638.000000	56.716992
3637.000000	56.743969
3636.000000	56.771036
3635.000000	56.791967
3634.000000	56.802706
3633.000000	56.811247
3632.000000	56.826724
3631.000000	56.839818
3630.000000	56.827965
3629.000000	56.801509
3628.000000	56.805124
3627.000000	56.849072
3626.000000	56.899913
3625.000000	56.930876
3624.000000	56.944078
3623.000000	56.957190
3622.000000	56.977424
3621.000000	56.991360
3620.000000	56.984717
3619.000000	56.965117
3618.000000	56.951563
3617.000000	56.950738
3616.000000	56.955272
3615.000000	56.953293
3614.000000	56.940003
3613.000000	56.924400
3612.000000	56.920465
3611.000000	56.930798
3610.000000	56.945017
3609.000000	56.954423
3608.000000	56.962509
3607.000000	56.977674
3606.000000	56.998825
3605.000000	57.016328
3604.000000	57.024088
3603.000000	57.023989
3602.000000	57.021393
3601.000000	57.019504
3600.000000	57.020151
3599.000000	57.022304
3598.000000	57.021836
3597.000000	57.015501
3596.000000	57.005526
3595.000000	56.995539
3594.000000	56.988901
3593.000000	56.987099
3592.000000	56.989050
3591.000000	56.992475
3590.000000	56.993043
3589.000000	56.986265
3588.000000	56.975564
3587.000000	56.973011
3586.000000	56.984107
3585.000000	57.000819
3584.000000	57.012470
3583.000000	57.015223
3582.000000	57.011196
3581.000000	57.003516
3580.000000	56.995146
3579.000000	56.988358
3578.000000	56.983797
3577.000000	56.980543
3576.000000	56.977887
3575.000000	56.976735
3574.000000	56.978122
3573.000000	56.982345
3572.000000	56.988065
3571.000000	56.992329
3570.000000	56.989052
3569.000000	56.970680
3568.000000	56.938348
3567.000000	56.908712
3566.000000	56.899159
3565.000000	56.909594
3564.000000	56.927134
3563.000000	56.940356
3562.000000	56.944735
3561.000000	56.941432
3560.000000	56.934788
3559.000000	56.929648
3558.000000	56.927661
3557.000000	56.926930
3556.000000	56.925257
3555.000000	56.922115
3554.000000	56.916538
3553.000000	56.907063
3552.000000	56.895382
3551.000000	56.886402
3550.000000	56.882980
3549.000000	56.883031
3548.000000	56.882549
3547.000000	56.879861
3546.000000	56.875111
3545.000000	56.868490
3544.000000	56.860292
3543.000000	56.851046
3542.000000	56.840593
3541.000000	56.829493
3540.000000	56.820555
3539.000000	56.815807
3538.000000	56.811930
3537.000000	56.802125
3536.000000	56.784584
3535.000000	56.764477
3534.000000	56.747734
3533.000000	56.734901
3532.000000	56.723266
3531.000000	56.710878
3530.000000	56.696674
3529.000000	56.680334
3528.000000	56.664348
3527.000000	56.653251
3526.000000	56.647257
3525.000000	56.639362
3524.000000	56.621974
3523.000000	56.595228
3522.000000	56.566000
3521.000000	56.540292
3520.000000	56.518918
3519.000000	56.499351
3518.000000	56.479895
3517.000000	56.460947
3516.000000	56.442931
3515.000000	56.423431
3514.000000	56.398204
3513.000000	56.364652
3512.000000	56.323849
3511.000000	56.279294
3510.000000	56.234813
3509.000000	56.193967
3508.000000	56.159827
3507.000000	56.132916
3506.000000	56.109043
3505.000000	56.081185
3504.000000	56.044656
3503.000000	55.999916
3502.000000	55.950595
3501.000000	55.900601
3500.000000	55.852532
3499.000000	55.805732
3498.000000	55.755901
3497.000000	55.699310
3496.000000	55.637338
3495.000000	55.574456
3494.000000	55.512520
3493.000000	55.449902
3492.000000	55.385513
3491.000000	55.320337
3490.000000	55.254595
3489.000000	55.186301
3488.000000	55.113680
3487.000000	55.036908
3486.000000	54.956724
3485.000000	54.873581
3484.000000	54.789291
3483.000000	54.706813
3482.000000	54.627005
3481.000000	54.546873
3480.000000	54.461940
3479.000000	54.369693
3478.000000	54.270227
3477.000000	54.165336
3476.000000	54.057820
3475.000000	53.950540
3474.000000	53.845590
3473.000000	53.744564
3472.000000	53.648391
3471.000000	53.555067
3470.000000	53.458350
3469.000000	53.351114
3468.000000	53.230435
3467.000000	53.098801
3466.000000	52.961008
3465.000000	52.821354
3464.000000	52.683190
3463.000000	52.548191
3462.000000	52.415013
3461.000000	52.280080
3460.000000	52.140514
3459.000000	51.995924
3458.000000	51.847704
3457.000000	51.697719
3456.000000	51.547607
3455.000000	51.397522
3454.000000	51.245812
3453.000000	51.090818
3452.000000	50.933378
3451.000000	50.775501
3450.000000	50.616063
3449.000000	50.450532
3448.000000	50.276384
3447.000000	50.097047
3446.000000	49.918304
3445.000000	49.741991
3444.000000	49.565130
3443.000000	49.384456
3442.000000	49.200148
3441.000000	49.015429
3440.000000	48.832995
3439.000000	48.651766
3438.000000	48.467140
3437.000000	48.274113
3436.000000	48.070438
3435.000000	47.856904
3434.000000	47.636212
3433.000000	47.412128
3432.000000	47.187895
3431.000000	46.963328
3430.000000	46.733953
3429.000000	46.495375
3428.000000	46.248107
3427.000000	45.996299
3426.000000	45.743078
3425.000000	45.489183
3424.000000	45.234280
3423.000000	44.976715
3422.000000	44.712830
3421.000000	44.439973
3420.000000	44.159897
3419.000000	43.876596
3418.000000	43.591840
3417.000000	43.304855
3416.000000	43.015005
3415.000000	42.721654
3414.000000	42.422245
3413.000000	42.114245
3412.000000	41.798307
3411.000000	41.476850
3410.000000	41.149919
3409.000000	40.815200
3408.000000	40.472154
3407.000000	40.123140
3406.000000	39.770903
3405.000000	39.417281
3404.000000	39.063214
3403.000000	38.707205
3402.000000	38.344088
3401.000000	37.967967
3400.000000	37.576916
3399.000000	37.173582
3398.000000	36.762723
3397.000000	36.349404
3396.000000	35.937199
3395.000000	35.525409
3394.000000	35.108307
3393.000000	34.679639
3392.000000	34.237690
3391.000000	33.785087
3390.000000	33.325830
3389.000000	32.863568
3388.000000	32.400805
3387.000000	31.937163
3386.000000	31.469532
3385.000000	30.996062
3384.000000	30.518249
3383.000000	30.037954
3382.000000	29.554434
3381.000000	29.065941
3380.000000	28.572567
3379.000000	28.075438
3378.000000	27.574950
3377.000000	27.071608
3376.000000	26.566884
3375.000000	26.062056
3374.000000	25.557440
3373.000000	25.053538
3372.000000	24.550855
3371.000000	24.047554
3370.000000	23.539920
3369.000000	23.026359
3368.000000	22.509005
3367.000000	21.990868
3366.000000	21.473840
3365.000000	20.960068
3364.000000	20.451928
3363.000000	19.949206
3362.000000	19.448997
3361.000000	18.949848
3360.000000	18.453517
3359.000000	17.961683
3358.000000	17.473740
3357.000000	16.989086
3356.000000	16.509033
3355.000000	16.034864
3354.000000	15.566394
3353.000000	15.103540
3352.000000	14.646863
3351.000000	14.196201
3350.000000	13.750950
3349.000000	13.312368
3348.000000	12.883167
3347.000000	12.463903
3346.000000	12.052779
3345.000000	11.648971
3344.000000	11.253419
3343.000000	10.866418
3342.000000	10.487052
3341.000000	10.115776
3340.000000	9.754303
3339.000000	9.402610
3338.000000	9.059393
3337.000000	8.725107
3336.000000	8.401835
3335.000000	8.089769
3334.000000	7.786926
3333.000000	7.492918
3332.000000	7.209050
3331.000000	6.935090
3330.000000	6.669103
3329.000000	6.410494
3328.000000	6.160630
3327.000000	5.919734
3326.000000	5.686927
3325.000000	5.463251
3324.000000	5.250814
3323.000000	5.049317
3322.000000	4.856083
3321.000000	4.669915
3320.000000	4.491844
3319.000000	4.321682
3318.000000	4.157971
3317.000000	4.000869
3316.000000	3.851978
3315.000000	3.711376
3314.000000	3.577380
3313.000000	3.449687
3312.000000	3.329258
3311.000000	3.215337
3310.000000	3.106087
3309.000000	3.001626
3308.000000	2.903884
3307.000000	2.813494
3306.000000	2.729879
3305.000000	2.654109
3304.000000	2.587600
3303.000000	2.528675
3302.000000	2.473517
3301.000000	2.420285
3300.000000	2.369703
3299.000000	2.321915
3298.000000	2.276363
3297.000000	2.234225
3296.000000	2.197276
3295.000000	2.164819
3294.000000	2.134692
3293.000000	2.107100
3292.000000	2.084197
3291.000000	2.065954
3290.000000	2.050097
3289.000000	2.035568
3288.000000	2.023023
3287.000000	2.012285
3286.000000	2.002270
3285.000000	1.993461
3284.000000	1.987170
3283.000000	1.982799
3282.000000	1.978646
3281.000000	1.974842
3280.000000	1.972671
3279.000000	1.971479
3278.000000	1.969407
3277.000000	1.966665
3276.000000	1.965009
3275.000000	1.964476
3274.000000	1.963607
3273.000000	1.962558
3272.000000	1.963017
3271.000000	1.965421
3270.000000	1.969017
3269.000000	1.974044
3268.000000	1.981013
3267.000000	1.988528
3266.000000	1.994634
3265.000000	1.999752
3264.000000	2.005617
3263.000000	2.012057
3262.000000	2.017694
3261.000000	2.022907
3260.000000	2.029091
3259.000000	2.035759
3258.000000	2.041375
3257.000000	2.046419
3256.000000	2.052636
3255.000000	2.059939
3254.000000	2.066896
3253.000000	2.073639
3252.000000	2.081331
3251.000000	2.089409
3250.000000	2.096276
3249.000000	2.102185
3248.000000	2.108787
3247.000000	2.116355
3246.000000	2.124045
3245.000000	2.132150
3244.000000	2.141430
3243.000000	2.150922
3242.000000	2.159052
3241.000000	2.166228
3240.000000	2.173884
3239.000000	2.181802
3238.000000	2.188774
3237.000000	2.194960
3236.000000	2.201158
3235.000000	2.206879
3234.000000	2.211659
3233.000000	2.217140
3232.000000	2.225147
3231.000000	2.234685
3230.000000	2.243416
3229.000000	2.250992
3228.000000	2.258354
3227.000000	2.265063
3226.000000	2.270133
3225.000000	2.274455
3224.000000	2.279548
3223.000000	2.284848
3222.000000	2.288809
3221.000000	2.291745
3220.000000	2.295013
3219.000000	2.298409
3218.000000	2.300936
3217.000000	2.303013
3216.000000	2.305417
3215.000000	2.307241
3214.000000	2.307388
3213.000000	2.306904
3212.000000	2.307278
3211.000000	2.307706
3210.000000	2.306633
3209.000000	2.304630
3208.000000	2.303168
3207.000000	2.301803
3206.000000	2.299257
3205.000000	2.296046
3204.000000	2.293326
3203.000000	2.290379
3202.000000	2.285863
3201.000000	2.280350
3200.000000	2.275092
3199.000000	2.269502
3198.000000	2.262464
3197.000000	2.254838
3196.000000	2.248051
3195.000000	2.241492
3194.000000	2.233864
3193.000000	2.225788
3192.000000	2.218499
3191.000000	2.211252
3190.000000	2.202655
3189.000000	2.193287
3188.000000	2.184455
3187.000000	2.175709
3186.000000	2.166119
3185.000000	2.156639
3184.000000	2.148555
3183.000000	2.140940
3182.000000	2.132235
3181.000000	2.123047
3180.000000	2.114839
3179.000000	2.107185
3178.000000	2.098848
3177.000000	2.090282
3176.000000	2.082564
3175.000000	2.075147
3174.000000	2.067155
3173.000000	2.059526
3172.000000	2.053439
3171.000000	2.047984
3170.000000	2.041764
3169.000000	2.035391
3168.000000	2.030117
3167.000000	2.025494
3166.000000	2.020774
3165.000000	2.016986
3164.000000	2.015137
3163.000000	2.013919
3162.000000	2.011654
3161.000000	2.009044
3160.000000	2.007622
3159.000000	2.007088
3158.000000	2.006567
3157.000000	2.006773
3156.000000	2.008439
3155.000000	2.010248
3154.000000	2.010921
3153.000000	2.011852
3152.000000	2.015144
3151.000000	2.020561
3150.000000	2.026785
3149.000000	2.033998
3148.000000	2.042727
3147.000000	2.051740
3146.000000	2.059762
3145.000000	2.067768
3144.000000	2.077131
3143.000000	2.087027
3142.000000	2.096110
3141.000000	2.105275
3140.000000	2.116284
3139.000000	2.129035
3138.000000	2.142610
3137.000000	2.157444
3136.000000	2.174129
3135.000000	2.191574
3134.000000	2.208598
3133.000000	2.225955
3132.000000	2.244608
3131.000000	2.263687
3130.000000	2.282372
3129.000000	2.301940
3128.000000	2.323711
3127.000000	2.346619
3126.000000	2.369123
3125.000000	2.391742
3124.000000	2.415394
3123.000000	2.439134
3122.000000	2.462000
3121.000000	2.485426
3120.000000	2.511344
3119.000000	2.539364
3118.000000	2.568222
3117.000000	2.598364
3116.000000	2.630742
3115.000000	2.664694
3114.000000	2.699217
3113.000000	2.734793
3112.000000	2.771775
3111.000000	2.808701
3110.000000	2.844535
3109.000000	2.880857
3108.000000	2.919671
3107.000000	2.960613
3106.000000	3.002397
3105.000000	3.045240
3104.000000	3.089553
3103.000000	3.134089
3102.000000	3.177763
3101.000000	3.221801
3100.000000	3.267950
3099.000000	3.315940
3098.000000	3.364764
3097.000000	3.414803
3096.000000	3.466499
3095.000000	3.518701
3094.000000	3.570379
3093.000000	3.622478
3092.000000	3.676206
3091.000000	3.731078
3090.000000	3.786545
3089.000000	3.843607
3088.000000	3.902837
3087.000000	3.962679
3086.000000	4.021726
3085.000000	4.080991
3084.000000	4.141844
3083.000000	4.203558
3082.000000	4.265067
3081.000000	4.327314
3080.000000	4.391734
3079.000000	4.458008
3078.000000	4.525371
3077.000000	4.594474
3076.000000	4.665782
3075.000000	4.737810
3074.000000	4.808987
3073.000000	4.879768
3072.000000	4.951108
3071.000000	5.022451
3070.000000	5.093157
3069.000000	5.164285
3068.000000	5.236997
3067.000000	5.310799
3066.000000	5.385050
3065.000000	5.460577
3064.000000	5.537952
3063.000000	5.615881
3062.000000	5.693123
3061.000000	5.770295
3060.000000	5.848076
3059.000000	5.925481
3058.000000	6.001710
3057.000000	6.078029
3056.000000	6.155900
3055.000000	6.234890
3054.000000	6.314179
3053.000000	6.394358
3052.000000	6.475941
3051.000000	6.557824
3050.000000	6.639037
3049.000000	6.720359
3048.000000	6.802439
3047.000000	6.884059
3046.000000	6.964129
3045.000000	7.043717
3044.000000	7.124348
3043.000000	7.205924
3042.000000	7.288052
3041.000000	7.371636
3040.000000	7.457224
3039.000000	7.543425
3038.000000	7.628694
3037.000000	7.713217
3036.000000	7.797508
3035.000000	7.880951
3034.000000	7.963463
3033.000000	8.046780
3032.000000	8.132181
3031.000000	8.218593
3030.000000	8.304699
3029.000000	8.391128
3028.000000	8.478738
3027.000000	8.566523
3026.000000	8.653202
3025.000000	8.739322
3024.000000	8.825910
3023.000000	8.912502
3022.000000	8.998311
3021.000000	9.083905
3020.000000	9.169982
3019.000000	9.255866
3018.000000	9.340908
3017.000000	9.426000
3016.000000	9.512129
3015.000000	9.598828
3014.000000	9.685627
3013.000000	9.773497
3012.000000	9.863179
3011.000000	9.953533
3010.000000	10.043128
3009.000000	10.132152
3008.000000	10.221230
3007.000000	10.309830
3006.000000	10.397378
3005.000000	10.484633
3004.000000	10.572533
3003.000000	10.660855
3002.000000	10.749215
3001.000000	10.837938
3000.000000	10.926816
2999.000000	11.014607
2998.000000	11.101055
2997.000000	11.187765
2996.000000	11.275690
2995.000000	11.363446
2994.000000	11.449650
2993.000000	11.535319
2992.000000	11.622360
2991.000000	11.711139
2990.000000	11.801054
2989.000000	11.892072
2988.000000	11.984046
2987.000000	12.075779
2986.000000	12.166225
2985.000000	12.255514
2984.000000	12.343688
2983.000000	12.429950
2982.000000	12.514462
2981.000000	12.599339
2980.000000	12.686412
2979.000000	12.775303
2978.000000	12.864920
2977.000000	12.955329
2976.000000	13.046813
2975.000000	13.138621
2974.000000	13.230126
2973.000000	13.321741
2972.000000	13.413386
2971.000000	13.503597
2970.000000	13.591659
2969.000000	13.679113
2968.000000	13.767630
2967.000000	13.856913
2966.000000	13.946181
2965.000000	14.036076
2964.000000	14.127332
2963.000000	14.219051
2962.000000	14.310173
2961.000000	14.401198
2960.000000	14.492640
2959.000000	14.583150
2958.000000	14.671034
2957.000000	14.756492
2956.000000	14.840690
2955.000000	14.923946
2954.000000	15.006560
2953.000000	15.090151
2952.000000	15.176260
2951.000000	15.264441
2950.000000	15.353183
2949.000000	15.441712
2948.000000	15.529679
2947.000000	15.616329
2946.000000	15.701504
2945.000000	15.786494
2944.000000	15.872578
2943.000000	15.959580
2942.000000	16.046892
2941.000000	16.134728
2940.000000	16.223235
2939.000000	16.311639
2938.000000	16.399514
2937.000000	16.487651
2936.000000	16.576489
2935.000000	16.664883
2934.000000	16.751677
2933.000000	16.837180
2932.000000	16.921899
2931.000000	17.005368
2930.000000	17.087711
2929.000000	17.170942
2928.000000	17.257054
2927.000000	17.345958
2926.000000	17.436640
2925.000000	17.528878
2924.000000	17.622250
2923.000000	17.714820
2922.000000	17.804517
2921.000000	17.890727
2920.000000	17.973143
2919.000000	18.050468
2918.000000	18.121853
2917.000000	18.188515
2916.000000	18.252523
2915.000000	18.314984
2914.000000	18.376667
2913.000000	18.439131
2912.000000	18.503797
2911.000000	18.570711
2910.000000	18.639357
2909.000000	18.709758
2908.000000	18.781655
2907.000000	18.853723
2906.000000	18.924822
2905.000000	18.995260
2904.000000	19.065667
2903.000000	19.135937
2902.000000	19.206224
2901.000000	19.277874
2900.000000	19.352264
2899.000000	19.428918
2898.000000	19.506131
2897.000000	19.582580
2896.000000	19.657519
2895.000000	19.730275
2894.000000	19.800770
2893.000000	19.869940
2892.000000	19.938678
2891.000000	20.006959
2890.000000	20.074761
2889.000000	20.143063
2888.000000	20.213015
2887.000000	20.284799
2886.000000	20.358014
2885.000000	20.432437
2884.000000	20.507613
2883.000000	20.582478
2882.000000	20.656202
2881.000000	20.728763
2880.000000	20.800174
2879.000000	20.870163
2878.000000	20.939436
2877.000000	21.010215
2876.000000	21.084231
2875.000000	21.160625
2874.000000	21.236731
2873.000000	21.310546
2872.000000	21.381851
2871.000000	21.451615
2870.000000	21.521081
2869.000000	21.590985
2868.000000	21.660906
2867.000000	21.729728
2866.000000	21.797144
2865.000000	21.864178
2864.000000	21.932079
2863.000000	22.001488
2862.000000	22.072846
2861.000000	22.146432
2860.000000	22.221450
2859.000000	22.296321
2858.000000	22.370593
2857.000000	22.445542
2856.000000	22.522188
2855.000000	22.599809
2854.000000	22.677161
2853.000000	22.754000
2852.000000	22.830424
2851.000000	22.905471
2850.000000	22.977318
2849.000000	23.044294
2848.000000	23.105348
2847.000000	23.160643
2846.000000	23.212399
2845.000000	23.264201
2844.000000	23.318709
2843.000000	23.376465
2842.000000	23.436964
2841.000000	23.499489
2840.000000	23.562381
2839.000000	23.623265
2838.000000	23.681517
2837.000000	23.739595
2836.000000	23.800784
2835.000000	23.866286
2834.000000	23.935163
2833.000000	24.006068
2832.000000	24.077780
2831.000000	24.148817
2830.000000	24.218034
2829.000000	24.285454
2828.000000	24.351747
2827.000000	24.417288
2826.000000	24.482506
2825.000000	24.548527
2824.000000	24.616472
2823.000000	24.686450
2822.000000	24.758000
2821.000000	24.831041
2820.000000	24.905445
2819.000000	24.980104
2818.000000	25.053284
2817.000000	25.123790
2816.000000	25.191201
2815.000000	25.255502
2814.000000	25.317338
2813.000000	25.378213
2812.000000	25.439516
2811.000000	25.501494
2810.000000	25.563795
2809.000000	25.626651
2808.000000	25.690677
2807.000000	25.755690
2806.000000	25.820443
2805.000000	25.883387
2804.000000	25.943205
2803.000000	25.999007
2802.000000	26.050897
2801.000000	26.100311
2800.000000	26.149127
2799.000000	26.198469
2798.000000	26.248821
2797.000000	26.300869
2796.000000	26.355475
2795.000000	26.412911
2794.000000	26.472627
2793.000000	26.533586
2792.000000	26.594252
2791.000000	26.652525
2790.000000	26.706622
2789.000000	26.756346
2788.000000	26.803289
2787.000000	26.849826
2786.000000	26.898093
2785.000000	26.949392
2784.000000	27.003864
2783.000000	27.060605
2782.000000	27.118376
2781.000000	27.176095
2780.000000	27.232487
2779.000000	27.285823
2778.000000	27.334513
2777.000000	27.377725
2776.000000	27.415210
2775.000000	27.446980
2774.000000	27.473781
2773.000000	27.497474
2772.000000	27.519980
2771.000000	27.541973
2770.000000	27.562923
2769.000000	27.581971
2768.000000	27.598129
2767.000000	27.609835
2766.000000	27.615393
2765.000000	27.614069
2764.000000	27.606372
2763.000000	27.593547
2762.000000	27.577214
2761.000000	27.559376
2760.000000	27.542047
2759.000000	27.526596
2758.000000	27.513704
2757.000000	27.503552
2756.000000	27.495492
2755.000000	27.487790
2754.000000	27.478204
2753.000000	27.464798
2752.000000	27.445962
2751.000000	27.420350
2750.000000	27.387534
2749.000000	27.348396
2748.000000	27.304416
2747.000000	27.256726
2746.000000	27.206285
2745.000000	27.154357
2744.000000	27.101826
2743.000000	27.048617
2742.000000	26.994698
2741.000000	26.941227
2740.000000	26.890083
2739.000000	26.842868
2738.000000	26.801333
2737.000000	26.768712
2736.000000	26.749388
2735.000000	26.747109
2734.000000	26.764472
2733.000000	26.803013
2732.000000	26.862836
2731.000000	26.942159
2730.000000	27.037665
2729.000000	27.146024
2728.000000	27.263944
2727.000000	27.387226
2726.000000	27.511371
2725.000000	27.633235
2724.000000	27.752026
2723.000000	27.868427
2722.000000	27.983169
2721.000000	28.096649
2720.000000	28.208998
2719.000000	28.319827
2718.000000	28.428075
2717.000000	28.532174
2716.000000	28.630056
2715.000000	28.719394
2714.000000	28.798256
2713.000000	28.866011
2712.000000	28.923433
2711.000000	28.971593
2710.000000	29.011564
2709.000000	29.044966
2708.000000	29.074042
2707.000000	29.100781
2706.000000	29.125811
2705.000000	29.148703
2704.000000	29.168714
2703.000000	29.184941
2702.000000	29.196472
2701.000000	29.202698
2700.000000	29.203691
2699.000000	29.200036
2698.000000	29.192584
2697.000000	29.182677
2696.000000	29.172065
2695.000000	29.162398
2694.000000	29.154819
2693.000000	29.149889
2692.000000	29.147430
2691.000000	29.146212
2690.000000	29.144292
2689.000000	29.140041
2688.000000	29.132715
2687.000000	29.122195
2686.000000	29.108700
2685.000000	29.093050
2684.000000	29.076787
2683.000000	29.061659
2682.000000	29.049089
2681.000000	29.040108
2680.000000	29.035240
2679.000000	29.034185
2678.000000	29.035905
2677.000000	29.039189
2676.000000	29.043107
2675.000000	29.046947
2674.000000	29.050218
2673.000000	29.053194
2672.000000	29.057200
2671.000000	29.064250
2670.000000	29.076296
2669.000000	29.094530
2668.000000	29.119062
2667.000000	29.148811
2666.000000	29.181809
2665.000000	29.215695
2664.000000	29.247936
2663.000000	29.276046
2662.000000	29.298083
2661.000000	29.313130
2660.000000	29.321377
2659.000000	29.324006
2658.000000	29.323138
2657.000000	29.321650
2656.000000	29.322399
2655.000000	29.327295
2654.000000	29.337228
2653.000000	29.352583
2652.000000	29.373283
2651.000000	29.398539
2650.000000	29.427294
2649.000000	29.459049
2648.000000	29.494416
2647.000000	29.534778
2646.000000	29.581813
2645.000000	29.637493
2644.000000	29.703409
2643.000000	29.780089
2642.000000	29.866728
2641.000000	29.961396
2640.000000	30.061467
2639.000000	30.163507
2638.000000	30.263695
2637.000000	30.358871
2636.000000	30.447150
2635.000000	30.527594
2634.000000	30.599745
2633.000000	30.663782
2632.000000	30.720877
2631.000000	30.773021
2630.000000	30.822042
2629.000000	30.869164
2628.000000	30.914812
2627.000000	30.958342
2626.000000	30.998302
2625.000000	31.033052
2624.000000	31.061653
2623.000000	31.083964
2622.000000	31.100234
2621.000000	31.111228
2620.000000	31.118254
2619.000000	31.122832
2618.000000	31.126088
2617.000000	31.128435
2616.000000	31.129786
2615.000000	31.129427
2614.000000	31.125978
2613.000000	31.117781
2612.000000	31.103393
2611.000000	31.082081
2610.000000	31.054030
2609.000000	31.020559
2608.000000	30.984111
2607.000000	30.947783
2606.000000	30.914985
2605.000000	30.889322
2604.000000	30.874042
2603.000000	30.871089
2602.000000	30.880962
2601.000000	30.903045
2600.000000	30.936130
2599.000000	30.978433
2598.000000	31.027424
2597.000000	31.080863
2596.000000	31.137482
2595.000000	31.197034
2594.000000	31.259892
2593.000000	31.326455
2592.000000	31.397170
2591.000000	31.472219
2590.000000	31.551231
2589.000000	31.633363
2588.000000	31.717374
2587.000000	31.801757
2586.000000	31.884906
2585.000000	31.965624
2584.000000	32.043604
2583.000000	32.119355
2582.000000	32.193889
2581.000000	32.268585
2580.000000	32.344984
2579.000000	32.424215
2578.000000	32.506534
2577.000000	32.591530
2576.000000	32.678502
2575.000000	32.766377
2574.000000	32.853603
2573.000000	32.938603
2572.000000	33.020325
2571.000000	33.098189
2570.000000	33.171897
2569.000000	33.241633
2568.000000	33.308342
2567.000000	33.373005
2566.000000	33.435757
2565.000000	33.495987
2564.000000	33.552519
2563.000000	33.603502
2562.000000	33.646149
2561.000000	33.677584
2560.000000	33.696199
2559.000000	33.701356
2558.000000	33.693105
2557.000000	33.672707
2556.000000	33.643643
2555.000000	33.611696
2554.000000	33.583589
2553.000000	33.565907
2552.000000	33.564202
2551.000000	33.581897
2550.000000	33.619412
2549.000000	33.675248
2548.000000	33.747025
2547.000000	33.831602
2546.000000	33.925093
2545.000000	34.023304
2544.000000	34.123434
2543.000000	34.224200
2542.000000	34.324812
2541.000000	34.424712
2540.000000	34.523745
2539.000000	34.621918
2538.000000	34.718589
2537.000000	34.812490
2536.000000	34.902332
2535.000000	34.986967
2534.000000	35.065086
2533.000000	35.135914
2532.000000	35.200272
2531.000000	35.259997
2530.000000	35.316746
2529.000000	35.371780
2528.000000	35.426589
2527.000000	35.482565
2526.000000	35.539851
2525.000000	35.597634
2524.000000	35.655245
2523.000000	35.712122
2522.000000	35.767002
2521.000000	35.818309
2520.000000	35.865565
2519.000000	35.909438
2518.000000	35.950539
2517.000000	35.989356
2516.000000	36.027093
2515.000000	36.065426
2514.000000	36.105136
2513.000000	36.145850
2512.000000	36.187093
2511.000000	36.228423
2510.000000	36.268751
2509.000000	36.306725
2508.000000	36.341943
2507.000000	36.374886
2506.000000	36.405668
2505.000000	36.434063
2504.000000	36.460696
2503.000000	36.486942
2502.000000	36.513640
2501.000000	36.540838
2500.000000	36.568791
2499.000000	36.597981
2498.000000	36.628011
2497.000000	36.657608
2496.000000	36.685819
2495.000000	36.712247
2494.000000	36.736228
2493.000000	36.756936
2492.000000	36.774604
2491.000000	36.790548
2490.000000	36.806006
2489.000000	36.821830
2488.000000	36.839060
2487.000000	36.858619
2486.000000	36.880260
2485.000000	36.902754
2484.000000	36.925065
2483.000000	36.946415
2482.000000	36.965594
2481.000000	36.981507
2480.000000	36.994421
2479.000000	37.005644
2478.000000	37.016091
2477.000000	37.026304
2476.000000	37.037443
2475.000000	37.050784
2474.000000	37.066256
2473.000000	37.082717
2472.000000	37.099565
2471.000000	37.116819
2470.000000	37.133737
2469.000000	37.148825
2468.000000	37.161363
2467.000000	37.171796
2466.000000	37.180688
2465.000000	37.188519
2464.000000	37.196480
2463.000000	37.206045
2462.000000	37.217692
2461.000000	37.231106
2460.000000	37.246481
2459.000000	37.264153
2458.000000	37.282981
2457.000000	37.300533
2456.000000	37.315201
2455.000000	37.327084
2454.000000	37.336837
2453.000000	37.344979
2452.000000	37.352456
2451.000000	37.360631
2450.000000	37.370426
2449.000000	37.382315
2448.000000	37.396964
2447.000000	37.414707
2446.000000	37.434409
2445.000000	37.454029
2444.000000	37.472258
2443.000000	37.488697
2442.000000	37.502780
2441.000000	37.513915
2440.000000	37.522696
2439.000000	37.530801
2438.000000	37.539708
2437.000000	37.550431
2436.000000	37.564065
2435.000000	37.581211
2434.000000	37.600938
2433.000000	37.621488
2432.000000	37.641868
2431.000000	37.661600
2430.000000	37.679477
2429.000000	37.694089
2428.000000	37.705555
2427.000000	37.715450
2426.000000	37.725244
2425.000000	37.735973
2424.000000	37.749025
2423.000000	37.765571
2422.000000	37.785308
2421.000000	37.806936
2420.000000	37.829619
2419.000000	37.852711
2418.000000	37.874533
2417.000000	37.893129
2416.000000	37.908194
2415.000000	37.921001
2414.000000	37.932755
2413.000000	37.944414
2412.000000	37.957659
2411.000000	37.974266
2410.000000	37.994542
2409.000000	38.017673
2408.000000	38.043199
2407.000000	38.070720
2406.000000	38.098469
2405.000000	38.123992
2404.000000	38.146229
2403.000000	38.165665
2402.000000	38.182884
2401.000000	38.198606
2400.000000	38.214792
2399.000000	38.233960
2398.000000	38.257301
2397.000000	38.284669
2396.000000	38.315845
2395.000000	38.350230
2394.000000	38.385788
2393.000000	38.420025
2392.000000	38.451907
2391.000000	38.481603
2390.000000	38.509168
2389.000000	38.535016
2388.000000	38.561566
2387.000000	38.592092
2386.000000	38.628457
2385.000000	38.671552
2384.000000	38.722134
2383.000000	38.780536
2382.000000	38.844591
2381.000000	38.910696
2380.000000	38.976830
2379.000000	39.041584
2378.000000	39.102829
2377.000000	39.158656
2376.000000	39.209929
2375.000000	39.259565
2374.000000	39.310223
2373.000000	39.363804
2372.000000	39.422862
2371.000000	39.488851
2370.000000	39.558977
2369.000000	39.629153
2368.000000	39.697821
2367.000000	39.764246
2366.000000	39.825824
2365.000000	39.881344
2364.000000	39.936187
2363.000000	39.991412
2362.000000	40.044640
2361.000000	40.098022
2360.000000	40.152795
2359.000000	40.212883
2358.000000	40.276229
2357.000000	40.337053
2356.000000	40.396491
2355.000000	40.449902
2354.000000	40.499760
2353.000000	40.548928
2352.000000	40.610248
2351.000000	40.687235
2350.000000	40.759424
2349.000000	40.812382
2348.000000	40.850295
2347.000000	40.901158
2346.000000	40.978599
2345.000000	41.061883
2344.000000	41.132474
2343.000000	41.180343
2342.000000	41.222863
2341.000000	41.266505
2340.000000	41.311123
2339.000000	41.356266
2338.000000	41.401213
2337.000000	41.448660
2336.000000	41.497465
2335.000000	41.552783
2334.000000	41.613291
2333.000000	41.680088
2332.000000	41.745338
2331.000000	41.814562
2330.000000	41.877694
2329.000000	41.943104
2328.000000	42.000982
2327.000000	42.058534
2326.000000	42.112279
2325.000000	42.163495
2324.000000	42.214744
2323.000000	42.265218
2322.000000	42.316246
2321.000000	42.364703
2320.000000	42.412411
2319.000000	42.465456
2318.000000	42.523178
2317.000000	42.586776
2316.000000	42.648355
2315.000000	42.712048
2314.000000	42.770310
2313.000000	42.825771
2312.000000	42.871870
2311.000000	42.917502
2310.000000	42.960996
2309.000000	43.007996
2308.000000	43.055178
2307.000000	43.108313
2306.000000	43.164676
2305.000000	43.224478
2304.000000	43.282776
2303.000000	43.341373
2302.000000	43.396404
2301.000000	43.447563
2300.000000	43.491263
2299.000000	43.532267
2298.000000	43.570532
2297.000000	43.609302
2296.000000	43.648204
2295.000000	43.691732
2294.000000	43.739371
2293.000000	43.790057
2292.000000	43.841336
2291.000000	43.893149
2290.000000	43.943483
2289.000000	43.988695
2288.000000	44.027394
2287.000000	44.061207
2286.000000	44.092605
2285.000000	44.122274
2284.000000	44.152995
2283.000000	44.188484
2282.000000	44.230858
2281.000000	44.278149
2280.000000	44.328398
2279.000000	44.380552
2278.000000	44.432513
2277.000000	44.480457
2276.000000	44.521984
2275.000000	44.557826
2274.000000	44.588565
2273.000000	44.614632
2272.000000	44.638334
2271.000000	44.664198
2270.000000	44.694603
2269.000000	44.728913
2268.000000	44.766545
2267.000000	44.807905
2266.000000	44.850949
2265.000000	44.891163
2264.000000	44.925261
2263.000000	44.952894
2262.000000	44.973655
2261.000000	44.986354
2260.000000	44.992804
2259.000000	44.997440
2258.000000	45.003518
2257.000000	45.010910
2256.000000	45.019561
2255.000000	45.030250
2254.000000	45.041311
2253.000000	45.048388
2252.000000	45.047752
2251.000000	45.038230
2250.000000	45.017741
2249.000000	44.984330
2248.000000	44.938259
2247.000000	44.883495
2246.000000	44.823209
2245.000000	44.758465
2244.000000	44.691105
2243.000000	44.623979
2242.000000	44.557023
2241.000000	44.486877
2240.000000	44.411398
2239.000000	44.331684
2238.000000	44.249112
2237.000000	44.164297
2236.000000	44.080187
2235.000000	44.002517
2234.000000	43.935938
2233.000000	43.882102
2232.000000	43.842246
2231.000000	43.817722
2230.000000	43.807001
2229.000000	43.805177
2228.000000	43.807660
2227.000000	43.811813
2226.000000	43.814299
2225.000000	43.810868
2224.000000	43.799947
2223.000000	43.783698
2222.000000	43.764496
2221.000000	43.743450
2220.000000	43.722938
2219.000000	43.706936
2218.000000	43.697412
2217.000000	43.693166
2216.000000	43.692856
2215.000000	43.696042
2214.000000	43.700565
2213.000000	43.702415
2212.000000	43.699508
2211.000000	43.692767
2210.000000	43.682962
2209.000000	43.669867
2208.000000	43.655246
2207.000000	43.643121
2206.000000	43.635890
2205.000000	43.633082
2204.000000	43.634435
2203.000000	43.640586
2202.000000	43.649815
2201.000000	43.657672
2200.000000	43.661113
2199.000000	43.659977
2198.000000	43.653887
2197.000000	43.641403
2196.000000	43.623443
2195.000000	43.603979
2194.000000	43.586096
2193.000000	43.570274
2192.000000	43.557099
2191.000000	43.548031
2190.000000	43.542331
2189.000000	43.536577
2188.000000	43.528391
2187.000000	43.517731
2186.000000	43.503915
2185.000000	43.485248
2184.000000	43.462713
2183.000000	43.440770
2182.000000	43.423244
2181.000000	43.411605
2180.000000	43.407644
2179.000000	43.414068
2178.000000	43.431045
2177.000000	43.455391
2176.000000	43.484337
2175.000000	43.516823
2174.000000	43.550589
2173.000000	43.581738
2172.000000	43.608758
2171.000000	43.633758
2170.000000	43.658766
2169.000000	43.684191
2168.000000	43.711829
2167.000000	43.745442
2166.000000	43.786755
2165.000000	43.833849
2164.000000	43.884398
2163.000000	43.936982
2162.000000	43.988509
2161.000000	44.034317
2160.000000	44.072429
2159.000000	44.104637
2158.000000	44.132734
2157.000000	44.157455
2156.000000	44.181675
2155.000000	44.210366
2154.000000	44.245882
2153.000000	44.286597
2152.000000	44.330853
2151.000000	44.378309
2150.000000	44.426478
2149.000000	44.470319
2148.000000	44.507087
2147.000000	44.537767
2146.000000	44.563349
2145.000000	44.584119
2144.000000	44.603256
2143.000000	44.626587
2142.000000	44.657455
2141.000000	44.695515
2140.000000	44.740928
2139.000000	44.794799
2138.000000	44.854440
2137.000000	44.913163
2136.000000	44.966441
2135.000000	45.014334
2134.000000	45.057153
2133.000000	45.093722
2132.000000	45.125399
2131.000000	45.156992
2130.000000	45.191655
2129.000000	45.229086
2128.000000	45.269786
2127.000000	45.316117
2126.000000	45.367383
2125.000000	45.418635
2124.000000	45.466221
2123.000000	45.509958
2122.000000	45.549021
2121.000000	45.580982
2120.000000	45.606967
2119.000000	45.632762
2118.000000	45.662676
2117.000000	45.696549
2116.000000	45.734214
2115.000000	45.777775
2114.000000	45.827229
2113.000000	45.878400
2112.000000	45.927508
2111.000000	45.973738
2110.000000	46.015663
2109.000000	46.050065
2108.000000	46.076181
2107.000000	46.097201
2106.000000	46.115684
2105.000000	46.131487
2104.000000	46.145828
2103.000000	46.162032
2102.000000	46.180938
2101.000000	46.199335
2100.000000	46.214555
2099.000000	46.226898
2098.000000	46.234865
2097.000000	46.233449
2096.000000	46.220158
2095.000000	46.198757
2094.000000	46.174884
2093.000000	46.151725
2092.000000	46.131618
2091.000000	46.117525
2090.000000	46.110637
2089.000000	46.109779
2088.000000	46.114780
2087.000000	46.127084
2086.000000	46.145822
2085.000000	46.167234
2084.000000	46.189641
2083.000000	46.214835
2082.000000	46.243628
2081.000000	46.274279
2080.000000	46.306458
2079.000000	46.343714
2078.000000	46.388225
2077.000000	46.438801
2076.000000	46.494635
2075.000000	46.556205
2074.000000	46.622688
2073.000000	46.689870
2072.000000	46.752981
2071.000000	46.809647
2070.000000	46.860943
2069.000000	46.912403
2068.000000	46.972075
2067.000000	47.043000
2066.000000	47.119756
2065.000000	47.196445
2064.000000	47.275194
2063.000000	47.361950
2062.000000	47.455997
2061.000000	47.550647
2060.000000	47.642973
2059.000000	47.735350
2058.000000	47.827217
2057.000000	47.914055
2056.000000	47.995227
2055.000000	48.074777
2054.000000	48.154816
2053.000000	48.234137
2052.000000	48.313368
2051.000000	48.395838
2050.000000	48.482519
2049.000000	48.569627
2048.000000	48.653421
2047.000000	48.733772
2046.000000	48.812534
2045.000000	48.892203
2044.000000	48.975984
2043.000000	49.064532
2042.000000	49.153378
2041.000000	49.238260
2040.000000	49.322054
2039.000000	49.411400
2038.000000	49.507522
2037.000000	49.606277
2036.000000	49.706649
2035.000000	49.811372
2034.000000	49.918362
2033.000000	50.021294
2032.000000	50.118207
2031.000000	50.213095
2030.000000	50.307859
2029.000000	50.399719
2028.000000	50.489610
2027.000000	50.582300
2026.000000	50.680230
2025.000000	50.779136
2024.000000	50.872902
2023.000000	50.959299
2022.000000	51.041450
2021.000000	51.128159
2020.000000	51.229776
2019.000000	51.346785
2018.000000	51.466319
2017.000000	51.576020
2016.000000	51.676826
2015.000000	51.777280
2014.000000	51.879831
2013.000000	51.981344
2012.000000	52.084019
2011.000000	52.195261
2010.000000	52.315683
2009.000000	52.437546
2008.000000	52.557895
2007.000000	52.678553
2006.000000	52.798151
2005.000000	52.910101
2004.000000	53.013848
2003.000000	53.117836
2002.000000	53.224603
2001.000000	53.332906
2000.000000	53.443043
1999.000000	53.551326
1998.000000	53.645667
1997.000000	53.722185
1996.000000	53.799890
1995.000000	53.900434
1994.000000	54.014154
1993.000000	54.114395
1992.000000	54.200772
1991.000000	54.295469
1990.000000	54.404032
1989.000000	54.507974
1988.000000	54.596450
1987.000000	54.679573
1986.000000	54.767045
1985.000000	54.853720
1984.000000	54.935190
1983.000000	55.017914
1982.000000	55.101281
1981.000000	55.176900
1980.000000	55.242708
1979.000000	55.305902
1978.000000	55.366904
1977.000000	55.419462
1976.000000	55.466728
1975.000000	55.518390
1974.000000	55.569570
1973.000000	55.602920
1972.000000	55.617412
1971.000000	55.638877
1970.000000	55.692115
1969.000000	55.771130
1968.000000	55.851356
1967.000000	55.920309
1966.000000	55.978402
1965.000000	56.026235
1964.000000	56.067862
1963.000000	56.110684
1962.000000	56.155187
1961.000000	56.195119
1960.000000	56.231084
1959.000000	56.274403
1958.000000	56.330201
1957.000000	56.389641
1956.000000	56.443888
1955.000000	56.492545
1954.000000	56.537538
1953.000000	56.569608
1952.000000	56.582528
1951.000000	56.588223
1950.000000	56.600207
1949.000000	56.614782
1948.000000	56.621917
1947.000000	56.628031
1946.000000	56.656383
1945.000000	56.716351
1944.000000	56.783708
1943.000000	56.834533
1942.000000	56.872936
1941.000000	56.908394
1940.000000	56.940886
1939.000000	56.966654
1938.000000	56.983621
1937.000000	56.996640
1936.000000	57.015299
1935.000000	57.044527
1934.000000	57.083767
1933.000000	57.120992
1932.000000	57.152149
1931.000000	57.186041
1930.000000	57.215837
1929.000000	57.217733
1928.000000	57.172504
1927.000000	57.111670
1926.000000	57.096382
1925.000000	57.145686
1924.000000	57.221899
1923.000000	57.293991
1922.000000	57.358791
1921.000000	57.416123
1920.000000	57.446141
1919.000000	57.433694
1918.000000	57.404117
1917.000000	57.392635
1916.000000	57.396554
1915.000000	57.389238
1914.000000	57.361368
1913.000000	57.331323
1912.000000	57.328876
1911.000000	57.362350
1910.000000	57.410117
1909.000000	57.455174
1908.000000	57.490119
1907.000000	57.523003
1906.000000	57.558923
1905.000000	57.588530
1904.000000	57.608773
1903.000000	57.627694
1902.000000	57.641188
1901.000000	57.635153
1900.000000	57.602322
1899.000000	57.565911
1898.000000	57.559742
1897.000000	57.584456
1896.000000	57.609137
1895.000000	57.613068
1894.000000	57.600057
1893.000000	57.591226
1892.000000	57.602440
1891.000000	57.613570
1890.000000	57.600145
1889.000000	57.573497
1888.000000	57.558406
1887.000000	57.562887
1886.000000	57.572396
1885.000000	57.565063
1884.000000	57.542456
1883.000000	57.524215
1882.000000	57.515988
1881.000000	57.511971
1880.000000	57.510441
1879.000000	57.514134
1878.000000	57.524114
1877.000000	57.534662
1876.000000	57.540654
1875.000000	57.539564
1874.000000	57.511585
1873.000000	57.427473
1872.000000	57.306534
1871.000000	57.213183
1870.000000	57.169193
1869.000000	57.161095
1868.000000	57.188762
1867.000000	57.243299
1866.000000	57.293711
1865.000000	57.313504
1864.000000	57.303329
1863.000000	57.281334
1862.000000	57.257314
1861.000000	57.228601
1860.000000	57.195909
1859.000000	57.165739
1858.000000	57.137818
1857.000000	57.107291
1856.000000	57.076835
1855.000000	57.057538
1854.000000	57.029701
1853.000000	56.975791
1852.000000	56.911571
1851.000000	56.873469
1850.000000	56.875331
1849.000000	56.898223
1848.000000	56.919557
1847.000000	56.920419
1846.000000	56.859736
1845.000000	56.714459
1844.000000	56.559166
1843.000000	56.473101
1842.000000	56.442281
1841.000000	56.419392
1840.000000	56.385014
1839.000000	56.355124
1838.000000	56.337124
1837.000000	56.313496
1836.000000	56.270582
1835.000000	56.200720
1834.000000	56.084011
1833.000000	55.953464
1832.000000	55.866363
1831.000000	55.800594
1830.000000	55.731858
1829.000000	55.677665
1828.000000	55.645702
1827.000000	55.611946
1826.000000	55.536445
1825.000000	55.429098
1824.000000	55.341584
1823.000000	55.285480
1822.000000	55.224175
1821.000000	55.135902
1820.000000	55.033030
1819.000000	54.938349
1818.000000	54.847503
1817.000000	54.737586
1816.000000	54.611246
1815.000000	54.485457
1814.000000	54.381247
1813.000000	54.299074
1812.000000	54.214994
1811.000000	54.126149
1810.000000	54.047487
1809.000000	53.979470
1808.000000	53.913055
1807.000000	53.844969
1806.000000	53.772550
1805.000000	53.686308
1804.000000	53.603693
1803.000000	53.532842
1802.000000	53.454183
1801.000000	53.347652
1800.000000	53.235615
1799.000000	53.166148
1798.000000	53.154581
1797.000000	53.162736
1796.000000	53.148049
1795.000000	53.102266
1794.000000	53.032577
1793.000000	52.920171
1792.000000	52.798630
1791.000000	52.735659
1790.000000	52.731559
1789.000000	52.729658
1788.000000	52.684109
1787.000000	52.581033
1786.000000	52.419063
1785.000000	52.205113
1784.000000	52.006539
1783.000000	51.875385
1782.000000	51.787311
1781.000000	51.683350
1780.000000	51.561988
1779.000000	51.459441
1778.000000	51.363711
1777.000000	51.240773
1776.000000	51.108190
1775.000000	51.035454
1774.000000	51.004927
1773.000000	50.904900
1772.000000	50.738856
1771.000000	50.594814
1770.000000	50.486406
1769.000000	50.361149
1768.000000	50.222287
1767.000000	50.121936
1766.000000	50.066734
1765.000000	50.008790
1764.000000	49.912886
1763.000000	49.754966
1762.000000	49.574149
1761.000000	49.421339
1760.000000	49.319506
1759.000000	49.254023
1758.000000	49.149136
1757.000000	48.976075
1756.000000	48.795458
1755.000000	48.648816
1754.000000	48.486629
1753.000000	48.250738
1752.000000	47.958934
1751.000000	47.715062
1750.000000	47.561504
1749.000000	47.430866
1748.000000	47.291313
1747.000000	47.173098
1746.000000	47.104651
1745.000000	47.061882
1744.000000	46.998299
1743.000000	46.893379
1742.000000	46.758376
1741.000000	46.584530
1740.000000	46.384644
1739.000000	46.213833
1738.000000	46.065969
1737.000000	45.877973
1736.000000	45.605575
1735.000000	45.200830
1734.000000	44.796009
1733.000000	44.527739
1732.000000	44.366856
1731.000000	44.233811
1730.000000	44.060015
1729.000000	43.827877
1728.000000	43.573641
1727.000000	43.324092
1726.000000	43.092552
1725.000000	42.877006
1724.000000	42.666713
1723.000000	42.432599
1722.000000	42.106097
1721.000000	41.674939
1720.000000	41.262342
1719.000000	40.925633
1718.000000	40.619985
1717.000000	40.329858
1716.000000	40.038571
1715.000000	39.742667
1714.000000	39.461697
1713.000000	39.198755
1712.000000	38.942024
1711.000000	38.686766
1710.000000	38.391195
1709.000000	38.084132
1708.000000	37.717441
1707.000000	37.322528
1706.000000	36.945317
1705.000000	36.600537
1704.000000	36.280965
1703.000000	35.946792
1702.000000	35.559774
1701.000000	35.128602
1700.000000	34.743929
1699.000000	34.466938
1698.000000	34.217144
1697.000000	33.931059
1696.000000	33.605119
1695.000000	33.392358
1694.000000	33.064282
1693.000000	32.725667
1692.000000	32.415973
1691.000000	32.086801
1690.000000	31.744398
1689.000000	31.413141
1688.000000	31.122929
1687.000000	30.919818
1686.000000	30.782812
1685.000000	30.431196
1684.000000	29.902336
1683.000000	29.490932
1682.000000	29.263010
1681.000000	29.119951
1680.000000	28.987408
1679.000000	28.846002
1678.000000	28.663946
1677.000000	28.370122
1676.000000	27.961479
1675.000000	27.546983
1674.000000	27.220250
1673.000000	26.966090
1672.000000	26.737613
1671.000000	26.480014
1670.000000	26.161535
1669.000000	25.830297
1668.000000	25.551072
1667.000000	25.331175
1666.000000	25.132175
1665.000000	24.907801
1664.000000	24.630842
1663.000000	24.319338
1662.000000	24.023928
1661.000000	23.769020
1660.000000	23.555526
1659.000000	23.368783
1658.000000	23.182925
1657.000000	22.956695
1656.000000	22.753945
1655.000000	22.585257
1654.000000	22.229961
1653.000000	21.804509
1652.000000	21.494181
1651.000000	21.259515
1650.000000	21.076610
1649.000000	20.958143
1648.000000	20.802058
1647.000000	20.549258
1646.000000	20.291024
1645.000000	20.068128
1644.000000	19.865907
1643.000000	19.683346
1642.000000	19.506484
1641.000000	19.314387
1640.000000	19.111708
1639.000000	18.948507
1638.000000	18.852922
1637.000000	18.710213
1636.000000	18.445686
1635.000000	18.171734
1634.000000	17.974348
1633.000000	17.825882
1632.000000	17.683688
1631.000000	17.537908
1630.000000	17.396343
1629.000000	17.249684
1628.000000	17.094369
1627.000000	16.944880
1626.000000	16.811594
1625.000000	16.682835
1624.000000	16.538997
1623.000000	16.395464
1622.000000	16.272547
1621.000000	16.161035
1620.000000	16.060283
1619.000000	15.996806
1618.000000	15.955540
1617.000000	15.891812
1616.000000	15.809372
1615.000000	15.739811
1614.000000	15.690523
1613.000000	15.641968
1612.000000	15.585251
1611.000000	15.538291
1610.000000	15.515774
1609.000000	15.502499
1608.000000	15.483844
1607.000000	15.467474
1606.000000	15.460249
1605.000000	15.457530
1604.000000	15.456923
1603.000000	15.465345
1602.000000	15.482785
1601.000000	15.495239
1600.000000	15.495679
1599.000000	15.494419
1598.000000	15.503216
1597.000000	15.520027
1596.000000	15.538506
1595.000000	15.560711
1594.000000	15.588886
1593.000000	15.616242
1592.000000	15.638885
1591.000000	15.663778
1590.000000	15.693962
1589.000000	15.720823
1588.000000	15.736694
1587.000000	15.750366
1586.000000	15.766602
1585.000000	15.778017
1584.000000	15.782777
1583.000000	15.787301
1582.000000	15.783892
1581.000000	15.753722
1580.000000	15.702496
1579.000000	15.678101
1578.000000	15.711304
1577.000000	15.752494
1576.000000	15.770292
1575.000000	15.786087
1574.000000	15.805278
1573.000000	15.811150
1572.000000	15.801952
1571.000000	15.786096
1570.000000	15.761208
1569.000000	15.738489
1568.000000	15.728964
1567.000000	15.742247
1566.000000	15.778754
1565.000000	15.840535
1564.000000	15.928943
1563.000000	16.028440
1562.000000	16.043178
1561.000000	16.107760
1560.000000	16.187590
1559.000000	16.198000
1558.000000	16.263181
1557.000000	16.364587
1556.000000	16.464803
1555.000000	16.570263
1554.000000	16.682150
1553.000000	16.805727
1552.000000	16.945410
1551.000000	17.109517
1550.000000	17.293766
1549.000000	17.477255
1548.000000	17.629714
1547.000000	17.760267
1546.000000	17.908876
1545.000000	18.076704
1544.000000	18.211246
1543.000000	18.324314
1542.000000	18.542985
1541.000000	18.843634
1540.000000	19.153394
1539.000000	19.481918
1538.000000	19.783812
1537.000000	20.015559
1536.000000	20.213290
1535.000000	20.435190
1534.000000	20.697979
1533.000000	20.998360
1532.000000	21.310763
1531.000000	21.607807
1530.000000	21.900476
1529.000000	22.213498
1528.000000	22.556851
1527.000000	22.918654
1526.000000	23.276054
1525.000000	23.607529
1524.000000	23.954604
1523.000000	24.378091
1522.000000	24.857000
1521.000000	25.333320
1520.000000	25.749102
1519.000000	26.138851
1518.000000	26.587350
1517.000000	27.089361
1516.000000	27.597761
1515.000000	28.068086
1514.000000	28.484959
1513.000000	28.864525
1512.000000	29.193777
1511.000000	29.451977
1510.000000	29.699682
1509.000000	30.229392
1508.000000	30.938527
1507.000000	31.543369
1506.000000	32.140691
1505.000000	32.706364
1504.000000	33.171827
1503.000000	33.609901
1502.000000	34.053323
1501.000000	34.474537
1500.000000	34.861802
1499.000000	35.262606
1498.000000	35.723743
1497.000000	36.235577
1496.000000	36.758740
1495.000000	37.243841
1494.000000	37.635340
1493.000000	37.910373
1492.000000	38.158650
1491.000000	38.496922
1490.000000	38.940672
1489.000000	39.425850
1488.000000	39.870860
1487.000000	40.265563
1486.000000	40.628421
1485.000000	40.948095
1484.000000	41.232189
1483.000000	41.522267
1482.000000	41.845102
1481.000000	42.173554
1480.000000	42.458443
1479.000000	42.675839
1478.000000	42.838803
1477.000000	42.953469
1476.000000	43.028546
1475.000000	43.126995
1474.000000	43.236193
1473.000000	43.223629
1472.000000	43.082141
1471.000000	42.920768
1470.000000	42.762239
1469.000000	42.535706
1468.000000	42.170780
1467.000000	41.651570
1466.000000	40.935325
1465.000000	40.003060
1464.000000	39.003396
1463.000000	38.112847
1462.000000	37.337048
1461.000000	36.580450
1460.000000	35.849999
1459.000000	35.191636
1458.000000	34.404759
1457.000000	33.382565
1456.000000	32.374848
1455.000000	31.538340
1454.000000	30.760600
1453.000000	29.866552
1452.000000	28.800748
1451.000000	27.617248
1450.000000	26.329474
1449.000000	24.865451
1448.000000	23.230815
1447.000000	21.568309
1446.000000	19.957480
1445.000000	18.354385
1444.000000	16.728250
1443.000000	15.108972
1442.000000	13.515933
1441.000000	11.967819
1440.000000	10.518341
1439.000000	9.175229
1438.000000	7.822268
1437.000000	6.381228
1436.000000	5.055465
1435.000000	4.096658
1434.000000	3.450354
1433.000000	2.933991
1432.000000	2.498687
1431.000000	2.180842
1430.000000	1.958634
1429.000000	1.777365
1428.000000	1.660536
1427.000000	1.651669
1426.000000	1.719727
1425.000000	1.821954
1424.000000	1.988328
1423.000000	2.251506
1422.000000	2.567712
1421.000000	2.909528
1420.000000	3.357513
1419.000000	3.976719
1418.000000	4.669577
1417.000000	5.328860
1416.000000	5.997633
1415.000000	6.747075
1414.000000	7.564579
1413.000000	8.422472
1412.000000	9.351449
1411.000000	10.376706
1410.000000	11.450787
1409.000000	12.521269
1408.000000	13.606302
1407.000000	14.753201
1406.000000	15.967998
1405.000000	17.229470
1404.000000	18.513826
1403.000000	19.768065
1402.000000	20.945925
1401.000000	22.091242
1400.000000	23.300171
1399.000000	24.583001
1398.000000	25.857223
1397.000000	27.093098
1396.000000	28.349881
1395.000000	29.658435
1394.000000	30.965855
1393.000000	32.209393
1392.000000	33.375735
1391.000000	34.468896
1390.000000	35.498232
1389.000000	36.508646
1388.000000	37.535718
1387.000000	38.542238
1386.000000	39.448806
1385.000000	40.216066
1384.000000	40.847574
1383.000000	41.338100
1382.000000	41.675846
1381.000000	41.858801
1380.000000	41.875134
1379.000000	41.688169
1378.000000	41.270200
1377.000000	40.627530
1376.000000	39.751858
1375.000000	38.563730
1374.000000	37.014328
1373.000000	35.201401
1372.000000	33.282162
1371.000000	31.373112
1370.000000	29.577596
1369.000000	28.046785
1368.000000	26.960722
1367.000000	26.429104
1366.000000	26.455266
1365.000000	27.003301
1364.000000	28.027881
1363.000000	29.421200
1362.000000	30.996850
1361.000000	32.566585
1360.000000	34.013799
1359.000000	35.287570
1358.000000	36.362315
1357.000000	37.216209
1356.000000	37.820623
1355.000000	38.133355
1354.000000	38.120293
1353.000000	37.770125
1352.000000	37.088529
1351.000000	36.084915
1350.000000	34.764851
1349.000000	33.144506
1348.000000	31.252490
1347.000000	29.125053
1346.000000	26.802391
1345.000000	24.336249
1344.000000	21.806449
1343.000000	19.310982
1342.000000	16.933760
1341.000000	14.730708
1340.000000	12.761578
1339.000000	11.115268
1338.000000	9.863982
1337.000000	9.001444
1336.000000	8.455429
1335.000000	8.128966
1334.000000	7.907887
1333.000000	7.671166
1332.000000	7.320946
1331.000000	6.807410
1330.000000	6.132169
1329.000000	5.336224
1328.000000	4.488934
1327.000000	3.669402
1326.000000	2.936969
1325.000000	2.318854
1324.000000	1.824463
1323.000000	1.456350
1322.000000	1.201211
1321.000000	1.030445
1320.000000	0.920926
1319.000000	0.860200
1318.000000	0.832125
1317.000000	0.814628
1316.000000	0.795142
1315.000000	0.774731
1314.000000	0.752351
1313.000000	0.721846
1312.000000	0.686178
1311.000000	0.657348
1310.000000	0.640165
1309.000000	0.630432
1308.000000	0.630545
1307.000000	0.651137
1306.000000	0.695617
1305.000000	0.758904
1304.000000	0.841917
1303.000000	0.952171
1302.000000	1.089199
1301.000000	1.243867
1300.000000	1.414210
1299.000000	1.605980
1298.000000	1.817920
1297.000000	2.041945
1296.000000	2.276825
1295.000000	2.528068
1294.000000	2.793820
1293.000000	3.065167
1292.000000	3.339415
1291.000000	3.618876
1290.000000	3.897173
1289.000000	4.159772
1288.000000	4.396226
1287.000000	4.599379
1286.000000	4.756356
1285.000000	4.855005
1284.000000	4.901617
1283.000000	4.922994
1282.000000	4.951617
1281.000000	5.017065
1280.000000	5.146938
1279.000000	5.358936
1278.000000	5.648994
1277.000000	5.998753
1276.000000	6.392806
1275.000000	6.821539
1274.000000	7.272823
1273.000000	7.733572
1272.000000	8.199278
1271.000000	8.670050
1270.000000	9.140577
1269.000000	9.603803
1268.000000	10.060470
1267.000000	10.515322
1266.000000	10.966864
1265.000000	11.409967
1264.000000	11.845147
1263.000000	12.277268
1262.000000	12.707079
1261.000000	13.131853
1260.000000	13.551613
1259.000000	13.967378
1258.000000	14.377123
1257.000000	14.779355
1256.000000	15.177224
1255.000000	15.573842
1254.000000	15.967564
1253.000000	16.356582
1252.000000	16.743284
1251.000000	17.129723
1250.000000	17.512905
1249.000000	17.888818
1248.000000	18.257870
1247.000000	18.622192
1246.000000	18.981630
1245.000000	19.335864
1244.000000	19.686370
1243.000000	20.033724
1242.000000	20.376220
1241.000000	20.713539
1240.000000	21.048058
1239.000000	21.380469
1238.000000	21.708438
1237.000000	22.030632
1236.000000	22.348125
1235.000000	22.661105
1234.000000	22.967956
1233.000000	23.269071
1232.000000	23.567432
1231.000000	23.864649
1230.000000	24.160502
1229.000000	24.456299
1228.000000	24.754718
1227.000000	25.056088
1226.000000	25.358407
1225.000000	25.660747
1224.000000	25.962772
1223.000000	26.262272
1222.000000	26.557279
1221.000000	26.849411
1220.000000	27.141580
1219.000000	27.433442
1218.000000	27.722912
1217.000000	28.010181
1216.000000	28.296306
1215.000000	28.580441
1214.000000	28.861834
1213.000000	29.142303
1212.000000	29.422753
1211.000000	29.700048
1210.000000	29.971668
1209.000000	30.239773
1208.000000	30.506887
1207.000000	30.771603
1206.000000	31.032524
1205.000000	31.292244
1204.000000	31.552434
1203.000000	31.809539
1202.000000	32.060058
1201.000000	32.304813
1200.000000	32.544378
1199.000000	32.774252
1198.000000	32.988997
1197.000000	33.186996
1196.000000	33.364603
1195.000000	33.512544
1194.000000	33.620658
1193.000000	33.681114
1192.000000	33.685888
1191.000000	33.626217
1190.000000	33.503683
1189.000000	33.337892
1188.000000	33.161119
1187.000000	33.010392
1186.000000	32.923675
1185.000000	32.932162
1184.000000	33.047873
1183.000000	33.260545
1182.000000	33.546272
1181.000000	33.879977
1180.000000	34.237508
1179.000000	34.596259
1178.000000	34.944132
1177.000000	35.281080
1176.000000	35.609445
1175.000000	35.927415
1174.000000	36.234332
1173.000000	36.534286
1172.000000	36.829605
1171.000000	37.117052
1170.000000	37.394683
1169.000000	37.665529
1168.000000	37.929880
1167.000000	38.182877
1166.000000	38.423578
1165.000000	38.658891
1164.000000	38.894594
1163.000000	39.130058
1162.000000	39.366286
1161.000000	39.609228
1160.000000	39.860285
1159.000000	40.112438
1158.000000	40.359593
1157.000000	40.601470
1156.000000	40.835268
1155.000000	41.052942
1154.000000	41.252356
1153.000000	41.441108
1152.000000	41.625617
1151.000000	41.806007
1150.000000	41.985257
1149.000000	42.172398
1148.000000	42.370699
1147.000000	42.573093
1146.000000	42.773549
1145.000000	42.972174
1144.000000	43.165673
1143.000000	43.344226
1142.000000	43.503646
1141.000000	43.650450
1140.000000	43.790585
1139.000000	43.924747
1138.000000	44.057636
1137.000000	44.199651
1136.000000	44.354329
1135.000000	44.514671
1134.000000	44.675962
1133.000000	44.840343
1132.000000	45.005270
1131.000000	45.160513
1130.000000	45.301663
1129.000000	45.435262
1128.000000	45.566406
1127.000000	45.693653
1126.000000	45.820247
1125.000000	45.956477
1124.000000	46.105908
1123.000000	46.261260
1122.000000	46.417925
1121.000000	46.578722
1120.000000	46.741173
1119.000000	46.894333
1118.000000	47.033347
1117.000000	47.164272
1116.000000	47.290656
1115.000000	47.409037
1114.000000	47.522263
1113.000000	47.642163
1112.000000	47.773378
1111.000000	47.909112
1110.000000	48.045331
1109.000000	48.185970
1108.000000	48.329442
1107.000000	48.464101
1106.000000	48.583697
1105.000000	48.691864
1104.000000	48.788372
1103.000000	48.865473
1102.000000	48.923817
1101.000000	48.974641
1100.000000	49.024258
1099.000000	49.069777
1098.000000	49.113094
1097.000000	49.165586
1096.000000	49.231802
1095.000000	49.304660
1094.000000	49.380090
1093.000000	49.461593
1092.000000	49.546107
1091.000000	49.621544
1090.000000	49.683264
1089.000000	49.738575
1088.000000	49.791506
1087.000000	49.838634
1086.000000	49.883061
1085.000000	49.936032
1084.000000	50.000004
1083.000000	50.065233
1082.000000	50.125147
1081.000000	50.179902
1080.000000	50.221310
1079.000000	50.230818
1078.000000	50.198949
1077.000000	50.128207
1076.000000	50.016307
1075.000000	49.852511
1074.000000	49.632022
1073.000000	49.361022
1072.000000	49.039052
1071.000000	48.656006
1070.000000	48.208356
1069.000000	47.700775
1068.000000	47.135254
1067.000000	46.511440
1066.000000	45.844422
1065.000000	45.168738
1064.000000	44.523319
1063.000000	43.943694
1062.000000	43.469501
1061.000000	43.140823
1060.000000	42.977961
1059.000000	42.979159
1058.000000	43.129928
1057.000000	43.411794
1056.000000	43.798030
1055.000000	44.251306
1054.000000	44.742364
1053.000000	45.254174
1052.000000	45.769968
1051.000000	46.269722
1050.000000	46.743233
1049.000000	47.195476
1048.000000	47.630419
1047.000000	48.044079
1046.000000	48.437208
1045.000000	48.819454
1044.000000	49.193448
1043.000000	49.550237
1042.000000	49.884645
1041.000000	50.200541
1040.000000	50.498087
1039.000000	50.769404
1038.000000	51.013693
1037.000000	51.241744
1036.000000	51.460035
1035.000000	51.666595
1034.000000	51.865276
1033.000000	52.069168
1032.000000	52.284415
1031.000000	52.504423
1030.000000	52.724654
1029.000000	52.947110
1028.000000	53.166895
1027.000000	53.370645
1026.000000	53.553265
1025.000000	53.721847
1024.000000	53.879324
1023.000000	54.020891
1022.000000	54.150608
1021.000000	54.283859
1020.000000	54.429201
1019.000000	54.582805
1018.000000	54.743725
1017.000000	54.917487
1016.000000	55.099883
1015.000000	55.274599
1014.000000	55.431546
1013.000000	55.572459
1012.000000	55.696033
1011.000000	55.795650
1010.000000	55.876373
1009.000000	55.956991
1008.000000	56.050265
1007.000000	56.156361
1006.000000	56.277290
1005.000000	56.419769
1004.000000	56.579224
1003.000000	56.737174
1002.000000	56.879767
1001.000000	57.004497
1000.000000	57.107396
999.000000	57.181285
998.000000	57.231404
997.000000	57.276941
996.000000	57.332572
995.000000	57.402289
994.000000	57.491984
993.000000	57.609840
992.000000	57.749970
991.000000	57.891573
990.000000	58.018860
989.000000	58.128124
988.000000	58.213929
987.000000	58.267736
986.000000	58.294663
985.000000	58.315180
984.000000	58.345256
983.000000	58.388979
982.000000	58.451795
981.000000	58.542078
980.000000	58.654846
979.000000	58.770367
978.000000	58.873537
977.000000	58.960479
976.000000	59.025155
975.000000	59.058388
974.000000	59.065240
973.000000	59.065716
972.000000	59.074129
971.000000	59.092247
970.000000	59.123954
969.000000	59.177932
968.000000	59.250972
967.000000	59.325765
966.000000	59.390116
965.000000	59.443525
964.000000	59.482847
963.000000	59.500000
962.000000	59.498463
961.000000	59.494891
960.000000	59.499212
959.000000	59.509008
958.000000	59.525015
957.000000	59.554109
956.000000	59.593067
955.000000	59.627063
954.000000	59.649291
953.000000	59.665810
952.000000	59.678263
951.000000	59.679442
950.000000	59.670030
949.000000	59.661968
948.000000	59.660362
947.000000	59.658183
946.000000	59.652493
945.000000	59.648256
944.000000	59.643077
943.000000	59.625693
942.000000	59.594141
941.000000	59.559194
940.000000	59.526206
939.000000	59.490829
938.000000	59.454760
937.000000	59.427411
936.000000	59.407698
935.000000	59.381276
934.000000	59.340042
933.000000	59.287950
932.000000	59.224742
931.000000	59.142897
930.000000	59.044410
929.000000	58.943569
928.000000	58.848604
927.000000	58.755920
926.000000	58.665177
925.000000	58.581170
924.000000	58.497754
923.000000	58.397356
922.000000	58.270656
921.000000	58.121751
920.000000	57.951196
919.000000	57.752602
918.000000	57.529441
917.000000	57.296475
916.000000	57.061690
915.000000	56.821372
914.000000	56.574989
913.000000	56.327486
912.000000	56.072163
911.000000	55.790537
910.000000	55.472211
909.000000	55.120263
908.000000	54.735512
907.000000	54.311364
906.000000	53.849552
905.000000	53.362324
904.000000	52.855221
903.000000	52.323936
902.000000	51.768038
901.000000	51.193423
900.000000	50.597516
899.000000	49.966419
898.000000	49.292029
897.000000	48.575518
896.000000	47.814242
895.000000	46.999618
894.000000	46.129916
893.000000	45.214060
892.000000	44.256956
891.000000	43.256455
890.000000	42.215190
889.000000	41.141535
888.000000	40.038872
887.000000	38.901986
886.000000	37.727592
885.000000	36.518063
884.000000	35.272705
883.000000	33.987371
882.000000	32.663269
881.000000	31.309683
880.000000	29.936801
879.000000	28.553029
878.000000	27.169920
877.000000	25.802556
876.000000	24.463162
875.000000	23.157781
874.000000	21.892162
873.000000	20.674160
872.000000	19.511365
871.000000	18.408446
870.000000	17.366782
869.000000	16.390055
868.000000	15.483335
867.000000	14.650410
866.000000	13.893264
865.000000	13.211429
864.000000	12.604758
863.000000	12.069738
862.000000	11.598708
861.000000	11.184728
860.000000	10.821702
859.000000	10.503219
858.000000	10.220465
857.000000	9.966120
856.000000	9.738245
855.000000	9.535621
854.000000	9.356078
853.000000	9.199200
852.000000	9.068354
851.000000	8.968073
850.000000	8.899797
849.000000	8.864823
848.000000	8.866207
847.000000	8.905285
846.000000	8.980859
845.000000	9.091965
844.000000	9.241736
843.000000	9.434873
842.000000	9.673878
841.000000	9.962035
840.000000	10.303492
839.000000	10.701330
838.000000	11.155334
837.000000	11.664074
836.000000	12.226485
835.000000	12.838243
834.000000	13.486656
833.000000	14.145951
832.000000	14.763222
831.000000	15.214538
830.000000	15.268353
829.000000	14.625367
828.000000	13.102772
827.000000	10.878664
826.000000	8.545790
825.000000	6.838451
824.000000	6.213095
823.000000	6.640045
822.000000	7.755725
821.000000	9.172759
820.000000	10.644510
819.000000	12.052608
818.000000	13.355382
817.000000	14.555475
816.000000	15.676689
815.000000	16.734865
814.000000	17.737120
813.000000	18.696201
812.000000	19.623840
811.000000	20.515421
810.000000	21.358990
809.000000	22.154387
808.000000	22.906274
807.000000	23.612186
806.000000	24.272387
805.000000	24.903422
804.000000	25.523510
803.000000	26.132691
802.000000	26.725077
801.000000	27.308190
800.000000	27.894406
799.000000	28.484016
798.000000	29.072548
797.000000	29.664148
796.000000	30.260825
795.000000	30.850151
794.000000	31.419503
793.000000	31.971328
792.000000	32.511158
791.000000	33.033995
790.000000	33.537034
789.000000	34.032197
788.000000	34.531347
787.000000	35.032153
786.000000	35.530965
785.000000	36.034663
784.000000	36.546258
783.000000	37.052880
782.000000	37.541835
781.000000	38.014848
780.000000	38.474137
779.000000	38.910444
778.000000	39.318344
777.000000	39.708909
776.000000	40.094045
775.000000	40.472927
774.000000	40.845699
773.000000	41.223461
772.000000	41.611964
771.000000	42.000774
770.000000	42.380213
769.000000	42.753146
768.000000	43.118019
767.000000	43.458782
766.000000	43.765390
765.000000	44.047314
764.000000	44.315169
763.000000	44.566898
762.000000	44.805030
761.000000	45.048106
760.000000	45.310084
759.000000	45.585193
758.000000	45.865053
757.000000	46.152231
756.000000	46.443765
755.000000	46.720631
754.000000	46.968857
753.000000	47.194118
752.000000	47.404011
751.000000	47.595703
750.000000	47.773565
749.000000	47.958606
748.000000	48.165991
747.000000	48.391307
746.000000	48.629879
745.000000	48.887851
744.000000	49.160467
743.000000	49.421473
742.000000	49.649627
741.000000	49.846732
740.000000	50.017403
739.000000	50.154800
738.000000	50.261313
737.000000	50.359925
736.000000	50.468865
735.000000	50.584744
734.000000	50.703432
733.000000	50.833492
732.000000	50.974178
731.000000	51.103590
730.000000	51.204589
729.000000	51.280790
728.000000	51.336085
727.000000	51.363789
726.000000	51.370330
725.000000	51.386460
724.000000	51.438194
723.000000	51.527518
722.000000	51.654610
721.000000	51.833536
720.000000	52.068211
719.000000	52.337212
718.000000	52.620480
717.000000	52.917497
716.000000	53.223543
715.000000	53.515885
714.000000	53.781907
713.000000	54.035563
712.000000	54.289622
711.000000	54.537657
710.000000	54.780232
709.000000	55.038952
708.000000	55.326856
707.000000	55.631299
706.000000	55.939660
705.000000	56.254759
704.000000	56.568118
703.000000	56.846347
702.000000	57.067903
701.000000	57.246906
700.000000	57.401597
699.000000	57.532912
698.000000	57.650255
697.000000	57.786594
696.000000	57.963964
695.000000	58.169210
694.000000	58.387188
693.000000	58.623264
692.000000	58.869754
691.000000	59.090091
690.000000	59.259979
689.000000	59.393183
688.000000	59.502504
687.000000	59.571944
686.000000	59.601620
685.000000	59.635942
684.000000	59.712050
683.000000	59.821613
682.000000	59.951789
681.000000	60.117246
680.000000	60.315009
679.000000	60.496152
678.000000	60.622918
677.000000	60.700199
676.000000	60.734642
675.000000	60.719546
674.000000	60.674525
673.000000	60.659431
672.000000	60.724248
671.000000	60.875566
670.000000	61.107154
669.000000	61.403718
668.000000	61.638841
667.000000	61.708407
666.000000	61.695287
665.000000	61.667327
664.000000	61.627491
663.000000	61.580203
662.000000	61.534290
661.000000	61.510379
660.000000	61.528865
659.000000	61.606906
658.000000	61.756192
657.000000	61.970688
656.000000	62.228525
655.000000	62.512451
654.000000	62.805671
653.000000	63.083368
652.000000	63.328431
651.000000	63.542240
650.000000	63.736603
649.000000	63.921940
648.000000	64.109291
647.000000	64.314923
646.000000	64.552884
645.000000	64.827019
644.000000	65.125577
643.000000	65.424663
642.000000	65.704852
641.000000	65.957878
640.000000	66.176794
639.000000	66.352563
638.000000	66.485325
637.000000	66.591725
636.000000	66.694841
635.000000	66.809828
634.000000	66.944987
633.000000	67.105080
632.000000	67.285304
631.000000	67.471692
630.000000	67.652868
629.000000	67.822150
628.000000	67.968802
627.000000	68.081029
626.000000	68.158805
625.000000	68.210304
624.000000	68.230400
623.000000	68.206919
622.000000	68.153851
621.000000	68.111274
620.000000	68.106016
619.000000	68.136096
618.000000	68.198037
617.000000	68.299292
616.000000	68.429369
615.000000	68.546175
614.000000	68.607107
613.000000	68.593354
612.000000	68.493241
611.000000	68.290642
610.000000	67.984007
609.000000	67.589614
608.000000	67.113290
607.000000	66.524397
606.000000	65.761714
605.000000	64.723015
604.000000	63.227815
603.000000	61.021645
602.000000	57.824852
601.000000	53.442585
600.000000	47.931771
599.000000	41.775501
598.000000	35.856686
597.000000	31.146192
596.000000	28.336854
595.000000	27.639621
594.000000	28.779391
593.000000	31.174023
592.000000	34.221975
591.000000	37.446430
590.000000	40.518460
589.000000	43.282887
588.000000	45.718551
587.000000	47.856005
586.000000	49.722043
585.000000	51.339846
584.000000	52.737041
583.000000	53.954914
582.000000	55.054087
581.000000	56.096478
580.000000	57.099682
579.000000	58.023018
578.000000	58.830874
577.000000	59.532894
576.000000	60.144541
575.000000	60.647516
574.000000	61.024688
573.000000	61.305656
572.000000	61.541060
571.000000	61.767035
570.000000	62.017389
569.000000	62.329658
568.000000	62.710168
567.000000	63.116052
566.000000	63.498448
565.000000	63.843648
564.000000	64.148392
563.000000	64.393548
562.000000	64.572619
561.000000	64.716331
560.000000	64.860301
559.000000	65.014957
558.000000	65.189606
557.000000	65.411378
556.000000	65.692720
555.000000	66.005200
554.000000	66.313035
553.000000	66.606450
552.000000	66.879973
551.000000	67.110699
550.000000	67.288750
549.000000	67.438698
548.000000	67.586056
547.000000	67.734686
546.000000	67.894168
545.000000	68.089483
544.000000	68.320783
543.000000	68.554105
542.000000	68.771704
541.000000	68.993248
540.000000	69.225420
539.000000	69.437058
538.000000	69.609531
537.000000	69.767780
536.000000	69.929734
535.000000	70.071076
534.000000	70.174300
533.000000	70.266544
532.000000	70.376844
531.000000	70.498987
530.000000	70.626165
529.000000	70.774683
528.000000	70.943577
527.000000	71.101654
526.000000	71.233926
525.000000	71.344987
524.000000	71.404787
523.000000	71.338213
522.000000	71.094907
521.000000	70.691501
520.000000	70.166737
519.000000	69.544944
518.000000	68.872241
517.000000	68.235332
516.000000	67.703422
515.000000	67.293562
514.000000	67.011412
513.000000	66.869209
512.000000	66.829758
511.000000	66.782366
510.000000	66.614868
509.000000	66.274757
508.000000	65.728137
507.000000	64.924051
506.000000	63.837450
505.000000	62.491517
504.000000	60.918564
503.000000	59.193132
502.000000	57.532171
501.000000	56.242262
500.000000	55.521618
499.000000	55.378917
498.000000	55.730788
497.000000	56.457752
496.000000	57.380397
495.000000	58.285834
494.000000	59.027535
493.000000	59.589982
492.000000	60.027117
491.000000	60.394062
490.000000	60.758779
489.000000	61.204561
488.000000	61.768638
487.000000	62.419172
486.000000	63.121699
485.000000	63.885034
484.000000	64.707992
483.000000	65.539710
482.000000	66.345203
481.000000	67.147463
480.000000	67.957400
479.000000	68.727067
478.000000	69.409362
477.000000	70.001998
476.000000	70.490083
475.000000	70.809253
474.000000	70.948128
473.000000	71.024276
472.000000	71.127787
471.000000	71.209918
470.000000	71.234521
469.000000	71.269362
468.000000	71.382305
467.000000	71.540352
466.000000	71.670120
465.000000	71.756869
464.000000	71.803764
463.000000	71.790517
462.000000	71.735749
461.000000	71.705595
460.000000	71.690941
459.000000	71.595763
458.000000	71.428280
457.000000	71.322202
456.000000	71.339364
455.000000	71.416292
454.000000	71.485837
453.000000	71.563194
452.000000	71.648700
451.000000	71.623863
450.000000	71.356868
449.000000	70.832977
448.000000	70.108950
447.000000	69.193683
446.000000	68.059191
445.000000	66.688327
444.000000	65.044152
443.000000	63.065516
442.000000	60.740275
441.000000	58.157377
440.000000	55.448106
439.000000	52.727076
438.000000	50.138844
437.000000	47.945273
436.000000	46.454702
435.000000	45.836593
434.000000	46.050199
433.000000	46.974263
432.000000	48.524689
431.000000	50.561826
430.000000	52.857117
429.000000	55.225054
428.000000	57.551861
427.000000	59.703256
426.000000	61.570581
425.000000	63.186845
424.000000	64.630088
423.000000	65.866401
422.000000	66.855753
421.000000	67.673486
420.000000	68.468014
419.000000	69.423014
418.000000	70.419584
417.000000	71.245162
416.000000	71.949707
415.000000	72.505290
414.000000	72.827169
413.000000	73.017761
412.000000	73.210829
411.000000	73.347344
410.000000	73.366376
409.000000	73.459476
408.000000	73.793844
407.000000	74.193388
406.000000	74.515133
405.000000	74.828922
404.000000	75.206207
403.000000	75.425253
402.000000	75.275992
401.000000	74.914712
400.000000	74.560431
