PE IR       SUBTECH     SPECTRUM    ASCII       PEDS        4.00        
   -1
23ms246,269,248_nitrito.asc
24/09/02
16:54:03.00
24/09/02
16:54:03.00
Administrator
Sample 1083 By Administrator Date Monday, September 02 2024
400.000000
#HDR
-1
-1
#GR
cm-1
%T
1.0
0.0
4000.000000
-1.000000
3601
8
85.715284
6.187954
#DATA
4000.000000	64.948887
3999.000000	65.005120
3998.000000	65.058917
3997.000000	65.110043
3996.000000	65.159244
3995.000000	65.208072
3994.000000	65.258378
3993.000000	65.311376
3992.000000	65.366861
3991.000000	65.423447
3990.000000	65.479843
3989.000000	65.535707
3988.000000	65.591181
3987.000000	65.646100
3986.000000	65.700119
3985.000000	65.753441
3984.000000	65.806920
3983.000000	65.861456
3982.000000	65.917452
3981.000000	65.974666
3980.000000	66.032341
3979.000000	66.089435
3978.000000	66.144711
3977.000000	66.197137
3976.000000	66.246753
3975.000000	66.295016
3974.000000	66.343897
3973.000000	66.394615
3972.000000	66.447266
3971.000000	66.501032
3970.000000	66.554610
3969.000000	66.607025
3968.000000	66.658213
3967.000000	66.708789
3966.000000	66.759609
3965.000000	66.811262
3964.000000	66.863937
3963.000000	66.917486
3962.000000	66.971117
3961.000000	67.023473
3960.000000	67.073601
3959.000000	67.121277
3958.000000	67.166793
3957.000000	67.211177
3956.000000	67.256213
3955.000000	67.303413
3954.000000	67.353413
3953.000000	67.406042
3952.000000	67.460786
3951.000000	67.516589
3950.000000	67.571780
3949.000000	67.625171
3948.000000	67.676232
3947.000000	67.725610
3946.000000	67.775320
3945.000000	67.826775
3944.000000	67.879248
3943.000000	67.931275
3942.000000	67.983068
3941.000000	68.035629
3940.000000	68.088606
3939.000000	68.140558
3938.000000	68.191707
3937.000000	68.245429
3936.000000	68.306166
3935.000000	68.374394
3934.000000	68.443947
3933.000000	68.506020
3932.000000	68.556393
3931.000000	68.597951
3930.000000	68.636735
3929.000000	68.677149
3928.000000	68.721394
3927.000000	68.770358
3926.000000	68.822981
3925.000000	68.876965
3924.000000	68.933173
3923.000000	68.994977
3922.000000	69.061770
3921.000000	69.127835
3920.000000	69.188149
3919.000000	69.242634
3918.000000	69.292138
3917.000000	69.334100
3916.000000	69.368092
3915.000000	69.400487
3914.000000	69.439232
3913.000000	69.486242
3912.000000	69.538756
3911.000000	69.594728
3910.000000	69.653982
3909.000000	69.715493
3908.000000	69.778235
3907.000000	69.842381
3906.000000	69.909598
3905.000000	69.979049
3904.000000	70.047200
3903.000000	70.110272
3902.000000	70.163048
3901.000000	70.199871
3900.000000	70.219887
3899.000000	70.231685
3898.000000	70.251325
3897.000000	70.288576
3896.000000	70.341549
3895.000000	70.403322
3894.000000	70.468317
3893.000000	70.531867
3892.000000	70.589845
3891.000000	70.639456
3890.000000	70.685546
3889.000000	70.737892
3888.000000	70.801897
3887.000000	70.870080
3886.000000	70.927219
3885.000000	70.970635
3884.000000	71.014316
3883.000000	71.064797
3882.000000	71.112681
3881.000000	71.149080
3880.000000	71.180084
3879.000000	71.219690
3878.000000	71.274070
3877.000000	71.337840
3876.000000	71.400959
3875.000000	71.455223
3874.000000	71.502670
3873.000000	71.554942
3872.000000	71.618430
3871.000000	71.680307
3870.000000	71.721689
3869.000000	71.747526
3868.000000	71.781914
3867.000000	71.834743
3866.000000	71.891892
3865.000000	71.936246
3864.000000	71.973118
3863.000000	72.019503
3862.000000	72.075194
3861.000000	72.128899
3860.000000	72.176294
3859.000000	72.216816
3858.000000	72.249350
3857.000000	72.277911
3856.000000	72.318777
3855.000000	72.377025
3854.000000	72.425882
3853.000000	72.451236
3852.000000	72.475558
3851.000000	72.515187
3850.000000	72.567785
3849.000000	72.629784
3848.000000	72.702543
3847.000000	72.788149
3846.000000	72.880591
3845.000000	72.968051
3844.000000	73.044620
3843.000000	73.110451
3842.000000	73.167376
3841.000000	73.217306
3840.000000	73.260302
3839.000000	73.297636
3838.000000	73.335441
3837.000000	73.376409
3836.000000	73.418275
3835.000000	73.458660
3834.000000	73.499926
3833.000000	73.545877
3832.000000	73.596219
3831.000000	73.650713
3830.000000	73.711421
3829.000000	73.776636
3828.000000	73.841289
3827.000000	73.901318
3826.000000	73.958169
3825.000000	74.020378
3824.000000	74.095403
3823.000000	74.174180
3822.000000	74.232947
3821.000000	74.262804
3820.000000	74.286290
3819.000000	74.322833
3818.000000	74.368128
3817.000000	74.408122
3816.000000	74.435416
3815.000000	74.462790
3814.000000	74.508103
3813.000000	74.568306
3812.000000	74.627342
3811.000000	74.682251
3810.000000	74.743957
3809.000000	74.819245
3808.000000	74.897929
3807.000000	74.963752
3806.000000	75.016876
3805.000000	75.069558
3804.000000	75.123831
3803.000000	75.170467
3802.000000	75.202228
3801.000000	75.230730
3800.000000	75.279978
3799.000000	75.349805
3798.000000	75.417728
3797.000000	75.469536
3796.000000	75.511156
3795.000000	75.556885
3794.000000	75.612001
3793.000000	75.669471
3792.000000	75.722212
3791.000000	75.773122
3790.000000	75.829098
3789.000000	75.890845
3788.000000	75.953334
3787.000000	76.012565
3786.000000	76.068101
3785.000000	76.121804
3784.000000	76.176877
3783.000000	76.238233
3782.000000	76.306532
3781.000000	76.373013
3780.000000	76.427379
3779.000000	76.471256
3778.000000	76.514924
3777.000000	76.563530
3776.000000	76.614654
3775.000000	76.665353
3774.000000	76.718325
3773.000000	76.779510
3772.000000	76.849993
3771.000000	76.920576
3770.000000	76.982894
3769.000000	77.040464
3768.000000	77.099396
3767.000000	77.156815
3766.000000	77.206868
3765.000000	77.250474
3764.000000	77.297878
3763.000000	77.359009
3762.000000	77.430914
3761.000000	77.499459
3760.000000	77.556601
3759.000000	77.612529
3758.000000	77.675560
3757.000000	77.735934
3756.000000	77.785256
3755.000000	77.829381
3754.000000	77.878680
3753.000000	77.932905
3752.000000	77.985062
3751.000000	78.039627
3750.000000	78.102031
3749.000000	78.159517
3748.000000	78.201029
3747.000000	78.237778
3746.000000	78.287742
3745.000000	78.346612
3744.000000	78.404287
3743.000000	78.476954
3742.000000	78.572395
3741.000000	78.669712
3740.000000	78.753392
3739.000000	78.833444
3738.000000	78.924622
3737.000000	79.016246
3736.000000	79.086235
3735.000000	79.133801
3734.000000	79.175948
3733.000000	79.216598
3732.000000	79.250319
3731.000000	79.284670
3730.000000	79.331465
3729.000000	79.392347
3728.000000	79.459879
3727.000000	79.524795
3726.000000	79.585895
3725.000000	79.649416
3724.000000	79.715635
3723.000000	79.776970
3722.000000	79.831582
3721.000000	79.885672
3720.000000	79.941486
3719.000000	79.997360
3718.000000	80.051717
3717.000000	80.103040
3716.000000	80.154790
3715.000000	80.211203
3714.000000	80.271333
3713.000000	80.328538
3712.000000	80.380973
3711.000000	80.438298
3710.000000	80.504175
3709.000000	80.570278
3708.000000	80.630993
3707.000000	80.687813
3706.000000	80.744764
3705.000000	80.804563
3704.000000	80.865976
3703.000000	80.925710
3702.000000	80.982271
3701.000000	81.039012
3700.000000	81.098019
3699.000000	81.158388
3698.000000	81.217916
3697.000000	81.272947
3696.000000	81.325137
3695.000000	81.382191
3694.000000	81.446618
3693.000000	81.509593
3692.000000	81.563657
3691.000000	81.613519
3690.000000	81.669552
3689.000000	81.731774
3688.000000	81.790524
3687.000000	81.841916
3686.000000	81.890589
3685.000000	81.940307
3684.000000	81.990767
3683.000000	82.044091
3682.000000	82.101392
3681.000000	82.156176
3680.000000	82.197774
3679.000000	82.226716
3678.000000	82.260850
3677.000000	82.311169
3676.000000	82.363777
3675.000000	82.413049
3674.000000	82.468911
3673.000000	82.525896
3672.000000	82.569911
3671.000000	82.593827
3670.000000	82.606677
3669.000000	82.632993
3668.000000	82.679654
3667.000000	82.726507
3666.000000	82.760945
3665.000000	82.788395
3664.000000	82.819487
3663.000000	82.859889
3662.000000	82.905212
3661.000000	82.944182
3660.000000	82.969742
3659.000000	82.983053
3658.000000	82.989601
3657.000000	82.994488
3656.000000	83.004961
3655.000000	83.030495
3654.000000	83.070782
3653.000000	83.113833
3652.000000	83.145511
3651.000000	83.157999
3650.000000	83.155873
3649.000000	83.153393
3648.000000	83.150292
3647.000000	83.136321
3646.000000	83.113340
3645.000000	83.090158
3644.000000	83.069314
3643.000000	83.049765
3642.000000	83.031261
3641.000000	83.015151
3640.000000	83.003221
3639.000000	82.993720
3638.000000	82.984039
3637.000000	82.973710
3636.000000	82.963943
3635.000000	82.952512
3634.000000	82.933457
3633.000000	82.905484
3632.000000	82.873694
3631.000000	82.842714
3630.000000	82.808714
3629.000000	82.773010
3628.000000	82.755266
3627.000000	82.759377
3626.000000	82.761593
3625.000000	82.744174
3624.000000	82.711003
3623.000000	82.673802
3622.000000	82.637071
3621.000000	82.593982
3620.000000	82.540330
3619.000000	82.488769
3618.000000	82.453739
3617.000000	82.429630
3616.000000	82.402210
3615.000000	82.364239
3614.000000	82.317381
3613.000000	82.269380
3612.000000	82.227191
3611.000000	82.189648
3610.000000	82.148958
3609.000000	82.100286
3608.000000	82.050178
3607.000000	82.010243
3606.000000	81.980260
3605.000000	81.949154
3604.000000	81.908858
3603.000000	81.859869
3602.000000	81.807771
3601.000000	81.756641
3600.000000	81.707455
3599.000000	81.659759
3598.000000	81.610533
3597.000000	81.556348
3596.000000	81.500779
3595.000000	81.451197
3594.000000	81.410811
3593.000000	81.376784
3592.000000	81.342973
3591.000000	81.304955
3590.000000	81.260775
3589.000000	81.210243
3588.000000	81.158705
3587.000000	81.115652
3586.000000	81.079289
3585.000000	81.035740
3584.000000	80.976494
3583.000000	80.906061
3582.000000	80.833238
3581.000000	80.763108
3580.000000	80.697281
3579.000000	80.635880
3578.000000	80.577172
3577.000000	80.518227
3576.000000	80.458537
3575.000000	80.400926
3574.000000	80.347898
3573.000000	80.299845
3572.000000	80.255783
3571.000000	80.212981
3570.000000	80.167240
3569.000000	80.112994
3568.000000	80.049685
3567.000000	79.986343
3566.000000	79.931760
3565.000000	79.881262
3564.000000	79.825397
3563.000000	79.760662
3562.000000	79.688937
3561.000000	79.613668
3560.000000	79.538869
3559.000000	79.467893
3558.000000	79.400952
3557.000000	79.335831
3556.000000	79.270935
3555.000000	79.206131
3554.000000	79.140840
3553.000000	79.074583
3552.000000	79.009427
3551.000000	78.947768
3550.000000	78.888851
3549.000000	78.830079
3548.000000	78.770936
3547.000000	78.712756
3546.000000	78.654075
3545.000000	78.590010
3544.000000	78.517173
3543.000000	78.436473
3542.000000	78.350478
3541.000000	78.262287
3540.000000	78.176355
3539.000000	78.096614
3538.000000	78.022191
3537.000000	77.947952
3536.000000	77.871393
3535.000000	77.794398
3534.000000	77.719141
3533.000000	77.644855
3532.000000	77.570033
3531.000000	77.494274
3530.000000	77.417555
3529.000000	77.340686
3528.000000	77.266867
3527.000000	77.199452
3526.000000	77.136388
3525.000000	77.070031
3524.000000	76.994222
3523.000000	76.909813
3522.000000	76.821698
3521.000000	76.733483
3520.000000	76.646410
3519.000000	76.561009
3518.000000	76.477644
3517.000000	76.396508
3516.000000	76.317785
3515.000000	76.239824
3514.000000	76.158580
3513.000000	76.070953
3512.000000	75.977971
3511.000000	75.883319
3510.000000	75.790025
3509.000000	75.699408
3508.000000	75.612008
3507.000000	75.527220
3506.000000	75.442514
3505.000000	75.355170
3504.000000	75.264726
3503.000000	75.171604
3502.000000	75.074183
3501.000000	74.970884
3500.000000	74.863563
3499.000000	74.755576
3498.000000	74.647190
3497.000000	74.536933
3496.000000	74.426183
3495.000000	74.317891
3494.000000	74.211240
3493.000000	74.102085
3492.000000	73.988422
3491.000000	73.871780
3490.000000	73.753697
3489.000000	73.634360
3488.000000	73.514456
3487.000000	73.395072
3486.000000	73.275332
3485.000000	73.153369
3484.000000	73.030210
3483.000000	72.909072
3482.000000	72.790415
3481.000000	72.669755
3480.000000	72.541288
3479.000000	72.402358
3478.000000	72.254703
3477.000000	72.103864
3476.000000	71.957034
3475.000000	71.818830
3474.000000	71.688628
3473.000000	71.563064
3472.000000	71.439764
3471.000000	71.316043
3470.000000	71.186228
3469.000000	71.044469
3468.000000	70.889826
3467.000000	70.726276
3466.000000	70.558573
3465.000000	70.390610
3464.000000	70.226333
3463.000000	70.067946
3462.000000	69.913059
3461.000000	69.756154
3460.000000	69.593263
3459.000000	69.423734
3458.000000	69.248795
3457.000000	69.071098
3456.000000	68.894428
3455.000000	68.720547
3454.000000	68.547532
3453.000000	68.372781
3452.000000	68.196674
3451.000000	68.020632
3450.000000	67.842928
3449.000000	67.660117
3448.000000	67.471829
3447.000000	67.281061
3446.000000	67.089623
3445.000000	66.895955
3444.000000	66.697742
3443.000000	66.494355
3442.000000	66.287080
3441.000000	66.079412
3440.000000	65.875694
3439.000000	65.676995
3438.000000	65.478981
3437.000000	65.275326
3436.000000	65.062187
3435.000000	64.838204
3434.000000	64.603354
3433.000000	64.360023
3432.000000	64.112850
3431.000000	63.864618
3430.000000	63.613594
3429.000000	63.357492
3428.000000	63.097956
3427.000000	62.838081
3426.000000	62.577717
3425.000000	62.314128
3424.000000	62.045131
3423.000000	61.768847
3422.000000	61.482697
3421.000000	61.186623
3420.000000	60.885585
3419.000000	60.585229
3418.000000	60.286852
3417.000000	59.988609
3416.000000	59.688924
3415.000000	59.385411
3414.000000	59.072824
3413.000000	58.746793
3412.000000	58.407943
3411.000000	58.059663
3410.000000	57.703605
3409.000000	57.340240
3408.000000	56.972152
3407.000000	56.602771
3406.000000	56.232949
3405.000000	55.861364
3404.000000	55.486384
3403.000000	55.105027
3402.000000	54.711978
3401.000000	54.302931
3400.000000	53.878430
3399.000000	53.442537
3398.000000	52.999871
3397.000000	52.555065
3396.000000	52.111414
3395.000000	51.667238
3394.000000	51.215451
3393.000000	50.749737
3392.000000	50.269593
3391.000000	49.777723
3390.000000	49.276352
3389.000000	48.767631
3388.000000	48.254518
3387.000000	47.737960
3386.000000	47.215437
3385.000000	46.685223
3384.000000	46.148815
3383.000000	45.607532
3382.000000	45.059940
3381.000000	44.504891
3380.000000	43.944293
3379.000000	43.379908
3378.000000	42.810452
3377.000000	42.234256
3376.000000	41.651778
3375.000000	41.063781
3374.000000	40.469715
3373.000000	39.869930
3372.000000	39.266793
3371.000000	38.661282
3370.000000	38.051826
3369.000000	37.437501
3368.000000	36.819226
3367.000000	36.196888
3366.000000	35.569057
3365.000000	34.937129
3364.000000	34.305452
3363.000000	33.675900
3362.000000	33.046423
3361.000000	32.416282
3360.000000	31.788410
3359.000000	31.164746
3358.000000	30.543402
3357.000000	29.922559
3356.000000	29.303051
3355.000000	28.685434
3354.000000	28.068663
3353.000000	27.453492
3352.000000	26.843371
3351.000000	26.240493
3350.000000	25.644260
3349.000000	25.054520
3348.000000	24.472407
3347.000000	23.896805
3346.000000	23.324793
3345.000000	22.756415
3344.000000	22.195057
3343.000000	21.642575
3342.000000	21.098059
3341.000000	20.562256
3340.000000	20.038157
3339.000000	19.526192
3338.000000	19.023685
3337.000000	18.529483
3336.000000	18.045191
3335.000000	17.571131
3334.000000	17.105706
3333.000000	16.649859
3332.000000	16.206776
3331.000000	15.777050
3330.000000	15.358310
3329.000000	14.949596
3328.000000	14.552425
3327.000000	14.166683
3326.000000	13.790914
3325.000000	13.426558
3324.000000	13.076759
3323.000000	12.741510
3322.000000	12.418000
3321.000000	12.105660
3320.000000	11.806428
3319.000000	11.519385
3318.000000	11.241624
3317.000000	10.973141
3316.000000	10.716384
3315.000000	10.471126
3314.000000	10.234341
3313.000000	10.005469
3312.000000	9.786380
3311.000000	9.576347
3310.000000	9.372852
3309.000000	9.176592
3308.000000	8.991438
3307.000000	8.819230
3306.000000	8.659068
3305.000000	8.511491
3304.000000	8.377038
3303.000000	8.252156
3302.000000	8.131389
3301.000000	8.013440
3300.000000	7.900701
3299.000000	7.793275
3298.000000	7.689088
3297.000000	7.589090
3296.000000	7.496434
3295.000000	7.411233
3294.000000	7.331043
3293.000000	7.256345
3292.000000	7.190293
3291.000000	7.132639
3290.000000	7.079722
3289.000000	7.029670
3288.000000	6.983198
3287.000000	6.939791
3286.000000	6.897765
3285.000000	6.858195
3284.000000	6.823520
3283.000000	6.793063
3282.000000	6.764373
3281.000000	6.737980
3280.000000	6.716210
3279.000000	6.697911
3278.000000	6.679576
3277.000000	6.660958
3276.000000	6.644472
3275.000000	6.629904
3274.000000	6.614810
3273.000000	6.599977
3272.000000	6.589454
3271.000000	6.585114
3270.000000	6.585557
3269.000000	6.589632
3268.000000	6.596595
3267.000000	6.603688
3266.000000	6.608129
3265.000000	6.611128
3264.000000	6.615880
3263.000000	6.622336
3262.000000	6.628255
3261.000000	6.633900
3260.000000	6.641162
3259.000000	6.649274
3258.000000	6.656086
3257.000000	6.662657
3256.000000	6.671740
3255.000000	6.682854
3254.000000	6.693319
3253.000000	6.703173
3252.000000	6.714323
3251.000000	6.726012
3250.000000	6.735991
3249.000000	6.745267
3248.000000	6.756916
3247.000000	6.770847
3246.000000	6.784342
3245.000000	6.796914
3244.000000	6.810335
3243.000000	6.824513
3242.000000	6.837928
3241.000000	6.851201
3240.000000	6.865957
3239.000000	6.880842
3238.000000	6.892936
3237.000000	6.902283
3236.000000	6.911295
3235.000000	6.920819
3234.000000	6.930678
3233.000000	6.942608
3232.000000	6.958236
3231.000000	6.975302
3230.000000	6.990055
3229.000000	7.002269
3228.000000	7.013993
3227.000000	7.025087
3226.000000	7.034206
3225.000000	7.042677
3224.000000	7.052762
3223.000000	7.063362
3222.000000	7.071675
3221.000000	7.077986
3220.000000	7.084583
3219.000000	7.091261
3218.000000	7.096141
3217.000000	7.099646
3216.000000	7.103427
3215.000000	7.106716
3214.000000	7.107787
3213.000000	7.107741
3212.000000	7.108554
3211.000000	7.108830
3210.000000	7.105684
3209.000000	7.099523
3208.000000	7.092934
3207.000000	7.086238
3206.000000	7.078063
3205.000000	7.069017
3204.000000	7.060535
3203.000000	7.051578
3202.000000	7.040331
3201.000000	7.027692
3200.000000	7.015327
3199.000000	7.001879
3198.000000	6.985170
3197.000000	6.966379
3196.000000	6.948036
3195.000000	6.929658
3194.000000	6.909415
3193.000000	6.888206
3192.000000	6.867977
3191.000000	6.847676
3190.000000	6.825253
3189.000000	6.801847
3188.000000	6.779802
3187.000000	6.758159
3186.000000	6.734325
3185.000000	6.708745
3184.000000	6.683759
3183.000000	6.659482
3182.000000	6.634803
3181.000000	6.610697
3180.000000	6.588441
3179.000000	6.566258
3178.000000	6.541844
3177.000000	6.516664
3176.000000	6.493692
3175.000000	6.472621
3174.000000	6.451294
3173.000000	6.430010
3172.000000	6.410344
3171.000000	6.391488
3170.000000	6.371813
3169.000000	6.352444
3168.000000	6.335395
3167.000000	6.319842
3166.000000	6.304085
3165.000000	6.289257
3164.000000	6.277217
3163.000000	6.266746
3162.000000	6.255683
3161.000000	6.244900
3160.000000	6.236232
3159.000000	6.228522
3158.000000	6.219699
3157.000000	6.210703
3156.000000	6.203499
3155.000000	6.197380
3154.000000	6.191345
3153.000000	6.187954
3152.000000	6.190295
3151.000000	6.196997
3150.000000	6.204282
3149.000000	6.211209
3148.000000	6.219014
3147.000000	6.227281
3146.000000	6.235020
3145.000000	6.243706
3144.000000	6.255016
3143.000000	6.267343
3142.000000	6.278404
3141.000000	6.289719
3140.000000	6.304634
3139.000000	6.323508
3138.000000	6.344614
3137.000000	6.367794
3136.000000	6.393405
3135.000000	6.419538
3134.000000	6.444059
3133.000000	6.468097
3132.000000	6.493973
3131.000000	6.521570
3130.000000	6.549981
3129.000000	6.580428
3128.000000	6.614121
3127.000000	6.649231
3126.000000	6.683494
3125.000000	6.717625
3124.000000	6.752804
3123.000000	6.787471
3122.000000	6.820350
3121.000000	6.854124
3120.000000	6.892167
3119.000000	6.933711
3118.000000	6.976269
3117.000000	7.020513
3116.000000	7.068683
3115.000000	7.120111
3114.000000	7.172131
3113.000000	7.223757
3112.000000	7.275015
3111.000000	7.324867
3110.000000	7.373388
3109.000000	7.423802
3108.000000	7.478724
3107.000000	7.536328
3106.000000	7.593505
3105.000000	7.650404
3104.000000	7.708315
3103.000000	7.765868
3102.000000	7.821445
3101.000000	7.877147
3100.000000	7.936302
3099.000000	7.998614
3098.000000	8.061567
3097.000000	8.124680
3096.000000	8.188681
3095.000000	8.252528
3094.000000	8.314999
3093.000000	8.377609
3092.000000	8.442525
3091.000000	8.509204
3090.000000	8.576133
3089.000000	8.643809
3088.000000	8.712892
3087.000000	8.781757
3086.000000	8.849247
3085.000000	8.917673
3084.000000	8.989516
3083.000000	9.063250
3082.000000	9.135938
3081.000000	9.207854
3080.000000	9.281274
3079.000000	9.356749
3078.000000	9.433995
3077.000000	9.514227
3076.000000	9.597992
3075.000000	9.682649
3074.000000	9.765465
3073.000000	9.847244
3072.000000	9.929850
3071.000000	10.012347
3070.000000	10.093190
3069.000000	10.174068
3068.000000	10.257821
3067.000000	10.344338
3066.000000	10.431830
3065.000000	10.520463
3064.000000	10.611258
3063.000000	10.703182
3062.000000	10.794680
3061.000000	10.886416
3060.000000	10.979465
3059.000000	11.072589
3058.000000	11.164324
3057.000000	11.255976
3056.000000	11.349473
3055.000000	11.444079
3054.000000	11.538314
3053.000000	11.633202
3052.000000	11.730536
3051.000000	11.829574
3050.000000	11.928381
3049.000000	12.026776
3048.000000	12.125224
3047.000000	12.222739
3046.000000	12.318726
3045.000000	12.415055
3044.000000	12.513655
3043.000000	12.613911
3042.000000	12.714851
3041.000000	12.817541
3040.000000	12.922435
3039.000000	13.026749
3038.000000	13.127653
3037.000000	13.226225
3036.000000	13.325497
3035.000000	13.426456
3034.000000	13.528561
3033.000000	13.631971
3032.000000	13.736340
3031.000000	13.839460
3030.000000	13.940007
3029.000000	14.039693
3028.000000	14.140258
3027.000000	14.240680
3026.000000	14.340040
3025.000000	14.440498
3024.000000	14.544151
3023.000000	14.649135
3022.000000	14.752122
3021.000000	14.852714
3020.000000	14.952342
3019.000000	15.050817
3018.000000	15.147279
3017.000000	15.242872
3016.000000	15.339387
3015.000000	15.436806
3014.000000	15.534887
3013.000000	15.635442
3012.000000	15.740050
3011.000000	15.847196
3010.000000	15.954229
3009.000000	16.060563
3008.000000	16.166480
3007.000000	16.270899
3006.000000	16.373006
3005.000000	16.474334
3004.000000	16.576535
3003.000000	16.678648
3002.000000	16.778958
3001.000000	16.877791
3000.000000	16.976341
2999.000000	17.074671
2998.000000	17.173087
2997.000000	17.273174
2996.000000	17.375050
2995.000000	17.476001
2994.000000	17.574521
2993.000000	17.673371
2992.000000	17.775729
2991.000000	17.880555
2990.000000	17.984724
2989.000000	18.087633
2988.000000	18.190521
2987.000000	18.293188
2986.000000	18.394577
2985.000000	18.495124
2984.000000	18.595596
2983.000000	18.695105
2982.000000	18.793024
2981.000000	18.891262
2980.000000	18.991900
2979.000000	19.094032
2978.000000	19.195658
2977.000000	19.297126
2976.000000	19.400046
2975.000000	19.504276
2974.000000	19.608606
2973.000000	19.712927
2972.000000	19.817257
2971.000000	19.920170
2970.000000	20.020756
2969.000000	20.120637
2968.000000	20.221546
2967.000000	20.322602
2966.000000	20.422331
2965.000000	20.521548
2964.000000	20.621569
2963.000000	20.721391
2962.000000	20.819456
2961.000000	20.916426
2960.000000	21.013495
2959.000000	21.109806
2958.000000	21.204189
2957.000000	21.297606
2956.000000	21.391177
2955.000000	21.483906
2954.000000	21.575135
2953.000000	21.667009
2952.000000	21.761387
2951.000000	21.856203
2950.000000	21.948243
2949.000000	22.037789
2948.000000	22.127622
2947.000000	22.219102
2946.000000	22.312279
2945.000000	22.408188
2944.000000	22.507580
2943.000000	22.608393
2942.000000	22.707389
2941.000000	22.803605
2940.000000	22.897854
2939.000000	22.990287
2938.000000	23.080978
2937.000000	23.171522
2936.000000	23.263282
2935.000000	23.354993
2934.000000	23.444556
2933.000000	23.531919
2932.000000	23.618063
2931.000000	23.702784
2930.000000	23.786121
2929.000000	23.870242
2928.000000	23.957062
2927.000000	24.045303
2926.000000	24.132543
2925.000000	24.218460
2924.000000	24.303600
2923.000000	24.386793
2922.000000	24.466894
2921.000000	24.545428
2920.000000	24.624726
2919.000000	24.705025
2918.000000	24.785899
2917.000000	24.868615
2916.000000	24.954012
2915.000000	25.039590
2914.000000	25.121714
2913.000000	25.199658
2912.000000	25.275110
2911.000000	25.349059
2910.000000	25.421935
2909.000000	25.495506
2908.000000	25.571851
2907.000000	25.650808
2906.000000	25.730507
2905.000000	25.809641
2904.000000	25.887470
2903.000000	25.962900
2902.000000	26.035726
2901.000000	26.107593
2900.000000	26.180483
2899.000000	26.254316
2898.000000	26.328092
2897.000000	26.401502
2896.000000	26.473899
2895.000000	26.543366
2894.000000	26.608982
2893.000000	26.672632
2892.000000	26.736667
2891.000000	26.801207
2890.000000	26.865512
2889.000000	26.930282
2888.000000	26.996313
2887.000000	27.062295
2886.000000	27.126103
2885.000000	27.187062
2884.000000	27.244926
2883.000000	27.298317
2882.000000	27.346491
2881.000000	27.391412
2880.000000	27.435859
2879.000000	27.480584
2878.000000	27.525313
2877.000000	27.570815
2876.000000	27.617351
2875.000000	27.662275
2874.000000	27.702142
2873.000000	27.736763
2872.000000	27.769345
2871.000000	27.803524
2870.000000	27.842250
2869.000000	27.888243
2868.000000	27.942717
2867.000000	28.004016
2866.000000	28.069513
2865.000000	28.138146
2864.000000	28.209667
2863.000000	28.282743
2862.000000	28.356059
2861.000000	28.430334
2860.000000	28.507255
2859.000000	28.587272
2858.000000	28.670164
2857.000000	28.756396
2856.000000	28.845778
2855.000000	28.935991
2854.000000	29.024563
2853.000000	29.111374
2852.000000	29.197565
2851.000000	29.283202
2850.000000	29.367930
2849.000000	29.452498
2848.000000	29.537560
2847.000000	29.622002
2846.000000	29.704375
2845.000000	29.784849
2844.000000	29.864052
2843.000000	29.941347
2842.000000	30.016226
2841.000000	30.090219
2840.000000	30.165284
2839.000000	30.241272
2838.000000	30.316677
2837.000000	30.390865
2836.000000	30.463632
2835.000000	30.533835
2834.000000	30.600672
2833.000000	30.665598
2832.000000	30.730999
2831.000000	30.797633
2830.000000	30.864992
2829.000000	30.933061
2828.000000	31.001773
2827.000000	31.069577
2826.000000	31.134572
2825.000000	31.196482
2824.000000	31.256047
2823.000000	31.313470
2822.000000	31.369260
2821.000000	31.425594
2820.000000	31.484672
2819.000000	31.546241
2818.000000	31.608279
2817.000000	31.669295
2816.000000	31.728377
2815.000000	31.784173
2814.000000	31.836060
2813.000000	31.885825
2812.000000	31.936351
2811.000000	31.989155
2810.000000	32.044566
2809.000000	32.103123
2808.000000	32.164634
2807.000000	32.226681
2806.000000	32.286135
2805.000000	32.341902
2804.000000	32.394699
2803.000000	32.445123
2802.000000	32.493906
2801.000000	32.543222
2800.000000	32.595482
2799.000000	32.650909
2798.000000	32.707812
2797.000000	32.764645
2796.000000	32.820274
2795.000000	32.873135
2794.000000	32.922304
2793.000000	32.969120
2792.000000	33.016132
2791.000000	33.064729
2790.000000	33.115098
2789.000000	33.167522
2788.000000	33.221711
2787.000000	33.275492
2786.000000	33.326150
2785.000000	33.373002
2784.000000	33.417259
2783.000000	33.460097
2782.000000	33.502432
2781.000000	33.545815
2780.000000	33.591376
2779.000000	33.638038
2778.000000	33.683381
2777.000000	33.726035
2776.000000	33.766069
2775.000000	33.803816
2774.000000	33.840058
2773.000000	33.876849
2772.000000	33.916291
2771.000000	33.958603
2770.000000	34.002558
2769.000000	34.047116
2768.000000	34.091218
2767.000000	34.132860
2766.000000	34.170361
2765.000000	34.204356
2764.000000	34.237146
2763.000000	34.270566
2762.000000	34.305736
2761.000000	34.343896
2760.000000	34.385402
2759.000000	34.428264
2758.000000	34.469402
2757.000000	34.507186
2756.000000	34.541656
2755.000000	34.573200
2754.000000	34.602771
2753.000000	34.632752
2752.000000	34.665594
2751.000000	34.701721
2750.000000	34.739996
2749.000000	34.779479
2748.000000	34.819166
2747.000000	34.856884
2746.000000	34.890625
2745.000000	34.920852
2744.000000	34.949869
2743.000000	34.979326
2742.000000	35.009762
2741.000000	35.041882
2740.000000	35.076194
2739.000000	35.111567
2738.000000	35.145877
2737.000000	35.178060
2736.000000	35.208286
2735.000000	35.236760
2734.000000	35.264014
2733.000000	35.291855
2732.000000	35.322097
2731.000000	35.354431
2730.000000	35.386939
2729.000000	35.418359
2728.000000	35.448399
2727.000000	35.476454
2726.000000	35.501917
2725.000000	35.525708
2724.000000	35.549859
2723.000000	35.575630
2722.000000	35.603170
2721.000000	35.632396
2720.000000	35.662627
2719.000000	35.691759
2718.000000	35.717559
2717.000000	35.739797
2716.000000	35.760015
2715.000000	35.779791
2714.000000	35.800586
2713.000000	35.824426
2712.000000	35.852629
2711.000000	35.883890
2710.000000	35.915072
2709.000000	35.943627
2708.000000	35.968200
2707.000000	35.987889
2706.000000	36.002994
2705.000000	36.016201
2704.000000	36.031033
2703.000000	36.048967
2702.000000	36.069218
2701.000000	36.090576
2700.000000	36.111785
2699.000000	36.130614
2698.000000	36.144729
2697.000000	36.153864
2696.000000	36.159800
2695.000000	36.164509
2694.000000	36.169622
2693.000000	36.177025
2692.000000	36.187934
2691.000000	36.201175
2690.000000	36.213917
2689.000000	36.224118
2688.000000	36.231148
2687.000000	36.234773
2686.000000	36.235315
2685.000000	36.234647
2684.000000	36.235252
2683.000000	36.238056
2682.000000	36.242323
2681.000000	36.247148
2680.000000	36.251633
2679.000000	36.254123
2678.000000	36.253182
2677.000000	36.249520
2676.000000	36.245633
2675.000000	36.243623
2674.000000	36.244476
2673.000000	36.248910
2672.000000	36.257196
2671.000000	36.268352
2670.000000	36.280957
2669.000000	36.294714
2668.000000	36.310412
2667.000000	36.328802
2666.000000	36.351004
2665.000000	36.379324
2664.000000	36.415686
2663.000000	36.459605
2662.000000	36.508635
2661.000000	36.560511
2660.000000	36.613745
2659.000000	36.666805
2658.000000	36.718922
2657.000000	36.771384
2656.000000	36.826566
2655.000000	36.885763
2654.000000	36.948747
2653.000000	37.014869
2652.000000	37.082851
2651.000000	37.149963
2650.000000	37.213174
2649.000000	37.271328
2648.000000	37.325260
2647.000000	37.376365
2646.000000	37.426323
2645.000000	37.477441
2644.000000	37.531321
2643.000000	37.587024
2642.000000	37.641839
2641.000000	37.693624
2640.000000	37.741195
2639.000000	37.783501
2638.000000	37.820423
2637.000000	37.854329
2636.000000	37.888941
2635.000000	37.926250
2634.000000	37.965784
2633.000000	38.006379
2632.000000	38.046970
2631.000000	38.085818
2630.000000	38.120831
2629.000000	38.151321
2628.000000	38.178353
2627.000000	38.203415
2626.000000	38.227937
2625.000000	38.253612
2624.000000	38.281539
2623.000000	38.310778
2622.000000	38.338988
2621.000000	38.364656
2620.000000	38.387635
2619.000000	38.408139
2618.000000	38.426810
2617.000000	38.445618
2616.000000	38.467015
2615.000000	38.491875
2614.000000	38.519228
2613.000000	38.547640
2612.000000	38.575467
2611.000000	38.600318
2610.000000	38.620166
2609.000000	38.635339
2608.000000	38.648187
2607.000000	38.660700
2606.000000	38.673644
2605.000000	38.687237
2604.000000	38.700844
2603.000000	38.712036
2602.000000	38.717566
2601.000000	38.715991
2600.000000	38.708286
2599.000000	38.696377
2598.000000	38.682650
2597.000000	38.670397
2596.000000	38.662829
2595.000000	38.661119
2594.000000	38.664579
2593.000000	38.672544
2592.000000	38.685022
2591.000000	38.701812
2590.000000	38.723045
2589.000000	38.750778
2588.000000	38.787974
2587.000000	38.836276
2586.000000	38.895348
2585.000000	38.964266
2584.000000	39.041978
2583.000000	39.125910
2582.000000	39.212622
2581.000000	39.300034
2580.000000	39.388296
2579.000000	39.478652
2578.000000	39.572195
2577.000000	39.669946
2576.000000	39.772182
2575.000000	39.877372
2574.000000	39.982898
2573.000000	40.086892
2572.000000	40.188635
2571.000000	40.287590
2570.000000	40.383683
2569.000000	40.478678
2568.000000	40.575506
2567.000000	40.675713
2566.000000	40.778398
2565.000000	40.881622
2564.000000	40.983375
2563.000000	41.081351
2562.000000	41.173616
2561.000000	41.260431
2560.000000	41.344457
2559.000000	41.428607
2558.000000	41.514619
2557.000000	41.603379
2556.000000	41.694796
2555.000000	41.786838
2554.000000	41.875903
2553.000000	41.959147
2552.000000	42.035816
2551.000000	42.106532
2550.000000	42.172981
2549.000000	42.238335
2548.000000	42.306210
2547.000000	42.378020
2546.000000	42.452036
2545.000000	42.525433
2544.000000	42.595658
2543.000000	42.660013
2542.000000	42.715935
2541.000000	42.762930
2540.000000	42.803474
2539.000000	42.840819
2538.000000	42.876904
2537.000000	42.912359
2536.000000	42.946500
2535.000000	42.976844
2534.000000	42.999366
2533.000000	43.010727
2532.000000	43.009902
2531.000000	42.997342
2530.000000	42.974734
2529.000000	42.945394
2528.000000	42.913495
2527.000000	42.881877
2526.000000	42.851164
2525.000000	42.821723
2524.000000	42.794771
2523.000000	42.771488
2522.000000	42.752634
2521.000000	42.740126
2520.000000	42.737245
2519.000000	42.746701
2518.000000	42.769375
2517.000000	42.804607
2516.000000	42.850995
2515.000000	42.905646
2514.000000	42.964872
2513.000000	43.026679
2512.000000	43.091244
2511.000000	43.159331
2510.000000	43.230816
2509.000000	43.305291
2508.000000	43.382374
2507.000000	43.460318
2506.000000	43.535803
2505.000000	43.605886
2504.000000	43.669553
2503.000000	43.727153
2502.000000	43.779992
2501.000000	43.830846
2500.000000	43.883239
2499.000000	43.938923
2498.000000	43.996634
2497.000000	44.053837
2496.000000	44.108111
2495.000000	44.156757
2494.000000	44.197194
2493.000000	44.229068
2492.000000	44.255300
2491.000000	44.280041
2490.000000	44.306652
2489.000000	44.337619
2488.000000	44.374016
2487.000000	44.413843
2486.000000	44.452177
2485.000000	44.484387
2484.000000	44.508789
2483.000000	44.525975
2482.000000	44.537696
2481.000000	44.547329
2480.000000	44.559473
2479.000000	44.577307
2478.000000	44.600773
2477.000000	44.627920
2476.000000	44.656408
2475.000000	44.683150
2474.000000	44.704552
2473.000000	44.718950
2472.000000	44.728149
2471.000000	44.735644
2470.000000	44.744308
2469.000000	44.756251
2468.000000	44.772929
2467.000000	44.793836
2466.000000	44.816121
2465.000000	44.836700
2464.000000	44.854136
2463.000000	44.868185
2462.000000	44.879202
2461.000000	44.888919
2460.000000	44.900212
2459.000000	44.914706
2458.000000	44.931628
2457.000000	44.949604
2456.000000	44.968174
2455.000000	44.986756
2454.000000	45.003939
2453.000000	45.019284
2452.000000	45.034557
2451.000000	45.051895
2450.000000	45.071772
2449.000000	45.093510
2448.000000	45.116323
2447.000000	45.138770
2446.000000	45.158672
2445.000000	45.175042
2444.000000	45.189330
2443.000000	45.203995
2442.000000	45.220980
2441.000000	45.241998
2440.000000	45.268460
2439.000000	45.299609
2438.000000	45.331948
2437.000000	45.361725
2436.000000	45.387186
2435.000000	45.408050
2434.000000	45.424755
2433.000000	45.439481
2432.000000	45.456327
2431.000000	45.478759
2430.000000	45.507578
2429.000000	45.541716
2428.000000	45.579349
2427.000000	45.617299
2426.000000	45.651284
2425.000000	45.678752
2424.000000	45.700776
2423.000000	45.720474
2422.000000	45.740927
2421.000000	45.765183
2420.000000	45.796077
2419.000000	45.834026
2418.000000	45.875989
2417.000000	45.917847
2416.000000	45.956895
2415.000000	45.991563
2414.000000	46.020842
2413.000000	46.045709
2412.000000	46.069736
2411.000000	46.096604
2410.000000	46.127836
2409.000000	46.163538
2408.000000	46.203518
2407.000000	46.246303
2406.000000	46.288655
2405.000000	46.327828
2404.000000	46.363587
2403.000000	46.397184
2402.000000	46.429999
2401.000000	46.464094
2400.000000	46.502162
2399.000000	46.545106
2398.000000	46.590816
2397.000000	46.636557
2396.000000	46.681292
2395.000000	46.724852
2394.000000	46.766958
2393.000000	46.808582
2392.000000	46.852490
2391.000000	46.900592
2390.000000	46.952046
2389.000000	47.004960
2388.000000	47.058600
2387.000000	47.112194
2386.000000	47.163918
2385.000000	47.213418
2384.000000	47.263157
2383.000000	47.316826
2382.000000	47.376354
2381.000000	47.442380
2380.000000	47.515696
2379.000000	47.594769
2378.000000	47.675074
2377.000000	47.751714
2376.000000	47.822869
2375.000000	47.888730
2374.000000	47.950530
2373.000000	48.011601
2372.000000	48.077623
2371.000000	48.152347
2370.000000	48.233939
2369.000000	48.318437
2368.000000	48.403607
2367.000000	48.486743
2366.000000	48.562988
2365.000000	48.629489
2364.000000	48.692531
2363.000000	48.756578
2362.000000	48.820435
2361.000000	48.888076
2360.000000	48.961858
2359.000000	49.041947
2358.000000	49.124192
2357.000000	49.199975
2356.000000	49.272109
2355.000000	49.338648
2354.000000	49.403101
2353.000000	49.469615
2352.000000	49.545885
2351.000000	49.635589
2350.000000	49.720677
2349.000000	49.788386
2348.000000	49.843787
2347.000000	49.910372
2346.000000	50.006227
2345.000000	50.110482
2344.000000	50.202215
2343.000000	50.267581
2342.000000	50.322395
2341.000000	50.382029
2340.000000	50.449057
2339.000000	50.523489
2338.000000	50.598410
2337.000000	50.673157
2336.000000	50.742831
2335.000000	50.812176
2334.000000	50.878970
2333.000000	50.951082
2332.000000	51.024172
2331.000000	51.108314
2330.000000	51.190495
2329.000000	51.275206
2328.000000	51.353205
2327.000000	51.426933
2326.000000	51.495236
2325.000000	51.558551
2324.000000	51.625002
2323.000000	51.696371
2322.000000	51.773019
2321.000000	51.852396
2320.000000	51.931785
2319.000000	52.014779
2318.000000	52.093572
2317.000000	52.169198
2316.000000	52.235104
2315.000000	52.301299
2314.000000	52.365103
2313.000000	52.434614
2312.000000	52.506153
2311.000000	52.586966
2310.000000	52.671009
2309.000000	52.758224
2308.000000	52.840636
2307.000000	52.918385
2306.000000	52.985802
2305.000000	53.045035
2304.000000	53.098162
2303.000000	53.155121
2302.000000	53.218136
2301.000000	53.290917
2300.000000	53.370177
2299.000000	53.455732
2298.000000	53.539154
2297.000000	53.615665
2296.000000	53.681215
2295.000000	53.739389
2294.000000	53.792895
2293.000000	53.846225
2292.000000	53.904490
2291.000000	53.971752
2290.000000	54.046540
2289.000000	54.122647
2288.000000	54.195339
2287.000000	54.261800
2286.000000	54.320725
2285.000000	54.371862
2284.000000	54.420108
2283.000000	54.472062
2282.000000	54.531694
2281.000000	54.598313
2280.000000	54.669793
2279.000000	54.742796
2278.000000	54.811494
2277.000000	54.870598
2276.000000	54.919504
2275.000000	54.962841
2274.000000	55.005490
2273.000000	55.051844
2272.000000	55.105976
2271.000000	55.169534
2270.000000	55.238091
2269.000000	55.303686
2268.000000	55.360507
2267.000000	55.406615
2266.000000	55.441762
2265.000000	55.468704
2264.000000	55.495050
2263.000000	55.529568
2262.000000	55.575840
2261.000000	55.630978
2260.000000	55.690194
2259.000000	55.747393
2258.000000	55.794848
2257.000000	55.826562
2256.000000	55.843724
2255.000000	55.853926
2254.000000	55.864874
2253.000000	55.882608
2252.000000	55.911648
2251.000000	55.953105
2250.000000	56.000498
2249.000000	56.042957
2248.000000	56.072817
2247.000000	56.087562
2246.000000	56.088151
2245.000000	56.078930
2244.000000	56.068706
2243.000000	56.066697
2242.000000	56.076199
2241.000000	56.094214
2240.000000	56.115618
2239.000000	56.134230
2238.000000	56.142138
2237.000000	56.133635
2236.000000	56.110800
2235.000000	56.081849
2234.000000	56.054617
2233.000000	56.034156
2232.000000	56.023807
2231.000000	56.023234
2230.000000	56.025519
2229.000000	56.020981
2228.000000	56.004390
2227.000000	55.976346
2226.000000	55.939748
2225.000000	55.899491
2224.000000	55.863845
2223.000000	55.840416
2222.000000	55.829657
2221.000000	55.825292
2220.000000	55.820228
2219.000000	55.809015
2218.000000	55.786864
2217.000000	55.752218
2216.000000	55.710863
2215.000000	55.673354
2214.000000	55.647744
2213.000000	55.636768
2212.000000	55.639544
2211.000000	55.651143
2210.000000	55.661454
2209.000000	55.659941
2208.000000	55.643006
2207.000000	55.614902
2206.000000	55.583044
2205.000000	55.555966
2204.000000	55.543300
2203.000000	55.551347
2202.000000	55.577330
2201.000000	55.610859
2200.000000	55.640999
2199.000000	55.659915
2198.000000	55.662869
2197.000000	55.650828
2196.000000	55.633357
2195.000000	55.624200
2194.000000	55.632727
2193.000000	55.660909
2192.000000	55.705774
2191.000000	55.759835
2190.000000	55.810684
2189.000000	55.846285
2188.000000	55.862766
2187.000000	55.865082
2186.000000	55.861658
2185.000000	55.861775
2184.000000	55.875199
2183.000000	55.907580
2182.000000	55.954859
2181.000000	56.005537
2180.000000	56.048545
2179.000000	56.076997
2178.000000	56.087590
2177.000000	56.082503
2176.000000	56.071718
2175.000000	56.068158
2174.000000	56.079159
2173.000000	56.104405
2172.000000	56.139681
2171.000000	56.177901
2170.000000	56.208624
2169.000000	56.223039
2168.000000	56.221131
2167.000000	56.210899
2166.000000	56.201589
2165.000000	56.200725
2164.000000	56.214600
2163.000000	56.244845
2162.000000	56.284123
2161.000000	56.319852
2160.000000	56.343055
2159.000000	56.351421
2158.000000	56.346740
2157.000000	56.335002
2156.000000	56.327755
2155.000000	56.336637
2154.000000	56.364804
2153.000000	56.406070
2152.000000	56.451011
2151.000000	56.490055
2150.000000	56.513726
2149.000000	56.517036
2148.000000	56.505153
2147.000000	56.490627
2146.000000	56.484858
2145.000000	56.494344
2144.000000	56.521989
2143.000000	56.564784
2142.000000	56.610904
2141.000000	56.645026
2140.000000	56.658656
2139.000000	56.652959
2138.000000	56.634371
2137.000000	56.612631
2136.000000	56.600946
2135.000000	56.610295
2134.000000	56.641343
2133.000000	56.684907
2132.000000	56.729309
2131.000000	56.764255
2130.000000	56.780924
2129.000000	56.775971
2128.000000	56.756758
2127.000000	56.737808
2126.000000	56.731238
2125.000000	56.742721
2124.000000	56.773377
2123.000000	56.818610
2122.000000	56.865834
2121.000000	56.900097
2120.000000	56.914244
2119.000000	56.911262
2118.000000	56.899122
2117.000000	56.888188
2116.000000	56.891075
2115.000000	56.916981
2114.000000	56.964371
2113.000000	57.022479
2112.000000	57.079799
2111.000000	57.127911
2110.000000	57.160893
2109.000000	57.178596
2108.000000	57.190942
2107.000000	57.212945
2106.000000	57.254402
2105.000000	57.317025
2104.000000	57.398330
2103.000000	57.491896
2102.000000	57.585291
2101.000000	57.665622
2100.000000	57.729464
2099.000000	57.783404
2098.000000	57.837036
2097.000000	57.899121
2096.000000	57.978382
2095.000000	58.079122
2094.000000	58.195118
2093.000000	58.312910
2092.000000	58.421812
2091.000000	58.516744
2090.000000	58.594861
2089.000000	58.657333
2088.000000	58.714176
2087.000000	58.779327
2086.000000	58.859645
2085.000000	58.952441
2084.000000	59.051219
2083.000000	59.147616
2082.000000	59.229605
2081.000000	59.286884
2080.000000	59.320308
2079.000000	59.340593
2078.000000	59.358934
2077.000000	59.382966
2076.000000	59.419147
2075.000000	59.469809
2074.000000	59.526406
2073.000000	59.574231
2072.000000	59.603352
2071.000000	59.611489
2070.000000	59.599713
2069.000000	59.573889
2068.000000	59.549133
2067.000000	59.543193
2066.000000	59.562759
2065.000000	59.600309
2064.000000	59.643496
2063.000000	59.681649
2062.000000	59.705596
2061.000000	59.710991
2060.000000	59.704412
2059.000000	59.700083
2058.000000	59.709243
2057.000000	59.736866
2056.000000	59.785399
2055.000000	59.853218
2054.000000	59.929201
2053.000000	59.997963
2052.000000	60.051535
2051.000000	60.092227
2050.000000	60.126061
2049.000000	60.161171
2048.000000	60.209773
2047.000000	60.282511
2046.000000	60.378997
2045.000000	60.489222
2044.000000	60.603985
2043.000000	60.717662
2042.000000	60.823137
2041.000000	60.914365
2040.000000	60.995757
2039.000000	61.081321
2038.000000	61.183241
2037.000000	61.306438
2036.000000	61.451775
2035.000000	61.615408
2034.000000	61.784695
2033.000000	61.943529
2032.000000	62.084525
2031.000000	62.211187
2030.000000	62.329483
2029.000000	62.446436
2028.000000	62.573232
2027.000000	62.721181
2026.000000	62.889516
2025.000000	63.067425
2024.000000	63.244033
2023.000000	63.410813
2022.000000	63.557675
2021.000000	63.679196
2020.000000	63.786362
2019.000000	63.901578
2018.000000	64.039088
2017.000000	64.196415
2016.000000	64.364296
2015.000000	64.534573
2014.000000	64.697382
2013.000000	64.842832
2012.000000	64.970019
2011.000000	65.086847
2010.000000	65.199282
2009.000000	65.309478
2008.000000	65.422330
2007.000000	65.544619
2006.000000	65.673309
2005.000000	65.797693
2004.000000	65.911601
2003.000000	66.016026
2002.000000	66.112169
2001.000000	66.198623
2000.000000	66.283351
1999.000000	66.377491
1998.000000	66.478802
1997.000000	66.572075
1996.000000	66.649137
1995.000000	66.717077
1994.000000	66.786321
1993.000000	66.859760
1992.000000	66.935471
1991.000000	67.012888
1990.000000	67.093222
1989.000000	67.178752
1988.000000	67.272986
1987.000000	67.375806
1986.000000	67.476784
1985.000000	67.561087
1984.000000	67.623363
1983.000000	67.668766
1982.000000	67.704165
1981.000000	67.733803
1980.000000	67.769085
1979.000000	67.822879
1978.000000	67.897233
1977.000000	67.982429
1976.000000	68.068668
1975.000000	68.148854
1974.000000	68.212274
1973.000000	68.247409
1972.000000	68.253783
1971.000000	68.244501
1970.000000	68.237782
1969.000000	68.252552
1968.000000	68.304898
1967.000000	68.394772
1966.000000	68.498579
1965.000000	68.587371
1964.000000	68.649280
1963.000000	68.688771
1962.000000	68.711043
1961.000000	68.719080
1960.000000	68.721796
1959.000000	68.732220
1958.000000	68.757522
1957.000000	68.798078
1956.000000	68.853700
1955.000000	68.921053
1954.000000	68.986037
1953.000000	69.034199
1952.000000	69.060994
1951.000000	69.071947
1950.000000	69.072098
1949.000000	69.063063
1948.000000	69.049787
1947.000000	69.038721
1946.000000	69.032950
1945.000000	69.039638
1944.000000	69.075509
1943.000000	69.148197
1942.000000	69.233485
1941.000000	69.297006
1940.000000	69.330489
1939.000000	69.346446
1938.000000	69.353611
1937.000000	69.354344
1936.000000	69.355803
1935.000000	69.367042
1934.000000	69.386298
1933.000000	69.407273
1932.000000	69.427556
1931.000000	69.450631
1930.000000	69.473416
1929.000000	69.482737
1928.000000	69.472394
1927.000000	69.439134
1926.000000	69.391013
1925.000000	69.344257
1924.000000	69.318820
1923.000000	69.320125
1922.000000	69.333121
1921.000000	69.347531
1920.000000	69.372550
1919.000000	69.415779
1918.000000	69.462824
1917.000000	69.485247
1916.000000	69.479831
1915.000000	69.459597
1914.000000	69.421492
1913.000000	69.361228
1912.000000	69.297823
1911.000000	69.262320
1910.000000	69.263004
1909.000000	69.282423
1908.000000	69.309244
1907.000000	69.335265
1906.000000	69.351098
1905.000000	69.345246
1904.000000	69.320103
1903.000000	69.290853
1902.000000	69.262775
1901.000000	69.230039
1900.000000	69.198057
1899.000000	69.177059
1898.000000	69.171739
1897.000000	69.181858
1896.000000	69.208671
1895.000000	69.241886
1894.000000	69.250893
1893.000000	69.215892
1892.000000	69.159134
1891.000000	69.126127
1890.000000	69.136997
1889.000000	69.170131
1888.000000	69.204028
1887.000000	69.241365
1886.000000	69.282102
1885.000000	69.314983
1884.000000	69.334769
1883.000000	69.346009
1882.000000	69.344859
1881.000000	69.322927
1880.000000	69.292132
1879.000000	69.272815
1878.000000	69.268537
1877.000000	69.271630
1876.000000	69.277298
1875.000000	69.278093
1874.000000	69.254200
1873.000000	69.188845
1872.000000	69.092762
1871.000000	69.000013
1870.000000	68.946973
1869.000000	68.948127
1868.000000	68.989222
1867.000000	69.050261
1866.000000	69.106791
1865.000000	69.132422
1864.000000	69.125210
1863.000000	69.106194
1862.000000	69.085248
1861.000000	69.054593
1860.000000	69.017997
1859.000000	68.992265
1858.000000	68.978382
1857.000000	68.961126
1856.000000	68.937606
1855.000000	68.918293
1854.000000	68.900970
1853.000000	68.861390
1852.000000	68.801248
1851.000000	68.733800
1850.000000	68.654676
1849.000000	68.560139
1848.000000	68.481648
1847.000000	68.459646
1846.000000	68.488160
1845.000000	68.524575
1844.000000	68.526667
1843.000000	68.484340
1842.000000	68.426625
1841.000000	68.371632
1840.000000	68.315202
1839.000000	68.259929
1838.000000	68.222769
1837.000000	68.199664
1836.000000	68.165427
1835.000000	68.099606
1834.000000	67.993226
1833.000000	67.850778
1832.000000	67.710540
1831.000000	67.623004
1830.000000	67.592524
1829.000000	67.565122
1828.000000	67.520491
1827.000000	67.485880
1826.000000	67.472295
1825.000000	67.462413
1824.000000	67.438941
1823.000000	67.405573
1822.000000	67.362529
1821.000000	67.299287
1820.000000	67.225157
1819.000000	67.163144
1818.000000	67.119813
1817.000000	67.070040
1816.000000	66.990437
1815.000000	66.886843
1814.000000	66.768720
1813.000000	66.649573
1812.000000	66.552983
1811.000000	66.500186
1810.000000	66.482375
1809.000000	66.464483
1808.000000	66.427737
1807.000000	66.374446
1806.000000	66.296522
1805.000000	66.177475
1804.000000	66.026862
1803.000000	65.891631
1802.000000	65.800873
1801.000000	65.752939
1800.000000	65.728471
1799.000000	65.708609
1798.000000	65.669805
1797.000000	65.597724
1796.000000	65.510438
1795.000000	65.435349
1794.000000	65.367862
1793.000000	65.302299
1792.000000	65.244392
1791.000000	65.200136
1790.000000	65.169176
1789.000000	65.139514
1788.000000	65.103741
1787.000000	65.069018
1786.000000	65.029380
1785.000000	64.952375
1784.000000	64.827672
1783.000000	64.706011
1782.000000	64.618095
1781.000000	64.562009
1780.000000	64.518745
1779.000000	64.471151
1778.000000	64.404565
1777.000000	64.315899
1776.000000	64.239097
1775.000000	64.197131
1774.000000	64.156928
1773.000000	64.086497
1772.000000	63.993076
1771.000000	63.911786
1770.000000	63.884930
1769.000000	63.888722
1768.000000	63.853713
1767.000000	63.760520
1766.000000	63.645110
1765.000000	63.543915
1764.000000	63.462592
1763.000000	63.407132
1762.000000	63.362049
1761.000000	63.289792
1760.000000	63.190766
1759.000000	63.116956
1758.000000	63.075975
1757.000000	63.016940
1756.000000	62.916723
1755.000000	62.818815
1754.000000	62.754779
1753.000000	62.675198
1752.000000	62.533450
1751.000000	62.357010
1750.000000	62.214158
1749.000000	62.125117
1748.000000	62.059550
1747.000000	61.981321
1746.000000	61.867647
1745.000000	61.728634
1744.000000	61.591603
1743.000000	61.489028
1742.000000	61.434733
1741.000000	61.402136
1740.000000	61.328597
1739.000000	61.197487
1738.000000	61.081323
1737.000000	61.039062
1736.000000	61.007767
1735.000000	60.907975
1734.000000	60.695019
1733.000000	60.353711
1732.000000	60.034822
1731.000000	59.869353
1730.000000	59.808375
1729.000000	59.731594
1728.000000	59.592477
1727.000000	59.414012
1726.000000	59.208728
1725.000000	58.980852
1724.000000	58.729509
1723.000000	58.462481
1722.000000	58.206230
1721.000000	57.985556
1720.000000	57.797784
1719.000000	57.624289
1718.000000	57.441579
1717.000000	57.186303
1716.000000	56.878708
1715.000000	56.617714
1714.000000	56.409251
1713.000000	56.189133
1712.000000	55.936501
1711.000000	55.672007
1710.000000	55.384849
1709.000000	55.047694
1708.000000	54.692815
1707.000000	54.371187
1706.000000	54.076266
1705.000000	53.773178
1704.000000	53.525868
1703.000000	53.400581
1702.000000	53.272757
1701.000000	52.974853
1700.000000	52.511489
1699.000000	52.094429
1698.000000	51.904497
1697.000000	51.813237
1696.000000	51.563203
1695.000000	51.108123
1694.000000	50.634717
1693.000000	50.276436
1692.000000	49.984488
1691.000000	49.664721
1690.000000	49.296400
1689.000000	48.926963
1688.000000	48.629936
1687.000000	48.388635
1686.000000	48.078875
1685.000000	47.647645
1684.000000	47.141403
1683.000000	46.645823
1682.000000	46.272497
1681.000000	45.985395
1680.000000	45.679861
1679.000000	45.343914
1678.000000	45.013619
1677.000000	44.667059
1676.000000	44.250195
1675.000000	43.767941
1674.000000	43.286236
1673.000000	42.879777
1672.000000	42.546681
1671.000000	42.236657
1670.000000	41.901298
1669.000000	41.500838
1668.000000	41.063493
1667.000000	40.666121
1666.000000	40.328339
1665.000000	40.004388
1664.000000	39.652839
1663.000000	39.284795
1662.000000	38.909778
1661.000000	38.530195
1660.000000	38.155199
1659.000000	37.777004
1658.000000	37.403342
1657.000000	37.088825
1656.000000	36.875545
1655.000000	36.696649
1654.000000	36.466551
1653.000000	36.006689
1652.000000	35.285934
1651.000000	34.673824
1650.000000	34.321054
1649.000000	34.104910
1648.000000	33.898635
1647.000000	33.658967
1646.000000	33.359433
1645.000000	33.013246
1644.000000	32.687334
1643.000000	32.422470
1642.000000	32.172779
1641.000000	31.871035
1640.000000	31.534268
1639.000000	31.238297
1638.000000	31.010023
1637.000000	30.798179
1636.000000	30.553521
1635.000000	30.256965
1634.000000	29.963193
1633.000000	29.725472
1632.000000	29.530683
1631.000000	29.341213
1630.000000	29.131221
1629.000000	28.895566
1628.000000	28.655226
1627.000000	28.449837
1626.000000	28.294473
1625.000000	28.167310
1624.000000	28.042468
1623.000000	27.907084
1622.000000	27.758531
1621.000000	27.626410
1620.000000	27.551464
1619.000000	27.528388
1618.000000	27.500652
1617.000000	27.409455
1616.000000	27.255759
1615.000000	27.121236
1614.000000	27.065705
1613.000000	27.058978
1612.000000	27.045094
1611.000000	27.013818
1610.000000	26.983893
1609.000000	26.964117
1608.000000	26.956471
1607.000000	26.973332
1606.000000	27.014542
1605.000000	27.063460
1604.000000	27.111590
1603.000000	27.161807
1602.000000	27.212105
1601.000000	27.252601
1600.000000	27.284724
1599.000000	27.323642
1598.000000	27.378520
1597.000000	27.446546
1596.000000	27.525921
1595.000000	27.617610
1594.000000	27.710823
1593.000000	27.787728
1592.000000	27.845393
1591.000000	27.897040
1590.000000	27.951943
1589.000000	28.010728
1588.000000	28.078780
1587.000000	28.164778
1586.000000	28.264356
1585.000000	28.355777
1584.000000	28.432150
1583.000000	28.494750
1582.000000	28.532333
1581.000000	28.544862
1580.000000	28.575215
1579.000000	28.667497
1578.000000	28.809762
1577.000000	28.946684
1576.000000	29.013987
1575.000000	28.998601
1574.000000	28.975567
1573.000000	29.001317
1572.000000	29.053670
1571.000000	29.100253
1570.000000	29.147202
1569.000000	29.194508
1568.000000	29.250326
1567.000000	29.337086
1566.000000	29.452881
1565.000000	29.563637
1564.000000	29.660487
1563.000000	29.769563
1562.000000	29.881556
1561.000000	29.919961
1560.000000	29.931986
1559.000000	30.046437
1558.000000	30.132486
1557.000000	30.200286
1556.000000	30.351455
1555.000000	30.551682
1554.000000	30.708684
1553.000000	30.798884
1552.000000	30.881014
1551.000000	31.006146
1550.000000	31.177002
1549.000000	31.361861
1548.000000	31.543743
1547.000000	31.727062
1546.000000	31.911708
1545.000000	32.095475
1544.000000	32.285778
1543.000000	32.495646
1542.000000	32.756748
1541.000000	33.120619
1540.000000	33.557569
1539.000000	33.896712
1538.000000	34.101724
1537.000000	34.296134
1536.000000	34.556470
1535.000000	34.885656
1534.000000	35.266281
1533.000000	35.647006
1532.000000	35.978984
1531.000000	36.282022
1530.000000	36.594149
1529.000000	36.937955
1528.000000	37.330344
1527.000000	37.770998
1526.000000	38.215926
1525.000000	38.622076
1524.000000	39.011482
1523.000000	39.439969
1522.000000	39.923317
1521.000000	40.365600
1520.000000	40.700365
1519.000000	41.039140
1518.000000	41.504627
1517.000000	42.088342
1516.000000	42.675270
1515.000000	43.191818
1514.000000	43.641482
1513.000000	44.022989
1512.000000	44.328792
1511.000000	44.606475
1510.000000	44.926546
1509.000000	45.346665
1508.000000	45.972119
1507.000000	46.881888
1506.000000	47.732836
1505.000000	48.203831
1504.000000	48.460091
1503.000000	48.731505
1502.000000	49.068353
1501.000000	49.436713
1500.000000	49.842911
1499.000000	50.344995
1498.000000	50.965260
1497.000000	51.617279
1496.000000	52.146940
1495.000000	52.505597
1494.000000	52.764053
1493.000000	52.982370
1492.000000	53.197426
1491.000000	53.496877
1490.000000	53.954330
1489.000000	54.512856
1488.000000	55.078443
1487.000000	55.614700
1486.000000	56.086236
1485.000000	56.435770
1484.000000	56.683848
1483.000000	56.908559
1482.000000	57.150433
1481.000000	57.379930
1480.000000	57.571925
1479.000000	57.738618
1478.000000	57.866305
1477.000000	57.914353
1476.000000	57.872570
1475.000000	57.766976
1474.000000	57.558328
1473.000000	57.152286
1472.000000	56.521503
1471.000000	55.751956
1470.000000	54.883331
1469.000000	53.849074
1468.000000	52.572242
1467.000000	50.979164
1466.000000	48.906474
1465.000000	46.229307
1464.000000	43.146581
1463.000000	40.042092
1462.000000	37.077442
1461.000000	34.207001
1460.000000	31.402490
1459.000000	28.600073
1458.000000	25.598786
1457.000000	22.391871
1456.000000	19.602548
1455.000000	17.739397
1454.000000	16.573573
1453.000000	15.737014
1452.000000	15.124439
1451.000000	14.772880
1450.000000	14.664301
1449.000000	14.753110
1448.000000	15.051918
1447.000000	15.556260
1446.000000	16.174122
1445.000000	16.842506
1444.000000	17.590197
1443.000000	18.434897
1442.000000	19.321028
1441.000000	20.198903
1440.000000	21.091876
1439.000000	22.053174
1438.000000	23.132819
1437.000000	24.368611
1436.000000	25.695073
1435.000000	26.971803
1434.000000	28.176005
1433.000000	29.401568
1432.000000	30.733626
1431.000000	32.183350
1430.000000	33.693714
1429.000000	35.177846
1428.000000	36.542174
1427.000000	37.742362
1426.000000	38.810760
1425.000000	39.812183
1424.000000	40.760989
1423.000000	41.616194
1422.000000	42.379872
1421.000000	43.113129
1420.000000	43.890600
1419.000000	44.722504
1418.000000	45.529657
1417.000000	46.276556
1416.000000	46.984672
1415.000000	47.658548
1414.000000	48.312315
1413.000000	48.994681
1412.000000	49.737769
1411.000000	50.525207
1410.000000	51.329333
1409.000000	52.132434
1408.000000	52.900060
1407.000000	53.611072
1406.000000	54.294964
1405.000000	54.988252
1404.000000	55.654963
1403.000000	56.231775
1402.000000	56.741861
1401.000000	57.268305
1400.000000	57.849568
1399.000000	58.433859
1398.000000	58.960003
1397.000000	59.436864
1396.000000	59.887647
1395.000000	60.299437
1394.000000	60.650667
1393.000000	60.948172
1392.000000	61.206346
1391.000000	61.426363
1390.000000	61.615016
1389.000000	61.778084
1388.000000	61.878188
1387.000000	61.853445
1386.000000	61.715933
1385.000000	61.562407
1384.000000	61.464240
1383.000000	61.429041
1382.000000	61.453514
1381.000000	61.528430
1380.000000	61.605027
1379.000000	61.616338
1378.000000	61.535397
1377.000000	61.382140
1376.000000	61.182289
1375.000000	60.964641
1374.000000	60.765844
1373.000000	60.600612
1372.000000	60.443095
1371.000000	60.263318
1370.000000	60.057682
1369.000000	59.823746
1368.000000	59.520911
1367.000000	59.098714
1366.000000	58.554431
1365.000000	57.921581
1364.000000	57.236041
1363.000000	56.535647
1362.000000	55.864945
1361.000000	55.251694
1360.000000	54.689433
1359.000000	54.172348
1358.000000	53.732409
1357.000000	53.420728
1356.000000	53.268865
1355.000000	53.284578
1354.000000	53.457992
1353.000000	53.749720
1352.000000	54.080390
1351.000000	54.361434
1350.000000	54.518411
1349.000000	54.483292
1348.000000	54.186833
1347.000000	53.585711
1346.000000	52.684889
1345.000000	51.517950
1344.000000	50.125901
1343.000000	48.551661
1342.000000	46.835880
1341.000000	44.998058
1340.000000	43.038465
1339.000000	40.972939
1338.000000	38.835041
1337.000000	36.637906
1336.000000	34.371754
1335.000000	32.048815
1334.000000	29.719044
1333.000000	27.437216
1332.000000	25.249076
1331.000000	23.208488
1330.000000	21.369075
1329.000000	19.748514
1328.000000	18.328886
1327.000000	17.083445
1326.000000	15.979039
1325.000000	14.971712
1324.000000	14.025002
1323.000000	13.135318
1322.000000	12.315793
1321.000000	11.567651
1320.000000	10.894207
1319.000000	10.323088
1318.000000	9.893769
1317.000000	9.628994
1316.000000	9.536558
1315.000000	9.629908
1314.000000	9.915380
1313.000000	10.376695
1312.000000	10.988229
1311.000000	11.729544
1310.000000	12.582347
1309.000000	13.517469
1308.000000	14.503846
1307.000000	15.522288
1306.000000	16.559525
1305.000000	17.602348
1304.000000	18.643142
1303.000000	19.684894
1302.000000	20.731079
1301.000000	21.772201
1300.000000	22.786445
1299.000000	23.749758
1298.000000	24.640108
1297.000000	25.439124
1296.000000	26.145276
1295.000000	26.788850
1294.000000	27.428348
1293.000000	28.126843
1292.000000	28.930157
1291.000000	29.858792
1290.000000	30.909457
1289.000000	32.058262
1288.000000	33.269280
1287.000000	34.512719
1286.000000	35.776248
1285.000000	37.060688
1284.000000	38.366023
1283.000000	39.685646
1282.000000	41.008737
1281.000000	42.316090
1280.000000	43.574640
1279.000000	44.750209
1278.000000	45.830519
1277.000000	46.826145
1276.000000	47.755204
1275.000000	48.639369
1274.000000	49.508822
1273.000000	50.389846
1272.000000	51.278148
1271.000000	52.142312
1270.000000	52.952471
1269.000000	53.693234
1268.000000	54.358335
1267.000000	54.954598
1266.000000	55.515580
1265.000000	56.086238
1264.000000	56.688958
1263.000000	57.318825
1262.000000	57.962060
1261.000000	58.597477
1260.000000	59.184752
1259.000000	59.683453
1258.000000	60.093288
1257.000000	60.453597
1256.000000	60.807725
1255.000000	61.188869
1254.000000	61.626154
1253.000000	62.130801
1252.000000	62.671348
1251.000000	63.186883
1250.000000	63.629590
1249.000000	63.981694
1248.000000	64.244165
1247.000000	64.439418
1246.000000	64.623619
1245.000000	64.863486
1244.000000	65.190391
1243.000000	65.589697
1242.000000	66.025485
1241.000000	66.451944
1240.000000	66.810980
1239.000000	67.055705
1238.000000	67.189394
1237.000000	67.261796
1236.000000	67.329224
1235.000000	67.436460
1234.000000	67.620326
1233.000000	67.894282
1232.000000	68.223991
1231.000000	68.542765
1230.000000	68.797874
1229.000000	68.969674
1228.000000	69.058937
1227.000000	69.088741
1226.000000	69.116009
1225.000000	69.206905
1224.000000	69.391361
1223.000000	69.655769
1222.000000	69.970786
1221.000000	70.301691
1220.000000	70.601272
1219.000000	70.830227
1218.000000	70.992705
1217.000000	71.130496
1216.000000	71.284135
1215.000000	71.478025
1214.000000	71.731424
1213.000000	72.048238
1212.000000	72.394111
1211.000000	72.712143
1210.000000	72.969311
1209.000000	73.169386
1208.000000	73.329154
1207.000000	73.472114
1206.000000	73.639208
1205.000000	73.869030
1204.000000	74.159804
1203.000000	74.471019
1202.000000	74.760940
1201.000000	75.001942
1200.000000	75.171660
1199.000000	75.265552
1198.000000	75.321873
1197.000000	75.404294
1196.000000	75.553676
1195.000000	75.773369
1194.000000	76.048838
1193.000000	76.349254
1192.000000	76.616059
1191.000000	76.787234
1190.000000	76.846360
1189.000000	76.829217
1188.000000	76.787902
1187.000000	76.772979
1186.000000	76.836649
1185.000000	77.011234
1184.000000	77.274031
1183.000000	77.553534
1182.000000	77.775357
1181.000000	77.890068
1180.000000	77.875478
1179.000000	77.751004
1178.000000	77.589977
1177.000000	77.483174
1176.000000	77.482097
1175.000000	77.587338
1174.000000	77.772884
1173.000000	77.991068
1172.000000	78.167326
1171.000000	78.230933
1170.000000	78.165144
1169.000000	78.010080
1168.000000	77.823270
1167.000000	77.660160
1166.000000	77.576501
1165.000000	77.605302
1164.000000	77.722801
1163.000000	77.859666
1162.000000	77.951490
1161.000000	77.963126
1160.000000	77.880354
1159.000000	77.716392
1158.000000	77.528017
1157.000000	77.389582
1156.000000	77.342341
1155.000000	77.381438
1154.000000	77.479885
1153.000000	77.595869
1152.000000	77.667726
1151.000000	77.642009
1150.000000	77.519026
1149.000000	77.349397
1148.000000	77.189113
1147.000000	77.078259
1146.000000	77.047944
1145.000000	77.105769
1144.000000	77.210633
1143.000000	77.289685
1142.000000	77.289384
1141.000000	77.196080
1140.000000	77.020153
1139.000000	76.793676
1138.000000	76.578555
1137.000000	76.438986
1136.000000	76.395055
1135.000000	76.416065
1134.000000	76.453383
1133.000000	76.456805
1132.000000	76.372888
1131.000000	76.167858
1130.000000	75.861752
1129.000000	75.517816
1128.000000	75.196812
1127.000000	74.935904
1126.000000	74.755223
1125.000000	74.645230
1124.000000	74.549683
1123.000000	74.389480
1122.000000	74.113753
1121.000000	73.717176
1120.000000	73.218763
1119.000000	72.655341
1118.000000	72.086358
1117.000000	71.566379
1116.000000	71.105331
1115.000000	70.665300
1114.000000	70.193766
1113.000000	69.641262
1112.000000	68.958803
1111.000000	68.119414
1110.000000	67.142356
1109.000000	66.078573
1108.000000	64.970834
1107.000000	63.835451
1106.000000	62.673750
1105.000000	61.464043
1104.000000	60.153391
1103.000000	58.683534
1102.000000	57.023295
1101.000000	55.178173
1100.000000	53.168329
1099.000000	51.023714
1098.000000	48.783727
1097.000000	46.474430
1096.000000	44.097174
1095.000000	41.638712
1094.000000	39.091270
1093.000000	36.462155
1092.000000	33.776074
1091.000000	31.081929
1090.000000	28.445122
1089.000000	25.929150
1088.000000	23.581288
1087.000000	21.436735
1086.000000	19.510407
1085.000000	17.794495
1084.000000	16.276458
1083.000000	14.942507
1082.000000	13.780100
1081.000000	12.771894
1080.000000	11.904243
1079.000000	11.173635
1078.000000	10.565348
1077.000000	10.054812
1076.000000	9.620163
1075.000000	9.246828
1074.000000	8.920160
1073.000000	8.621545
1072.000000	8.345108
1071.000000	8.099145
1070.000000	7.889009
1069.000000	7.713725
1068.000000	7.575925
1067.000000	7.483378
1066.000000	7.434692
1065.000000	7.417178
1064.000000	7.424923
1063.000000	7.461424
1062.000000	7.527154
1061.000000	7.617889
1060.000000	7.736979
1059.000000	7.897025
1058.000000	8.102746
1057.000000	8.348028
1056.000000	8.629778
1055.000000	8.949655
1054.000000	9.304012
1053.000000	9.683058
1052.000000	10.085708
1051.000000	10.523677
1050.000000	11.006247
1049.000000	11.537739
1048.000000	12.124133
1047.000000	12.770476
1046.000000	13.470399
1045.000000	14.206800
1044.000000	14.967851
1043.000000	15.750252
1042.000000	16.552194
1041.000000	17.375296
1040.000000	18.229101
1039.000000	19.127780
1038.000000	20.077207
1037.000000	21.070657
1036.000000	22.094668
1035.000000	23.130200
1034.000000	24.154454
1033.000000	25.150447
1032.000000	26.118125
1031.000000	27.074248
1030.000000	28.041298
1029.000000	29.037226
1028.000000	30.068514
1027.000000	31.126146
1026.000000	32.185759
1025.000000	33.216265
1024.000000	34.191106
1023.000000	35.098867
1022.000000	35.949873
1021.000000	36.771707
1020.000000	37.597117
1019.000000	38.451292
1018.000000	39.343364
1017.000000	40.262125
1016.000000	41.175021
1015.000000	42.041134
1014.000000	42.831927
1013.000000	43.543248
1012.000000	44.193003
1011.000000	44.814264
1010.000000	45.448122
1009.000000	46.127328
1008.000000	46.856717
1007.000000	47.612362
1006.000000	48.356467
1005.000000	49.052218
1004.000000	49.671935
1003.000000	50.208984
1002.000000	50.688511
1001.000000	51.156543
1000.000000	51.653968
999.000000	52.201220
998.000000	52.797467
997.000000	53.421045
996.000000	54.029306
995.000000	54.576928
994.000000	55.044388
993.000000	55.445358
992.000000	55.811371
991.000000	56.180166
990.000000	56.590206
989.000000	57.064360
988.000000	57.589061
987.000000	58.120916
986.000000	58.614355
985.000000	59.040489
984.000000	59.388778
983.000000	59.672710
982.000000	59.936350
981.000000	60.236116
980.000000	60.605421
979.000000	61.041284
978.000000	61.515778
977.000000	61.986106
976.000000	62.398997
975.000000	62.713042
974.000000	62.930126
973.000000	63.095129
972.000000	63.265671
971.000000	63.489650
970.000000	63.798192
969.000000	64.192923
968.000000	64.631375
967.000000	65.042995
966.000000	65.369533
965.000000	65.588443
964.000000	65.709120
963.000000	65.771230
962.000000	65.843725
961.000000	65.997021
960.000000	66.259992
959.000000	66.610021
958.000000	66.994605
957.000000	67.350232
956.000000	67.612396
955.000000	67.742245
954.000000	67.758153
953.000000	67.728464
952.000000	67.729183
951.000000	67.814572
950.000000	68.011309
949.000000	68.309018
948.000000	68.648647
947.000000	68.944100
946.000000	69.131811
945.000000	69.196079
944.000000	69.159733
943.000000	69.075468
942.000000	69.019997
941.000000	69.063011
940.000000	69.225158
939.000000	69.472054
938.000000	69.742350
937.000000	69.970538
936.000000	70.096922
935.000000	70.091957
934.000000	69.984132
933.000000	69.847293
932.000000	69.752802
931.000000	69.742082
930.000000	69.827654
929.000000	69.988955
928.000000	70.164152
927.000000	70.273980
926.000000	70.270533
925.000000	70.155921
924.000000	69.964373
923.000000	69.747098
922.000000	69.566151
921.000000	69.469636
920.000000	69.457805
919.000000	69.483362
918.000000	69.486366
917.000000	69.417905
916.000000	69.244838
915.000000	68.963894
914.000000	68.618102
913.000000	68.276342
912.000000	67.986494
911.000000	67.757834
910.000000	67.573436
909.000000	67.396564
908.000000	67.171008
907.000000	66.844095
906.000000	66.404191
905.000000	65.883987
904.000000	65.330231
903.000000	64.785545
902.000000	64.285688
901.000000	63.843842
900.000000	63.428910
899.000000	62.977563
898.000000	62.436850
897.000000	61.785893
896.000000	61.030337
895.000000	60.199647
894.000000	59.346940
893.000000	58.526105
892.000000	57.756245
891.000000	57.015341
890.000000	56.261774
889.000000	55.449226
888.000000	54.533766
887.000000	53.491088
886.000000	52.338157
885.000000	51.125796
884.000000	49.905780
883.000000	48.712261
882.000000	47.559006
881.000000	46.433875
880.000000	45.295632
879.000000	44.091626
878.000000	42.790027
877.000000	41.393169
876.000000	39.929321
875.000000	38.440913
874.000000	36.973471
873.000000	35.559088
872.000000	34.202739
871.000000	32.884790
870.000000	31.575815
869.000000	30.249973
868.000000	28.893328
867.000000	27.510138
866.000000	26.123930
865.000000	24.767272
864.000000	23.469544
863.000000	22.246602
862.000000	21.096831
861.000000	20.006905
860.000000	18.961558
859.000000	17.954212
858.000000	16.989858
857.000000	16.086484
856.000000	15.277842
855.000000	14.600596
854.000000	14.080674
853.000000	13.722644
852.000000	13.508715
851.000000	13.403578
850.000000	13.357492
849.000000	13.323515
848.000000	13.272795
847.000000	13.197163
846.000000	13.103512
845.000000	13.007643
844.000000	12.931139
843.000000	12.892047
842.000000	12.896002
841.000000	12.939426
840.000000	13.017486
839.000000	13.127230
838.000000	13.267675
837.000000	13.442171
836.000000	13.661576
835.000000	13.937201
834.000000	14.274740
833.000000	14.675008
832.000000	15.134191
831.000000	15.640945
830.000000	16.175625
829.000000	16.720238
828.000000	17.268246
827.000000	17.823609
826.000000	18.398342
825.000000	19.010055
824.000000	19.674886
823.000000	20.395980
822.000000	21.159878
821.000000	21.944649
820.000000	22.726983
819.000000	23.486611
818.000000	24.214809
817.000000	24.920129
816.000000	25.622124
815.000000	26.338814
814.000000	27.080688
813.000000	27.847952
812.000000	28.625764
811.000000	29.385673
810.000000	30.101424
809.000000	30.764408
808.000000	31.383014
807.000000	31.976509
806.000000	32.573677
805.000000	33.205494
804.000000	33.886479
803.000000	34.604172
802.000000	35.331153
801.000000	36.040065
800.000000	36.706909
799.000000	37.316279
798.000000	37.876896
797.000000	38.423756
796.000000	38.995260
795.000000	39.611546
794.000000	40.274394
793.000000	40.971120
792.000000	41.670829
791.000000	42.330912
790.000000	42.922439
789.000000	43.445626
788.000000	43.920233
787.000000	44.374680
786.000000	44.845814
785.000000	45.367078
784.000000	45.943320
783.000000	46.543882
782.000000	47.126663
781.000000	47.659775
780.000000	48.122336
779.000000	48.508053
778.000000	48.840096
777.000000	49.166488
776.000000	49.528289
775.000000	49.938491
774.000000	50.390906
773.000000	50.868835
772.000000	51.339477
771.000000	51.761724
770.000000	52.116204
769.000000	52.419020
768.000000	52.701798
767.000000	52.992938
766.000000	53.318978
765.000000	53.698867
764.000000	54.123276
763.000000	54.553102
762.000000	54.948997
761.000000	55.292369
760.000000	55.578907
759.000000	55.816226
758.000000	56.036532
757.000000	56.287138
756.000000	56.593474
755.000000	56.941404
754.000000	57.298985
753.000000	57.636073
752.000000	57.920408
751.000000	58.123885
750.000000	58.250433
749.000000	58.342153
748.000000	58.446698
747.000000	58.591212
746.000000	58.787115
745.000000	59.031258
744.000000	59.289896
743.000000	59.504438
742.000000	59.631108
741.000000	59.665970
740.000000	59.631400
739.000000	59.563033
738.000000	59.514370
737.000000	59.542173
736.000000	59.666605
735.000000	59.857181
734.000000	60.064390
733.000000	60.246489
732.000000	60.366304
731.000000	60.398284
730.000000	60.360159
729.000000	60.315136
728.000000	60.327896
727.000000	60.431570
726.000000	60.634640
725.000000	60.928247
724.000000	61.271591
723.000000	61.597471
722.000000	61.854507
721.000000	62.034226
720.000000	62.155601
719.000000	62.250371
718.000000	62.369021
717.000000	62.566312
716.000000	62.858874
715.000000	63.212572
714.000000	63.579535
713.000000	63.925638
712.000000	64.219693
711.000000	64.434578
710.000000	64.581244
709.000000	64.713744
708.000000	64.883084
707.000000	65.105318
706.000000	65.376900
705.000000	65.687273
704.000000	66.002528
703.000000	66.269062
702.000000	66.460195
701.000000	66.599262
700.000000	66.724267
699.000000	66.860681
698.000000	67.033966
697.000000	67.269678
696.000000	67.557023
695.000000	67.839387
694.000000	68.065102
693.000000	68.223724
692.000000	68.321708
691.000000	68.368257
690.000000	68.403440
689.000000	68.499509
688.000000	68.699536
687.000000	68.976237
686.000000	69.275310
685.000000	69.558033
684.000000	69.781349
683.000000	69.893084
682.000000	69.889103
681.000000	69.838773
680.000000	69.824455
679.000000	69.886542
678.000000	70.045296
677.000000	70.309700
676.000000	70.633493
675.000000	70.926270
674.000000	71.122841
673.000000	71.216117
672.000000	71.229425
671.000000	71.199653
670.000000	71.198956
669.000000	71.333420
668.000000	71.603668
667.000000	71.862921
666.000000	72.058026
665.000000	72.205979
664.000000	72.305028
663.000000	72.341860
662.000000	72.313595
661.000000	72.252236
660.000000	72.213895
659.000000	72.250732
658.000000	72.391023
657.000000	72.619534
656.000000	72.876965
655.000000	73.099801
654.000000	73.247386
653.000000	73.305774
652.000000	73.294390
651.000000	73.266028
650.000000	73.283153
649.000000	73.378978
648.000000	73.543648
647.000000	73.739623
646.000000	73.920219
645.000000	74.043398
644.000000	74.083836
643.000000	74.048007
642.000000	73.984676
641.000000	73.963331
640.000000	74.032177
639.000000	74.196728
638.000000	74.423571
637.000000	74.653180
636.000000	74.817795
635.000000	74.867431
634.000000	74.800795
633.000000	74.669469
632.000000	74.549444
631.000000	74.513862
630.000000	74.612770
629.000000	74.846679
628.000000	75.153761
627.000000	75.436012
626.000000	75.608710
625.000000	75.633305
624.000000	75.517303
623.000000	75.312336
622.000000	75.115987
621.000000	75.035950
620.000000	75.126863
619.000000	75.366621
618.000000	75.683581
617.000000	75.988307
616.000000	76.187967
615.000000	76.216867
614.000000	76.082473
613.000000	75.868715
612.000000	75.682097
611.000000	75.604130
610.000000	75.678363
609.000000	75.899047
608.000000	76.197329
607.000000	76.463480
606.000000	76.610193
605.000000	76.613277
604.000000	76.498740
603.000000	76.322484
602.000000	76.167295
601.000000	76.112924
600.000000	76.179867
599.000000	76.310947
598.000000	76.422585
597.000000	76.454203
596.000000	76.371989
595.000000	76.176659
594.000000	75.934121
593.000000	75.761191
592.000000	75.748637
591.000000	75.904957
590.000000	76.170886
589.000000	76.462474
588.000000	76.691039
587.000000	76.789247
586.000000	76.757727
585.000000	76.669439
584.000000	76.612833
583.000000	76.649031
582.000000	76.819768
581.000000	77.134194
580.000000	77.521931
579.000000	77.841393
578.000000	77.981299
577.000000	77.928697
576.000000	77.739685
575.000000	77.500369
574.000000	77.325676
573.000000	77.328580
572.000000	77.549866
571.000000	77.928980
570.000000	78.347896
569.000000	78.688260
568.000000	78.846154
567.000000	78.759742
566.000000	78.474251
565.000000	78.140818
564.000000	77.918154
563.000000	77.897575
562.000000	78.104167
561.000000	78.498606
560.000000	78.959054
559.000000	79.312754
558.000000	79.439708
557.000000	79.335936
556.000000	79.078825
555.000000	78.780500
554.000000	78.578026
553.000000	78.587000
552.000000	78.823317
551.000000	79.189262
550.000000	79.550727
549.000000	79.807148
548.000000	79.894059
547.000000	79.792444
546.000000	79.577354
545.000000	79.397347
544.000000	79.363228
543.000000	79.488064
542.000000	79.726170
541.000000	80.008783
540.000000	80.234979
539.000000	80.302360
538.000000	80.197394
537.000000	80.016591
536.000000	79.874843
535.000000	79.835304
534.000000	79.927845
533.000000	80.151955
532.000000	80.438219
531.000000	80.652922
530.000000	80.692407
529.000000	80.552514
528.000000	80.299365
527.000000	80.028518
526.000000	79.870865
525.000000	79.938700
524.000000	80.215118
523.000000	80.552625
522.000000	80.789741
521.000000	80.829325
520.000000	80.629405
519.000000	80.205545
518.000000	79.677329
517.000000	79.238255
516.000000	79.021032
515.000000	79.025768
514.000000	79.169228
513.000000	79.333173
512.000000	79.363342
511.000000	79.104900
510.000000	78.508265
509.000000	77.671219
508.000000	76.765809
507.000000	75.954453
506.000000	75.356027
505.000000	75.006904
504.000000	74.833233
503.000000	74.688833
502.000000	74.443225
501.000000	74.041624
500.000000	73.502022
499.000000	72.898193
498.000000	72.377028
497.000000	72.115036
496.000000	72.207245
495.000000	72.616233
494.000000	73.224282
493.000000	73.903979
492.000000	74.526582
491.000000	74.983257
490.000000	75.266283
489.000000	75.483641
488.000000	75.770454
487.000000	76.207544
486.000000	76.818334
485.000000	77.564755
484.000000	78.310722
483.000000	78.846791
482.000000	79.034334
481.000000	78.907387
480.000000	78.604128
479.000000	78.273597
478.000000	78.068478
477.000000	78.105847
476.000000	78.367195
475.000000	78.693478
474.000000	78.933398
473.000000	79.050077
472.000000	79.062148
471.000000	78.971751
470.000000	78.846236
469.000000	78.848227
468.000000	79.112010
467.000000	79.623546
466.000000	80.242374
465.000000	80.803995
464.000000	81.159867
463.000000	81.193264
462.000000	80.917977
461.000000	80.514776
460.000000	80.183046
459.000000	80.054668
458.000000	80.242969
457.000000	80.754265
456.000000	81.352493
455.000000	81.725281
454.000000	81.746873
453.000000	81.507268
452.000000	81.166674
451.000000	80.844722
450.000000	80.664592
449.000000	80.769796
448.000000	81.202012
447.000000	81.797527
446.000000	82.301903
445.000000	82.557321
444.000000	82.521971
443.000000	82.240524
442.000000	81.896842
441.000000	81.748496
440.000000	81.906907
439.000000	82.283593
438.000000	82.747988
437.000000	83.220305
436.000000	83.576813
435.000000	83.633383
434.000000	83.362553
433.000000	82.972346
432.000000	82.698244
431.000000	82.652859
430.000000	82.875359
429.000000	83.364202
428.000000	83.972512
427.000000	84.395313
426.000000	84.424302
425.000000	84.137572
424.000000	83.737122
423.000000	83.341144
422.000000	83.040944
421.000000	82.986092
420.000000	83.316332
419.000000	83.994318
418.000000	84.662165
417.000000	85.023126
416.000000	85.031904
415.000000	84.676616
414.000000	84.090844
413.000000	83.657907
412.000000	83.670222
411.000000	84.059345
410.000000	84.601859
409.000000	85.183473
408.000000	85.657637
407.000000	85.715284
406.000000	85.241043
405.000000	84.561415
404.000000	84.041529
403.000000	83.727549
402.000000	83.605182
401.000000	83.795760
400.000000	84.324094
