PE IR       SUBTECH     SPECTRUM    ASCII       PEDS        4.00        
   -1
23MS180_NITRO.asc
24/09/06
16:53:47.00
24/09/06
16:53:47.00
Administrator
Sample 1133 By Administrator Date Friday, September 06 2024
400.000000
#HDR
-1
-1
#GR
cm-1
%T
1.0
0.0
4000.000000
-1.000000
3601
8
95.983202
23.102722
#DATA
4000.000000	81.488744
3999.000000	81.511421
3998.000000	81.532761
3997.000000	81.552832
3996.000000	81.572319
3995.000000	81.591703
3994.000000	81.610645
3993.000000	81.629053
3992.000000	81.648411
3991.000000	81.670852
3990.000000	81.696366
3989.000000	81.722348
3988.000000	81.746744
3987.000000	81.770234
3986.000000	81.794705
3985.000000	81.820433
3984.000000	81.845957
3983.000000	81.869755
3982.000000	81.890974
3981.000000	81.909212
3980.000000	81.924491
3979.000000	81.938026
3978.000000	81.952658
3977.000000	81.971163
3976.000000	81.993967
3975.000000	82.018796
3974.000000	82.043073
3973.000000	82.066021
3972.000000	82.088266
3971.000000	82.111065
3970.000000	82.135240
3969.000000	82.160019
3968.000000	82.183211
3967.000000	82.202792
3966.000000	82.218114
3965.000000	82.230638
3964.000000	82.243404
3963.000000	82.258888
3962.000000	82.277725
3961.000000	82.298285
3960.000000	82.318114
3959.000000	82.337603
3958.000000	82.359546
3957.000000	82.384904
3956.000000	82.410931
3955.000000	82.434261
3954.000000	82.453711
3953.000000	82.469494
3952.000000	82.481488
3951.000000	82.489816
3950.000000	82.495456
3949.000000	82.499370
3948.000000	82.503243
3947.000000	82.508975
3946.000000	82.518455
3945.000000	82.536344
3944.000000	82.569034
3943.000000	82.614858
3942.000000	82.660131
3941.000000	82.691567
3940.000000	82.709488
3939.000000	82.726355
3938.000000	82.750724
3937.000000	82.776269
3936.000000	82.789501
3935.000000	82.787194
3934.000000	82.783211
3933.000000	82.793523
3932.000000	82.819062
3931.000000	82.847668
3930.000000	82.869548
3929.000000	82.887204
3928.000000	82.907935
3927.000000	82.935815
3926.000000	82.972012
3925.000000	83.012393
3924.000000	83.042931
3923.000000	83.049743
3922.000000	83.035789
3921.000000	83.019918
3920.000000	83.017600
3919.000000	83.028472
3918.000000	83.046502
3917.000000	83.072920
3916.000000	83.109428
3915.000000	83.149047
3914.000000	83.185279
3913.000000	83.222302
3912.000000	83.265259
3911.000000	83.310305
3910.000000	83.347007
3909.000000	83.370620
3908.000000	83.383473
3907.000000	83.386905
3906.000000	83.376952
3905.000000	83.350421
3904.000000	83.308963
3903.000000	83.260957
3902.000000	83.222426
3901.000000	83.213227
3900.000000	83.246183
3899.000000	83.310864
3898.000000	83.377789
3897.000000	83.428278
3896.000000	83.466255
3895.000000	83.505452
3894.000000	83.550109
3893.000000	83.592718
3892.000000	83.623152
3891.000000	83.641217
3890.000000	83.646016
3889.000000	83.628815
3888.000000	83.592232
3887.000000	83.569855
3886.000000	83.595811
3885.000000	83.653429
3884.000000	83.689232
3883.000000	83.685148
3882.000000	83.678409
3881.000000	83.709025
3880.000000	83.768848
3879.000000	83.817783
3878.000000	83.832496
3877.000000	83.825147
3876.000000	83.829718
3875.000000	83.872426
3874.000000	83.936350
3873.000000	83.967565
3872.000000	83.935656
3871.000000	83.880010
3870.000000	83.866424
3869.000000	83.898735
3868.000000	83.919979
3867.000000	83.902457
3866.000000	83.889414
3865.000000	83.930860
3864.000000	84.006719
3863.000000	84.059857
3862.000000	84.075965
3861.000000	84.085130
3860.000000	84.114243
3859.000000	84.174221
3858.000000	84.260889
3857.000000	84.351368
3856.000000	84.402052
3855.000000	84.387767
3854.000000	84.336705
3853.000000	84.288246
3852.000000	84.252635
3851.000000	84.231438
3850.000000	84.233934
3849.000000	84.270682
3848.000000	84.333073
3847.000000	84.398286
3846.000000	84.451481
3845.000000	84.490434
3844.000000	84.515486
3843.000000	84.529003
3842.000000	84.530684
3841.000000	84.521316
3840.000000	84.507685
3839.000000	84.497679
3838.000000	84.492774
3837.000000	84.495858
3836.000000	84.511062
3835.000000	84.538312
3834.000000	84.573171
3833.000000	84.615914
3832.000000	84.670452
3831.000000	84.730542
3830.000000	84.780482
3829.000000	84.812180
3828.000000	84.833204
3827.000000	84.860963
3826.000000	84.897415
3825.000000	84.917159
3824.000000	84.893833
3823.000000	84.846497
3822.000000	84.834708
3821.000000	84.883493
3820.000000	84.942655
3819.000000	84.957727
3818.000000	84.934363
3817.000000	84.928495
3816.000000	84.984144
3815.000000	85.072936
3814.000000	85.133223
3813.000000	85.151657
3812.000000	85.165300
3811.000000	85.199882
3810.000000	85.239720
3809.000000	85.255432
3808.000000	85.250465
3807.000000	85.256997
3806.000000	85.281916
3805.000000	85.295409
3804.000000	85.279628
3803.000000	85.264884
3802.000000	85.294055
3801.000000	85.355125
3800.000000	85.390121
3799.000000	85.378736
3798.000000	85.360049
3797.000000	85.379170
3796.000000	85.438421
3795.000000	85.502504
3794.000000	85.546090
3793.000000	85.577249
3792.000000	85.616044
3791.000000	85.665347
3790.000000	85.711994
3789.000000	85.746130
3788.000000	85.770277
3787.000000	85.790968
3786.000000	85.811879
3785.000000	85.832862
3784.000000	85.849375
3783.000000	85.852911
3782.000000	85.843002
3781.000000	85.837072
3780.000000	85.854341
3779.000000	85.890390
3778.000000	85.921425
3777.000000	85.934393
3776.000000	85.939726
3775.000000	85.957587
3774.000000	85.991036
3773.000000	86.020854
3772.000000	86.032499
3771.000000	86.039492
3770.000000	86.058283
3769.000000	86.078506
3768.000000	86.082052
3767.000000	86.075550
3766.000000	86.084768
3765.000000	86.119767
3764.000000	86.156694
3763.000000	86.165095
3762.000000	86.148240
3761.000000	86.143037
3760.000000	86.169189
3759.000000	86.202723
3758.000000	86.220131
3757.000000	86.231822
3756.000000	86.249340
3755.000000	86.263664
3754.000000	86.265883
3753.000000	86.265303
3752.000000	86.265855
3751.000000	86.245078
3750.000000	86.201661
3749.000000	86.177944
3748.000000	86.187253
3747.000000	86.193770
3746.000000	86.182530
3745.000000	86.197553
3744.000000	86.268084
3743.000000	86.345447
3742.000000	86.379250
3741.000000	86.385860
3740.000000	86.401360
3739.000000	86.423056
3738.000000	86.427854
3737.000000	86.427208
3736.000000	86.454103
3735.000000	86.496798
3734.000000	86.513271
3733.000000	86.509230
3732.000000	86.529785
3731.000000	86.589380
3730.000000	86.658979
3729.000000	86.709815
3728.000000	86.749353
3727.000000	86.804616
3726.000000	86.875444
3725.000000	86.929688
3724.000000	86.953614
3723.000000	86.968645
3722.000000	86.993246
3721.000000	87.023949
3720.000000	87.050031
3719.000000	87.069009
3718.000000	87.088453
3717.000000	87.114508
3716.000000	87.138385
3715.000000	87.148417
3714.000000	87.150460
3713.000000	87.165327
3712.000000	87.199297
3711.000000	87.233025
3710.000000	87.254964
3709.000000	87.275592
3708.000000	87.306191
3707.000000	87.347799
3706.000000	87.390877
3705.000000	87.424608
3704.000000	87.448955
3703.000000	87.475384
3702.000000	87.511185
3701.000000	87.549321
3700.000000	87.579246
3699.000000	87.598413
3698.000000	87.617401
3697.000000	87.651158
3696.000000	87.694977
3695.000000	87.724132
3694.000000	87.726339
3693.000000	87.718617
3692.000000	87.721013
3691.000000	87.728166
3690.000000	87.718954
3689.000000	87.694092
3688.000000	87.682504
3687.000000	87.699816
3686.000000	87.731450
3685.000000	87.765112
3684.000000	87.803270
3683.000000	87.844461
3682.000000	87.878471
3681.000000	87.902570
3680.000000	87.926939
3679.000000	87.943147
3678.000000	87.919482
3677.000000	87.859355
3676.000000	87.823024
3675.000000	87.835390
3674.000000	87.846110
3673.000000	87.811187
3672.000000	87.751162
3671.000000	87.739172
3670.000000	87.808977
3669.000000	87.901662
3668.000000	87.960831
3667.000000	87.997847
3666.000000	88.042576
3665.000000	88.105476
3664.000000	88.174851
3663.000000	88.233191
3662.000000	88.273535
3661.000000	88.297310
3660.000000	88.302661
3659.000000	88.282453
3658.000000	88.239722
3657.000000	88.195590
3656.000000	88.167740
3655.000000	88.145108
3654.000000	88.101280
3653.000000	88.029619
3652.000000	87.960261
3651.000000	87.931984
3650.000000	87.940605
3649.000000	87.944561
3648.000000	87.943953
3647.000000	87.971714
3646.000000	88.025638
3645.000000	88.078214
3644.000000	88.118281
3643.000000	88.154433
3642.000000	88.191723
3641.000000	88.219765
3640.000000	88.228163
3639.000000	88.224912
3638.000000	88.223643
3637.000000	88.223616
3636.000000	88.216949
3635.000000	88.209846
3634.000000	88.214057
3633.000000	88.215650
3632.000000	88.178936
3631.000000	88.093268
3630.000000	88.005448
3629.000000	87.965790
3628.000000	87.955197
3627.000000	87.937946
3626.000000	87.917091
3625.000000	87.913354
3624.000000	87.934371
3623.000000	87.965908
3622.000000	87.987194
3621.000000	87.996629
3620.000000	88.005836
3619.000000	88.010832
3618.000000	87.995694
3617.000000	87.957554
3616.000000	87.906972
3615.000000	87.862132
3614.000000	87.835989
3613.000000	87.818638
3612.000000	87.786865
3611.000000	87.735523
3610.000000	87.691814
3609.000000	87.693061
3608.000000	87.742768
3607.000000	87.806207
3606.000000	87.853132
3605.000000	87.880602
3604.000000	87.900465
3603.000000	87.919860
3602.000000	87.934316
3601.000000	87.935922
3600.000000	87.918992
3599.000000	87.881037
3598.000000	87.830511
3597.000000	87.784018
3596.000000	87.754563
3595.000000	87.744293
3594.000000	87.743789
3593.000000	87.737907
3592.000000	87.716210
3591.000000	87.677222
3590.000000	87.634498
3589.000000	87.615015
3588.000000	87.631777
3587.000000	87.661905
3586.000000	87.676782
3585.000000	87.675337
3584.000000	87.673099
3583.000000	87.680443
3582.000000	87.696299
3581.000000	87.713016
3580.000000	87.724072
3579.000000	87.727607
3578.000000	87.726212
3577.000000	87.723818
3576.000000	87.722412
3575.000000	87.720979
3574.000000	87.716343
3573.000000	87.702695
3572.000000	87.673077
3571.000000	87.621907
3570.000000	87.551087
3569.000000	87.481197
3568.000000	87.440960
3567.000000	87.434987
3566.000000	87.439353
3565.000000	87.437968
3564.000000	87.435962
3563.000000	87.446128
3562.000000	87.473266
3561.000000	87.509820
3560.000000	87.543432
3559.000000	87.566427
3558.000000	87.578446
3557.000000	87.582487
3556.000000	87.581333
3555.000000	87.577102
3554.000000	87.571720
3553.000000	87.564134
3552.000000	87.547535
3551.000000	87.514013
3550.000000	87.462651
3549.000000	87.405554
3548.000000	87.362868
3547.000000	87.348212
3546.000000	87.357880
3545.000000	87.377662
3544.000000	87.397481
3543.000000	87.415914
3542.000000	87.434085
3541.000000	87.450357
3540.000000	87.461402
3539.000000	87.464676
3538.000000	87.460046
3537.000000	87.448221
3536.000000	87.428150
3535.000000	87.398835
3534.000000	87.363045
3533.000000	87.329208
3532.000000	87.306525
3531.000000	87.298404
3530.000000	87.300261
3529.000000	87.304799
3528.000000	87.307609
3527.000000	87.307495
3526.000000	87.305496
3525.000000	87.304959
3524.000000	87.307926
3523.000000	87.309093
3522.000000	87.298657
3521.000000	87.273433
3520.000000	87.242104
3519.000000	87.216693
3518.000000	87.201957
3517.000000	87.195153
3516.000000	87.193440
3515.000000	87.197248
3514.000000	87.205279
3513.000000	87.211974
3512.000000	87.213080
3511.000000	87.209253
3510.000000	87.200632
3509.000000	87.182494
3508.000000	87.149545
3507.000000	87.103384
3506.000000	87.053774
3505.000000	87.013260
3504.000000	86.988796
3503.000000	86.977558
3502.000000	86.971861
3501.000000	86.967648
3500.000000	86.967249
3499.000000	86.973785
3498.000000	86.985523
3497.000000	86.995312
3496.000000	86.994864
3495.000000	86.979669
3494.000000	86.950498
3493.000000	86.911269
3492.000000	86.866862
3491.000000	86.821975
3490.000000	86.780381
3489.000000	86.745164
3488.000000	86.718171
3487.000000	86.697774
3486.000000	86.679524
3485.000000	86.660631
3484.000000	86.642679
3483.000000	86.628548
3482.000000	86.616422
3481.000000	86.599924
3480.000000	86.573903
3479.000000	86.538472
3478.000000	86.497650
3477.000000	86.456288
3476.000000	86.417903
3475.000000	86.382960
3474.000000	86.349732
3473.000000	86.317201
3472.000000	86.286491
3471.000000	86.258980
3470.000000	86.233431
3469.000000	86.206541
3468.000000	86.175953
3467.000000	86.140749
3466.000000	86.100299
3465.000000	86.054985
3464.000000	86.007777
3463.000000	85.962353
3462.000000	85.918939
3461.000000	85.874322
3460.000000	85.825868
3459.000000	85.773933
3458.000000	85.720266
3457.000000	85.665707
3456.000000	85.610802
3455.000000	85.556615
3454.000000	85.503764
3453.000000	85.452498
3452.000000	85.403062
3451.000000	85.355495
3450.000000	85.309427
3449.000000	85.264670
3448.000000	85.220795
3447.000000	85.174368
3446.000000	85.119402
3445.000000	85.053300
3444.000000	84.980345
3443.000000	84.907069
3442.000000	84.835410
3441.000000	84.763163
3440.000000	84.690784
3439.000000	84.623628
3438.000000	84.566014
3437.000000	84.516009
3436.000000	84.468008
3435.000000	84.417500
3434.000000	84.361470
3433.000000	84.297520
3432.000000	84.223684
3431.000000	84.138807
3430.000000	84.042142
3429.000000	83.933843
3428.000000	83.817027
3427.000000	83.697519
3426.000000	83.581338
3425.000000	83.472806
3424.000000	83.374738
3423.000000	83.288475
3422.000000	83.212245
3421.000000	83.140339
3420.000000	83.065286
3419.000000	82.981069
3418.000000	82.884383
3417.000000	82.774365
3416.000000	82.651971
3415.000000	82.518856
3414.000000	82.376474
3413.000000	82.227227
3412.000000	82.075997
3411.000000	81.929098
3410.000000	81.790865
3409.000000	81.661613
3408.000000	81.538629
3407.000000	81.417812
3406.000000	81.294706
3405.000000	81.165218
3404.000000	81.025927
3403.000000	80.873722
3402.000000	80.705028
3401.000000	80.517232
3400.000000	80.311415
3399.000000	80.093317
3398.000000	79.871186
3397.000000	79.652567
3396.000000	79.442461
3395.000000	79.243032
3394.000000	79.052801
3393.000000	78.865891
3392.000000	78.673214
3391.000000	78.466105
3390.000000	78.240518
3389.000000	77.997661
3388.000000	77.740786
3387.000000	77.471773
3386.000000	77.191178
3385.000000	76.901217
3384.000000	76.606178
3383.000000	76.310252
3382.000000	76.015741
3381.000000	75.723307
3380.000000	75.432154
3379.000000	75.139255
3378.000000	74.839957
3377.000000	74.530366
3376.000000	74.208410
3375.000000	73.873006
3374.000000	73.523763
3373.000000	73.161907
3372.000000	72.790212
3371.000000	72.410457
3370.000000	72.022944
3369.000000	71.628027
3368.000000	71.226871
3367.000000	70.820232
3366.000000	70.407629
3365.000000	69.988865
3364.000000	69.564335
3363.000000	69.133377
3362.000000	68.694221
3361.000000	68.245846
3360.000000	67.788697
3359.000000	67.323163
3358.000000	66.848923
3357.000000	66.366761
3356.000000	65.878283
3355.000000	65.384041
3354.000000	64.883407
3353.000000	64.376538
3352.000000	63.864697
3351.000000	63.348034
3350.000000	62.825348
3349.000000	62.296415
3348.000000	61.762396
3347.000000	61.223984
3346.000000	60.680927
3345.000000	60.134015
3344.000000	59.584952
3343.000000	59.033848
3342.000000	58.479141
3341.000000	57.919952
3340.000000	57.356735
3339.000000	56.789675
3338.000000	56.218430
3337.000000	55.643824
3336.000000	55.067492
3335.000000	54.490214
3334.000000	53.912805
3333.000000	53.337915
3332.000000	52.768324
3331.000000	52.203737
3330.000000	51.641593
3329.000000	51.080528
3328.000000	50.520706
3327.000000	49.961566
3326.000000	49.402340
3325.000000	48.844104
3324.000000	48.288303
3323.000000	47.734326
3322.000000	47.181265
3321.000000	46.631169
3320.000000	46.087687
3319.000000	45.552202
3318.000000	45.024749
3317.000000	44.506924
3316.000000	44.000501
3315.000000	43.504171
3314.000000	43.014673
3313.000000	42.530505
3312.000000	42.051404
3311.000000	41.575864
3310.000000	41.103427
3309.000000	40.637670
3308.000000	40.184188
3307.000000	39.746503
3306.000000	39.326806
3305.000000	38.928848
3304.000000	38.554467
3303.000000	38.200197
3302.000000	37.860587
3301.000000	37.533534
3300.000000	37.219364
3299.000000	36.916411
3298.000000	36.622775
3297.000000	36.340553
3296.000000	36.073102
3295.000000	35.820652
3294.000000	35.581993
3293.000000	35.359383
3292.000000	35.157236
3291.000000	34.975965
3290.000000	34.812850
3289.000000	34.666047
3288.000000	34.534784
3287.000000	34.416883
3286.000000	34.309567
3285.000000	34.212789
3284.000000	34.126828
3283.000000	34.049149
3282.000000	33.977072
3281.000000	33.911261
3280.000000	33.853553
3279.000000	33.802674
3278.000000	33.756314
3277.000000	33.715678
3276.000000	33.683478
3275.000000	33.659442
3274.000000	33.641463
3273.000000	33.629900
3272.000000	33.627162
3271.000000	33.633725
3270.000000	33.648039
3269.000000	33.668563
3268.000000	33.692748
3267.000000	33.716406
3266.000000	33.737145
3265.000000	33.757142
3264.000000	33.779630
3263.000000	33.804673
3262.000000	33.831449
3261.000000	33.861233
3260.000000	33.894950
3259.000000	33.930331
3258.000000	33.965238
3257.000000	34.001824
3256.000000	34.043342
3255.000000	34.089123
3254.000000	34.136094
3253.000000	34.183126
3252.000000	34.230191
3251.000000	34.275551
3250.000000	34.317790
3249.000000	34.359227
3248.000000	34.403789
3247.000000	34.452763
3246.000000	34.505154
3245.000000	34.560097
3244.000000	34.616168
3243.000000	34.670646
3242.000000	34.722634
3241.000000	34.774657
3240.000000	34.828705
3239.000000	34.882794
3238.000000	34.934138
3237.000000	34.983024
3236.000000	35.031097
3235.000000	35.078682
3234.000000	35.126761
3233.000000	35.178333
3232.000000	35.234081
3231.000000	35.289548
3230.000000	35.340168
3229.000000	35.386515
3228.000000	35.431517
3227.000000	35.475374
3226.000000	35.516896
3225.000000	35.557245
3224.000000	35.598058
3223.000000	35.638165
3222.000000	35.675684
3221.000000	35.711285
3220.000000	35.746065
3219.000000	35.778243
3218.000000	35.805579
3217.000000	35.828877
3216.000000	35.849920
3215.000000	35.868148
3214.000000	35.882420
3213.000000	35.894243
3212.000000	35.905758
3211.000000	35.916441
3210.000000	35.924907
3209.000000	35.931778
3208.000000	35.938015
3207.000000	35.942316
3206.000000	35.942947
3205.000000	35.940203
3204.000000	35.934203
3203.000000	35.922803
3202.000000	35.904522
3201.000000	35.881120
3200.000000	35.854969
3199.000000	35.825880
3198.000000	35.793414
3197.000000	35.759551
3196.000000	35.726122
3195.000000	35.692167
3194.000000	35.656334
3193.000000	35.619364
3192.000000	35.581557
3191.000000	35.540442
3190.000000	35.494119
3189.000000	35.444175
3188.000000	35.392598
3187.000000	35.338661
3186.000000	35.281624
3185.000000	35.223675
3184.000000	35.167223
3183.000000	35.112009
3182.000000	35.057767
3181.000000	35.006812
3180.000000	34.960745
3179.000000	34.917415
3178.000000	34.874228
3177.000000	34.831815
3176.000000	34.791556
3175.000000	34.752267
3174.000000	34.712648
3173.000000	34.674258
3172.000000	34.638926
3171.000000	34.605986
3170.000000	34.574808
3169.000000	34.547377
3168.000000	34.525489
3167.000000	34.507931
3166.000000	34.493434
3165.000000	34.483321
3164.000000	34.478639
3163.000000	34.477620
3162.000000	34.478587
3161.000000	34.482674
3160.000000	34.490756
3159.000000	34.500880
3158.000000	34.511606
3157.000000	34.524525
3156.000000	34.541051
3155.000000	34.560116
3154.000000	34.582019
3153.000000	34.611083
3152.000000	34.650524
3151.000000	34.697888
3150.000000	34.748591
3149.000000	34.801140
3148.000000	34.856021
3147.000000	34.912469
3146.000000	34.969972
3145.000000	35.030136
3144.000000	35.093658
3143.000000	35.158221
3142.000000	35.222256
3141.000000	35.288503
3140.000000	35.360728
3139.000000	35.439227
3138.000000	35.522189
3137.000000	35.608673
3136.000000	35.697626
3135.000000	35.786736
3134.000000	35.874845
3133.000000	35.963714
3132.000000	36.055135
3131.000000	36.149151
3130.000000	36.246670
3129.000000	36.350210
3128.000000	36.459820
3127.000000	36.571375
3126.000000	36.681365
3125.000000	36.790281
3124.000000	36.899110
3123.000000	37.006351
3122.000000	37.111512
3121.000000	37.218025
3120.000000	37.329535
3119.000000	37.446077
3118.000000	37.566783
3117.000000	37.693140
3116.000000	37.826500
3115.000000	37.965132
3114.000000	38.106126
3113.000000	38.248012
3112.000000	38.389304
3111.000000	38.527847
3110.000000	38.663966
3109.000000	38.801288
3108.000000	38.941964
3107.000000	39.083901
3106.000000	39.224702
3105.000000	39.365263
3104.000000	39.507297
3103.000000	39.650591
3102.000000	39.795602
3101.000000	39.945194
3100.000000	40.101164
3099.000000	40.261339
3098.000000	40.422689
3097.000000	40.584330
3096.000000	40.745285
3095.000000	40.902613
3094.000000	41.054670
3093.000000	41.203799
3092.000000	41.353335
3091.000000	41.504351
3090.000000	41.657217
3089.000000	41.813491
3088.000000	41.973788
3087.000000	42.136390
3086.000000	42.300143
3085.000000	42.466272
3084.000000	42.635189
3083.000000	42.804058
3082.000000	42.970022
3081.000000	43.133357
3080.000000	43.295682
3079.000000	43.457440
3078.000000	43.619178
3077.000000	43.782575
3076.000000	43.948124
3075.000000	44.114107
3074.000000	44.279546
3073.000000	44.445756
3072.000000	44.613218
3071.000000	44.779732
3070.000000	44.943886
3069.000000	45.107655
3068.000000	45.273417
3067.000000	45.440529
3066.000000	45.606873
3065.000000	45.771640
3064.000000	45.934653
3063.000000	46.095227
3062.000000	46.253618
3061.000000	46.411689
3060.000000	46.570496
3059.000000	46.729189
3058.000000	46.887509
3057.000000	47.046993
3056.000000	47.208158
3055.000000	47.368932
3054.000000	47.527457
3053.000000	47.684578
3052.000000	47.841974
3051.000000	47.999929
3050.000000	48.158187
3049.000000	48.316607
3048.000000	48.473832
3047.000000	48.627557
3046.000000	48.777585
3045.000000	48.926467
3044.000000	49.076063
3043.000000	49.225786
3042.000000	49.375307
3041.000000	49.525964
3040.000000	49.678054
3039.000000	49.829208
3038.000000	49.977540
3037.000000	50.124246
3036.000000	50.271544
3035.000000	50.420143
3034.000000	50.570051
3033.000000	50.721409
3032.000000	50.872812
3031.000000	51.021053
3030.000000	51.164343
3029.000000	51.303880
3028.000000	51.441143
3027.000000	51.575996
3026.000000	51.708993
3025.000000	51.843021
3024.000000	51.980632
3023.000000	52.121543
3022.000000	52.264282
3021.000000	52.408315
3020.000000	52.552979
3019.000000	52.696045
3018.000000	52.835269
3017.000000	52.969880
3016.000000	53.099627
3015.000000	53.224259
3014.000000	53.345256
3013.000000	53.466283
3012.000000	53.590288
3011.000000	53.717627
3010.000000	53.847820
3009.000000	53.981240
3008.000000	54.117912
3007.000000	54.256485
3006.000000	54.395623
3005.000000	54.534709
3004.000000	54.672233
3003.000000	54.805143
3002.000000	54.931088
3001.000000	55.049930
3000.000000	55.162640
2999.000000	55.270576
2998.000000	55.376589
2997.000000	55.484488
2996.000000	55.596234
2995.000000	55.711455
2994.000000	55.830358
2993.000000	55.954940
2992.000000	56.085797
2991.000000	56.219884
2990.000000	56.352848
2989.000000	56.481957
2988.000000	56.605562
2987.000000	56.721894
2986.000000	56.830149
2985.000000	56.931605
2984.000000	57.028464
2983.000000	57.122942
2982.000000	57.218377
2981.000000	57.319167
2980.000000	57.427884
2979.000000	57.543306
2978.000000	57.662424
2977.000000	57.783012
2976.000000	57.903463
2975.000000	58.021707
2974.000000	58.135971
2973.000000	58.245461
2972.000000	58.349583
2971.000000	58.447777
2970.000000	58.541105
2969.000000	58.632737
2968.000000	58.725701
2967.000000	58.821390
2966.000000	58.920665
2965.000000	59.024845
2964.000000	59.134342
2963.000000	59.247710
2962.000000	59.362859
2961.000000	59.478039
2960.000000	59.591010
2959.000000	59.699191
2958.000000	59.801406
2957.000000	59.898130
2956.000000	59.989526
2955.000000	60.075314
2954.000000	60.157389
2953.000000	60.240029
2952.000000	60.326074
2951.000000	60.414430
2950.000000	60.502832
2949.000000	60.591233
2948.000000	60.681125
2947.000000	60.773088
2946.000000	60.866676
2945.000000	60.961598
2944.000000	61.057386
2943.000000	61.152624
2942.000000	61.245625
2941.000000	61.335515
2940.000000	61.422050
2939.000000	61.505480
2938.000000	61.587205
2937.000000	61.669430
2936.000000	61.753314
2935.000000	61.838240
2934.000000	61.923470
2933.000000	62.009339
2932.000000	62.096456
2931.000000	62.184977
2930.000000	62.275153
2929.000000	62.367030
2928.000000	62.458895
2927.000000	62.547480
2926.000000	62.630680
2925.000000	62.708868
2924.000000	62.783239
2923.000000	62.854295
2922.000000	62.922743
2921.000000	62.990281
2920.000000	63.058551
2919.000000	63.128480
2918.000000	63.201032
2917.000000	63.277388
2916.000000	63.357615
2915.000000	63.440292
2914.000000	63.523830
2913.000000	63.607062
2912.000000	63.688400
2911.000000	63.765963
2910.000000	63.839088
2909.000000	63.908769
2908.000000	63.976028
2907.000000	64.041393
2906.000000	64.106048
2905.000000	64.172215
2904.000000	64.241666
2903.000000	64.314850
2902.000000	64.391584
2901.000000	64.472531
2900.000000	64.556428
2899.000000	64.641031
2898.000000	64.724364
2897.000000	64.805283
2896.000000	64.882342
2895.000000	64.953630
2894.000000	65.018561
2893.000000	65.078829
2892.000000	65.136949
2891.000000	65.194976
2890.000000	65.254956
2889.000000	65.319235
2888.000000	65.389146
2887.000000	65.464190
2886.000000	65.542990
2885.000000	65.624113
2884.000000	65.705495
2883.000000	65.784313
2882.000000	65.858360
2881.000000	65.926874
2880.000000	65.989857
2879.000000	66.047893
2878.000000	66.103528
2877.000000	66.161444
2876.000000	66.225482
2875.000000	66.295333
2874.000000	66.367005
2873.000000	66.436539
2872.000000	66.503141
2871.000000	66.569204
2870.000000	66.637710
2869.000000	66.709339
2868.000000	66.781540
2867.000000	66.850336
2866.000000	66.913034
2865.000000	66.969545
2864.000000	67.022021
2863.000000	67.073788
2862.000000	67.127838
2861.000000	67.185093
2860.000000	67.244243
2859.000000	67.304162
2858.000000	67.366062
2857.000000	67.432258
2856.000000	67.503215
2855.000000	67.576941
2854.000000	67.650920
2853.000000	67.723356
2852.000000	67.793017
2851.000000	67.859355
2850.000000	67.922778
2849.000000	67.983577
2848.000000	68.041008
2847.000000	68.094969
2846.000000	68.148448
2845.000000	68.206444
2844.000000	68.272488
2843.000000	68.347285
2842.000000	68.430012
2841.000000	68.518158
2840.000000	68.605862
2839.000000	68.685318
2838.000000	68.752008
2837.000000	68.807651
2836.000000	68.857151
2835.000000	68.904079
2834.000000	68.949945
2833.000000	68.996115
2832.000000	69.044440
2831.000000	69.096415
2830.000000	69.153005
2829.000000	69.214979
2828.000000	69.282416
2827.000000	69.353980
2826.000000	69.427398
2825.000000	69.500504
2824.000000	69.571464
2823.000000	69.638649
2822.000000	69.701148
2821.000000	69.759225
2820.000000	69.813905
2819.000000	69.866392
2818.000000	69.918134
2817.000000	69.970886
2816.000000	70.026206
2815.000000	70.085089
2814.000000	70.148169
2813.000000	70.215508
2812.000000	70.285678
2811.000000	70.355604
2810.000000	70.422069
2809.000000	70.483334
2808.000000	70.539252
2807.000000	70.590468
2806.000000	70.637981
2805.000000	70.683020
2804.000000	70.726799
2803.000000	70.770472
2802.000000	70.815361
2801.000000	70.862812
2800.000000	70.913428
2799.000000	70.966729
2798.000000	71.021736
2797.000000	71.077446
2796.000000	71.132566
2795.000000	71.185455
2794.000000	71.234899
2793.000000	71.280690
2792.000000	71.323287
2791.000000	71.363331
2790.000000	71.401818
2789.000000	71.440316
2788.000000	71.480551
2787.000000	71.523889
2786.000000	71.571262
2785.000000	71.623056
2784.000000	71.678570
2783.000000	71.735827
2782.000000	71.792352
2781.000000	71.846094
2780.000000	71.895666
2779.000000	71.940358
2778.000000	71.980373
2777.000000	72.016805
2776.000000	72.051048
2775.000000	72.084203
2774.000000	72.117118
2773.000000	72.150609
2772.000000	72.185192
2771.000000	72.220723
2770.000000	72.256381
2769.000000	72.290730
2768.000000	72.321800
2767.000000	72.347529
2766.000000	72.366702
2765.000000	72.379381
2764.000000	72.386381
2763.000000	72.388750
2762.000000	72.387857
2761.000000	72.385594
2760.000000	72.384013
2759.000000	72.384646
2758.000000	72.388292
2757.000000	72.394910
2756.000000	72.403347
2755.000000	72.411472
2754.000000	72.417043
2753.000000	72.418613
2752.000000	72.415537
2751.000000	72.407576
2750.000000	72.394873
2749.000000	72.378028
2748.000000	72.357852
2747.000000	72.334958
2746.000000	72.309840
2745.000000	72.283289
2744.000000	72.256128
2743.000000	72.228459
2742.000000	72.199169
2741.000000	72.166402
2740.000000	72.128989
2739.000000	72.087813
2738.000000	72.045884
2737.000000	72.006905
2736.000000	71.973697
2735.000000	71.948115
2734.000000	71.932232
2733.000000	71.928491
2732.000000	71.938732
2731.000000	71.963591
2730.000000	72.002622
2729.000000	72.054842
2728.000000	72.118439
2727.000000	72.190666
2726.000000	72.268666
2725.000000	72.349890
2724.000000	72.432406
2723.000000	72.515222
2722.000000	72.598418
2721.000000	72.682584
2720.000000	72.767552
2719.000000	72.852063
2718.000000	72.934707
2717.000000	73.014684
2716.000000	73.091493
2715.000000	73.164428
2714.000000	73.232615
2713.000000	73.295409
2712.000000	73.352620
2711.000000	73.404449
2710.000000	73.451634
2709.000000	73.495200
2708.000000	73.535818
2707.000000	73.573603
2706.000000	73.608310
2705.000000	73.639727
2704.000000	73.667514
2703.000000	73.691017
2702.000000	73.709753
2701.000000	73.723804
2700.000000	73.733841
2699.000000	73.740863
2698.000000	73.746109
2697.000000	73.751087
2696.000000	73.757168
2695.000000	73.765150
2694.000000	73.775187
2693.000000	73.786782
2692.000000	73.798684
2691.000000	73.809000
2690.000000	73.815895
2689.000000	73.818240
2688.000000	73.815576
2687.000000	73.807933
2686.000000	73.796045
2685.000000	73.781748
2684.000000	73.767765
2683.000000	73.756829
2682.000000	73.750990
2681.000000	73.751310
2680.000000	73.757663
2679.000000	73.768615
2678.000000	73.781759
2677.000000	73.794300
2676.000000	73.803633
2675.000000	73.807811
2674.000000	73.805996
2673.000000	73.798783
2672.000000	73.788253
2671.000000	73.777807
2670.000000	73.771692
2669.000000	73.774020
2668.000000	73.787577
2667.000000	73.812978
2666.000000	73.848736
2665.000000	73.891746
2664.000000	73.937577
2663.000000	73.981155
2662.000000	74.017804
2661.000000	74.044136
2660.000000	74.058481
2659.000000	74.061037
2658.000000	74.053926
2657.000000	74.041095
2656.000000	74.027640
2655.000000	74.018607
2654.000000	74.017967
2653.000000	74.027836
2652.000000	74.048047
2651.000000	74.076443
2650.000000	74.109829
2649.000000	74.144738
2648.000000	74.177887
2647.000000	74.206583
2646.000000	74.229334
2645.000000	74.246490
2644.000000	74.260224
2643.000000	74.274133
2642.000000	74.292631
2641.000000	74.319978
2640.000000	74.359142
2639.000000	74.410866
2638.000000	74.473914
2637.000000	74.545762
2636.000000	74.622784
2635.000000	74.700286
2634.000000	74.772909
2633.000000	74.835845
2632.000000	74.886168
2631.000000	74.923431
2630.000000	74.949244
2629.000000	74.966791
2628.000000	74.980245
2627.000000	74.993933
2626.000000	75.011610
2625.000000	75.035740
2624.000000	75.067195
2623.000000	75.105164
2622.000000	75.147223
2621.000000	75.189781
2620.000000	75.228798
2619.000000	75.260575
2618.000000	75.282316
2617.000000	75.292534
2616.000000	75.291538
2615.000000	75.281318
2614.000000	75.264958
2613.000000	75.245842
2612.000000	75.226803
2611.000000	75.209962
2610.000000	75.196678
2609.000000	75.187502
2608.000000	75.182074
2607.000000	75.179201
2606.000000	75.177374
2605.000000	75.175413
2604.000000	75.172759
2603.000000	75.169326
2602.000000	75.165545
2601.000000	75.162464
2600.000000	75.161794
2599.000000	75.165609
2598.000000	75.175752
2597.000000	75.193596
2596.000000	75.219730
2595.000000	75.253904
2594.000000	75.295319
2593.000000	75.342811
2592.000000	75.395315
2591.000000	75.451675
2590.000000	75.510394
2589.000000	75.569828
2588.000000	75.628583
2587.000000	75.685924
2586.000000	75.741578
2585.000000	75.795412
2584.000000	75.847409
2583.000000	75.897785
2582.000000	75.946942
2581.000000	75.995511
2580.000000	76.044617
2579.000000	76.095983
2578.000000	76.151339
2577.000000	76.211623
2576.000000	76.276615
2575.000000	76.345180
2574.000000	76.415642
2573.000000	76.485880
2572.000000	76.553391
2571.000000	76.615473
2570.000000	76.669614
2569.000000	76.713840
2568.000000	76.747387
2567.000000	76.770873
2566.000000	76.786157
2565.000000	76.796227
2564.000000	76.804572
2563.000000	76.814509
2562.000000	76.828262
2561.000000	76.846489
2560.000000	76.868339
2559.000000	76.891475
2558.000000	76.912464
2557.000000	76.927718
2556.000000	76.934775
2555.000000	76.933154
2554.000000	76.924239
2553.000000	76.911004
2552.000000	76.897822
2551.000000	76.890110
2550.000000	76.893375
2549.000000	76.912290
2548.000000	76.949664
2547.000000	77.005831
2546.000000	77.078744
2545.000000	77.163992
2544.000000	77.255721
2543.000000	77.347364
2542.000000	77.432510
2541.000000	77.506037
2540.000000	77.564971
2539.000000	77.608659
2538.000000	77.638598
2537.000000	77.658472
2536.000000	77.673745
2535.000000	77.690725
2534.000000	77.714959
2533.000000	77.750279
2532.000000	77.798413
2531.000000	77.858540
2530.000000	77.926928
2529.000000	77.997614
2528.000000	78.063984
2527.000000	78.120238
2526.000000	78.162170
2525.000000	78.188005
2524.000000	78.198995
2523.000000	78.199077
2522.000000	78.193913
2521.000000	78.189773
2520.000000	78.192888
2519.000000	78.208161
2518.000000	78.237805
2517.000000	78.280898
2516.000000	78.334235
2515.000000	78.392962
2514.000000	78.451038
2513.000000	78.502233
2512.000000	78.541621
2511.000000	78.566523
2510.000000	78.576689
2509.000000	78.574516
2508.000000	78.565002
2507.000000	78.554897
2506.000000	78.550649
2505.000000	78.557010
2504.000000	78.576494
2503.000000	78.609201
2502.000000	78.652576
2501.000000	78.702088
2500.000000	78.752367
2499.000000	78.798011
2498.000000	78.834149
2497.000000	78.857483
2496.000000	78.867465
2495.000000	78.866296
2494.000000	78.857968
2493.000000	78.847329
2492.000000	78.839783
2491.000000	78.840128
2490.000000	78.851099
2489.000000	78.872875
2488.000000	78.903814
2487.000000	78.940866
2486.000000	78.979659
2485.000000	79.015256
2484.000000	79.043721
2483.000000	79.063070
2482.000000	79.073036
2481.000000	79.074791
2480.000000	79.070939
2479.000000	79.065170
2478.000000	79.061139
2477.000000	79.061815
2476.000000	79.069184
2475.000000	79.083839
2474.000000	79.104611
2473.000000	79.129167
2472.000000	79.154914
2471.000000	79.179294
2470.000000	79.199812
2469.000000	79.214803
2468.000000	79.224338
2467.000000	79.229761
2466.000000	79.232516
2465.000000	79.233964
2464.000000	79.236072
2463.000000	79.240881
2462.000000	79.249159
2461.000000	79.260149
2460.000000	79.272700
2459.000000	79.285906
2458.000000	79.298765
2457.000000	79.310288
2456.000000	79.320289
2455.000000	79.329487
2454.000000	79.338670
2453.000000	79.348412
2452.000000	79.359447
2451.000000	79.372397
2450.000000	79.386893
2449.000000	79.401612
2448.000000	79.415254
2447.000000	79.426880
2446.000000	79.435520
2445.000000	79.440454
2444.000000	79.442245
2443.000000	79.442709
2442.000000	79.443833
2441.000000	79.447305
2440.000000	79.454908
2439.000000	79.468128
2438.000000	79.486946
2437.000000	79.509671
2436.000000	79.533965
2435.000000	79.557407
2434.000000	79.577197
2433.000000	79.590672
2432.000000	79.596730
2431.000000	79.596265
2430.000000	79.591054
2429.000000	79.583367
2428.000000	79.576643
2427.000000	79.575245
2426.000000	79.582532
2425.000000	79.599357
2424.000000	79.624443
2423.000000	79.655346
2422.000000	79.688758
2421.000000	79.720551
2420.000000	79.746587
2419.000000	79.763556
2418.000000	79.769686
2417.000000	79.765498
2416.000000	79.754397
2415.000000	79.741617
2414.000000	79.732205
2413.000000	79.729959
2412.000000	79.737682
2411.000000	79.756934
2410.000000	79.786913
2409.000000	79.824128
2408.000000	79.863461
2407.000000	79.899603
2406.000000	79.927822
2405.000000	79.944930
2404.000000	79.950292
2403.000000	79.945940
2402.000000	79.935506
2401.000000	79.923567
2400.000000	79.915258
2399.000000	79.915205
2398.000000	79.926088
2397.000000	79.948295
2396.000000	79.980486
2395.000000	80.019640
2394.000000	80.060957
2393.000000	80.098827
2392.000000	80.128780
2391.000000	80.148275
2390.000000	80.156566
2389.000000	80.154975
2388.000000	80.147624
2387.000000	80.140339
2386.000000	80.138381
2385.000000	80.145337
2384.000000	80.163466
2383.000000	80.193768
2382.000000	80.235108
2381.000000	80.284158
2380.000000	80.336659
2379.000000	80.388366
2378.000000	80.435364
2377.000000	80.474845
2376.000000	80.505966
2375.000000	80.529437
2374.000000	80.546624
2373.000000	80.559963
2372.000000	80.574048
2371.000000	80.594175
2370.000000	80.622983
2369.000000	80.659742
2368.000000	80.702460
2367.000000	80.748709
2366.000000	80.794475
2365.000000	80.834944
2364.000000	80.867904
2363.000000	80.892714
2362.000000	80.909985
2361.000000	80.922599
2360.000000	80.934363
2359.000000	80.950619
2358.000000	80.974556
2357.000000	81.006392
2356.000000	81.046514
2355.000000	81.090970
2354.000000	81.133626
2353.000000	81.168360
2352.000000	81.196761
2351.000000	81.224749
2350.000000	81.253844
2349.000000	81.284078
2348.000000	81.314056
2347.000000	81.344155
2346.000000	81.374737
2345.000000	81.403940
2344.000000	81.432562
2343.000000	81.459894
2342.000000	81.490539
2341.000000	81.526715
2340.000000	81.567324
2339.000000	81.609195
2338.000000	81.647422
2337.000000	81.679500
2336.000000	81.704565
2335.000000	81.725240
2334.000000	81.741690
2333.000000	81.754908
2332.000000	81.765266
2331.000000	81.778482
2330.000000	81.795190
2329.000000	81.819883
2328.000000	81.852358
2327.000000	81.895192
2326.000000	81.944999
2325.000000	81.995954
2324.000000	82.043582
2323.000000	82.085320
2322.000000	82.121117
2321.000000	82.149544
2320.000000	82.170081
2319.000000	82.184850
2318.000000	82.195696
2317.000000	82.206248
2316.000000	82.217722
2315.000000	82.234157
2314.000000	82.255493
2313.000000	82.283445
2312.000000	82.316274
2311.000000	82.354796
2310.000000	82.395520
2309.000000	82.436371
2308.000000	82.473985
2307.000000	82.508349
2306.000000	82.537566
2305.000000	82.560950
2304.000000	82.578080
2303.000000	82.591910
2302.000000	82.604368
2301.000000	82.617989
2300.000000	82.634225
2299.000000	82.656089
2298.000000	82.683880
2297.000000	82.717147
2296.000000	82.754169
2295.000000	82.794707
2294.000000	82.836951
2293.000000	82.878109
2292.000000	82.915014
2291.000000	82.945876
2290.000000	82.969446
2289.000000	82.985141
2288.000000	82.994198
2287.000000	82.999414
2286.000000	83.003777
2285.000000	83.009698
2284.000000	83.020312
2283.000000	83.038717
2282.000000	83.066270
2281.000000	83.101744
2280.000000	83.143093
2279.000000	83.187824
2278.000000	83.232129
2277.000000	83.271187
2276.000000	83.301455
2275.000000	83.321821
2274.000000	83.332398
2273.000000	83.334312
2272.000000	83.330590
2271.000000	83.325888
2270.000000	83.324338
2269.000000	83.328993
2268.000000	83.342807
2267.000000	83.368224
2266.000000	83.404767
2265.000000	83.448729
2264.000000	83.495193
2263.000000	83.539569
2262.000000	83.577084
2261.000000	83.603242
2260.000000	83.615937
2259.000000	83.615919
2258.000000	83.605581
2257.000000	83.588333
2256.000000	83.569340
2255.000000	83.554378
2254.000000	83.547400
2253.000000	83.550052
2252.000000	83.562980
2251.000000	83.585710
2250.000000	83.614797
2249.000000	83.644550
2248.000000	83.668380
2247.000000	83.681891
2246.000000	83.681100
2245.000000	83.663268
2244.000000	83.628879
2243.000000	83.581534
2242.000000	83.525568
2241.000000	83.465490
2240.000000	83.406970
2239.000000	83.356202
2238.000000	83.317229
2237.000000	83.291384
2236.000000	83.278833
2235.000000	83.278646
2234.000000	83.287108
2233.000000	83.298125
2232.000000	83.306258
2231.000000	83.308143
2230.000000	83.301496
2229.000000	83.284994
2228.000000	83.259973
2227.000000	83.230346
2226.000000	83.200437
2225.000000	83.174162
2224.000000	83.156152
2223.000000	83.150962
2222.000000	83.160278
2221.000000	83.181959
2220.000000	83.212127
2219.000000	83.246486
2218.000000	83.279588
2217.000000	83.305233
2216.000000	83.318835
2215.000000	83.318654
2214.000000	83.304634
2213.000000	83.278229
2212.000000	83.243572
2211.000000	83.207095
2210.000000	83.174972
2209.000000	83.152025
2208.000000	83.142274
2207.000000	83.148288
2206.000000	83.169305
2205.000000	83.201398
2204.000000	83.239789
2203.000000	83.279437
2202.000000	83.313916
2201.000000	83.336252
2200.000000	83.342368
2199.000000	83.332235
2198.000000	83.308052
2197.000000	83.273269
2196.000000	83.233768
2195.000000	83.197213
2194.000000	83.170175
2193.000000	83.156700
2192.000000	83.159199
2191.000000	83.178383
2190.000000	83.211316
2189.000000	83.251432
2188.000000	83.291152
2187.000000	83.323779
2186.000000	83.343087
2185.000000	83.344239
2184.000000	83.326239
2183.000000	83.292482
2182.000000	83.248603
2181.000000	83.201358
2180.000000	83.158991
2179.000000	83.129883
2178.000000	83.119550
2177.000000	83.129541
2176.000000	83.159043
2175.000000	83.205126
2174.000000	83.261439
2173.000000	83.318763
2172.000000	83.368314
2171.000000	83.403601
2170.000000	83.420067
2169.000000	83.415983
2168.000000	83.394665
2167.000000	83.363835
2166.000000	83.331952
2165.000000	83.306284
2164.000000	83.293526
2163.000000	83.299320
2162.000000	83.325667
2161.000000	83.370413
2160.000000	83.429200
2159.000000	83.496155
2158.000000	83.562571
2157.000000	83.618287
2156.000000	83.655970
2155.000000	83.673252
2154.000000	83.671076
2153.000000	83.652560
2152.000000	83.624079
2151.000000	83.594605
2150.000000	83.572441
2149.000000	83.563391
2148.000000	83.571729
2147.000000	83.599703
2146.000000	83.645371
2145.000000	83.702698
2144.000000	83.764587
2143.000000	83.824533
2142.000000	83.875629
2141.000000	83.911244
2140.000000	83.928218
2139.000000	83.927944
2138.000000	83.913994
2137.000000	83.891193
2136.000000	83.867006
2135.000000	83.850615
2134.000000	83.848680
2133.000000	83.863511
2132.000000	83.895010
2131.000000	83.941802
2130.000000	83.999675
2129.000000	84.061579
2128.000000	84.120529
2127.000000	84.171206
2126.000000	84.208909
2125.000000	84.229810
2124.000000	84.233695
2123.000000	84.224395
2122.000000	84.207186
2121.000000	84.187500
2120.000000	84.172156
2119.000000	84.168173
2118.000000	84.179147
2117.000000	84.204509
2116.000000	84.242586
2115.000000	84.291922
2114.000000	84.349002
2113.000000	84.407410
2112.000000	84.460549
2111.000000	84.503459
2110.000000	84.531844
2109.000000	84.542800
2108.000000	84.537642
2107.000000	84.521602
2106.000000	84.500143
2105.000000	84.477711
2104.000000	84.460018
2103.000000	84.453580
2102.000000	84.462018
2101.000000	84.484663
2100.000000	84.519135
2099.000000	84.562848
2098.000000	84.610229
2097.000000	84.653045
2096.000000	84.684439
2095.000000	84.700931
2094.000000	84.700249
2093.000000	84.680484
2092.000000	84.643133
2091.000000	84.594746
2090.000000	84.544393
2089.000000	84.500989
2088.000000	84.472842
2087.000000	84.466731
2086.000000	84.484825
2085.000000	84.523894
2084.000000	84.578188
2083.000000	84.641280
2082.000000	84.704715
2081.000000	84.758771
2080.000000	84.796051
2079.000000	84.813892
2078.000000	84.812015
2077.000000	84.792163
2076.000000	84.760408
2075.000000	84.727231
2074.000000	84.704217
2073.000000	84.699391
2072.000000	84.718229
2071.000000	84.764018
2070.000000	84.835214
2069.000000	84.923747
2068.000000	85.017429
2067.000000	85.103513
2066.000000	85.171077
2065.000000	85.213957
2064.000000	85.232678
2063.000000	85.232138
2062.000000	85.217274
2061.000000	85.193294
2060.000000	85.169274
2059.000000	85.157541
2058.000000	85.167891
2057.000000	85.204320
2056.000000	85.266704
2055.000000	85.351327
2054.000000	85.449763
2053.000000	85.549405
2052.000000	85.638387
2051.000000	85.708184
2050.000000	85.752164
2049.000000	85.766170
2048.000000	85.753550
2047.000000	85.725364
2046.000000	85.694466
2045.000000	85.671236
2044.000000	85.664087
2043.000000	85.679695
2042.000000	85.721342
2041.000000	85.788649
2040.000000	85.877967
2039.000000	85.981137
2038.000000	86.084651
2037.000000	86.173371
2036.000000	86.237309
2035.000000	86.273675
2034.000000	86.283937
2033.000000	86.273280
2032.000000	86.252179
2031.000000	86.233891
2030.000000	86.229255
2029.000000	86.244400
2028.000000	86.284353
2027.000000	86.350672
2026.000000	86.439261
2025.000000	86.539074
2024.000000	86.639078
2023.000000	86.731695
2022.000000	86.809963
2021.000000	86.866037
2020.000000	86.894139
2019.000000	86.893596
2018.000000	86.870412
2017.000000	86.839169
2016.000000	86.819663
2015.000000	86.826843
2014.000000	86.864154
2013.000000	86.926709
2012.000000	87.007805
2011.000000	87.100299
2010.000000	87.195335
2009.000000	87.283265
2008.000000	87.358065
2007.000000	87.416409
2006.000000	87.457254
2005.000000	87.481190
2004.000000	87.493245
2003.000000	87.501241
2002.000000	87.510033
2001.000000	87.525665
2000.000000	87.552648
1999.000000	87.595786
1998.000000	87.657229
1997.000000	87.734196
1996.000000	87.818388
1995.000000	87.897178
1994.000000	87.957012
1993.000000	87.992370
1992.000000	88.012184
1991.000000	88.029565
1990.000000	88.047075
1989.000000	88.061340
1988.000000	88.075638
1987.000000	88.096682
1986.000000	88.125046
1985.000000	88.157192
1984.000000	88.193223
1983.000000	88.235290
1982.000000	88.278759
1981.000000	88.318872
1980.000000	88.355000
1979.000000	88.391202
1978.000000	88.426172
1977.000000	88.455001
1976.000000	88.478572
1975.000000	88.502658
1974.000000	88.528397
1973.000000	88.552982
1972.000000	88.578360
1971.000000	88.607877
1970.000000	88.634528
1969.000000	88.644449
1968.000000	88.635616
1967.000000	88.623485
1966.000000	88.623652
1965.000000	88.638667
1964.000000	88.666702
1963.000000	88.706524
1962.000000	88.751639
1961.000000	88.792641
1960.000000	88.828379
1959.000000	88.863669
1958.000000	88.894897
1957.000000	88.911239
1956.000000	88.911010
1955.000000	88.903370
1954.000000	88.895857
1953.000000	88.887668
1952.000000	88.884436
1951.000000	88.895045
1950.000000	88.919710
1949.000000	88.954234
1948.000000	88.999911
1947.000000	89.058590
1946.000000	89.118336
1945.000000	89.156821
1944.000000	89.161830
1943.000000	89.140632
1942.000000	89.111034
1941.000000	89.082998
1940.000000	89.059367
1939.000000	89.046426
1938.000000	89.046540
1937.000000	89.053877
1936.000000	89.067655
1935.000000	89.096008
1934.000000	89.142011
1933.000000	89.194139
1932.000000	89.244600
1931.000000	89.289727
1930.000000	89.322646
1929.000000	89.338440
1928.000000	89.336912
1927.000000	89.330214
1926.000000	89.315579
1925.000000	89.285012
1924.000000	89.242705
1923.000000	89.208754
1922.000000	89.199356
1921.000000	89.210595
1920.000000	89.237295
1919.000000	89.285805
1918.000000	89.348265
1917.000000	89.402174
1916.000000	89.428358
1915.000000	89.432334
1914.000000	89.431195
1913.000000	89.423588
1912.000000	89.398378
1911.000000	89.356357
1910.000000	89.314490
1909.000000	89.291736
1908.000000	89.293569
1907.000000	89.326775
1906.000000	89.385079
1905.000000	89.452685
1904.000000	89.512329
1903.000000	89.551591
1902.000000	89.568239
1901.000000	89.565820
1900.000000	89.545942
1899.000000	89.516432
1898.000000	89.481118
1897.000000	89.441285
1896.000000	89.406216
1895.000000	89.395293
1894.000000	89.420702
1893.000000	89.470439
1892.000000	89.521136
1891.000000	89.558446
1890.000000	89.578692
1889.000000	89.585650
1888.000000	89.579159
1887.000000	89.555135
1886.000000	89.517495
1885.000000	89.473046
1884.000000	89.429069
1883.000000	89.394790
1882.000000	89.381606
1881.000000	89.394329
1880.000000	89.424889
1879.000000	89.467448
1878.000000	89.517847
1877.000000	89.563829
1876.000000	89.597225
1875.000000	89.620053
1874.000000	89.630236
1873.000000	89.616661
1872.000000	89.573029
1871.000000	89.507492
1870.000000	89.429610
1869.000000	89.350877
1868.000000	89.299369
1867.000000	89.294310
1866.000000	89.333646
1865.000000	89.404297
1864.000000	89.483312
1863.000000	89.544878
1862.000000	89.574641
1861.000000	89.572640
1860.000000	89.542864
1859.000000	89.491838
1858.000000	89.431106
1857.000000	89.373364
1856.000000	89.326678
1855.000000	89.297224
1854.000000	89.289196
1853.000000	89.310591
1852.000000	89.348666
1851.000000	89.395886
1850.000000	89.448735
1849.000000	89.485522
1848.000000	89.475152
1847.000000	89.414315
1846.000000	89.340040
1845.000000	89.284348
1844.000000	89.246598
1843.000000	89.209546
1842.000000	89.158767
1841.000000	89.112692
1840.000000	89.101909
1839.000000	89.127491
1838.000000	89.153365
1837.000000	89.163681
1836.000000	89.175953
1835.000000	89.198126
1834.000000	89.209218
1833.000000	89.186301
1832.000000	89.125758
1831.000000	89.048560
1830.000000	88.976740
1829.000000	88.925586
1828.000000	88.884523
1827.000000	88.844975
1826.000000	88.817648
1825.000000	88.804804
1824.000000	88.800661
1823.000000	88.798508
1822.000000	88.797452
1821.000000	88.797806
1820.000000	88.788431
1819.000000	88.758848
1818.000000	88.705809
1817.000000	88.649531
1816.000000	88.616260
1815.000000	88.601830
1814.000000	88.585758
1813.000000	88.548653
1812.000000	88.497594
1811.000000	88.450541
1810.000000	88.410752
1809.000000	88.376896
1808.000000	88.349782
1807.000000	88.330958
1806.000000	88.321073
1805.000000	88.314739
1804.000000	88.297988
1803.000000	88.245523
1802.000000	88.163325
1801.000000	88.086836
1800.000000	88.059627
1799.000000	88.081244
1798.000000	88.110744
1797.000000	88.110960
1796.000000	88.072504
1795.000000	88.008410
1794.000000	87.942123
1793.000000	87.869329
1792.000000	87.790770
1791.000000	87.732959
1790.000000	87.706486
1789.000000	87.708503
1788.000000	87.734819
1787.000000	87.768767
1786.000000	87.789181
1785.000000	87.793359
1784.000000	87.785609
1783.000000	87.742646
1782.000000	87.664334
1781.000000	87.557539
1780.000000	87.446191
1779.000000	87.354100
1778.000000	87.284409
1777.000000	87.230220
1776.000000	87.175104
1775.000000	87.120792
1774.000000	87.095070
1773.000000	87.098551
1772.000000	87.108175
1771.000000	87.109038
1770.000000	87.067723
1769.000000	86.988425
1768.000000	86.918847
1767.000000	86.868098
1766.000000	86.800492
1765.000000	86.696012
1764.000000	86.588366
1763.000000	86.510048
1762.000000	86.468770
1761.000000	86.451152
1760.000000	86.443683
1759.000000	86.429419
1758.000000	86.417092
1757.000000	86.419939
1756.000000	86.426772
1755.000000	86.411914
1754.000000	86.354718
1753.000000	86.260963
1752.000000	86.129614
1751.000000	85.960492
1750.000000	85.763256
1749.000000	85.581027
1748.000000	85.474453
1747.000000	85.464580
1746.000000	85.511653
1745.000000	85.545065
1744.000000	85.543956
1743.000000	85.521250
1742.000000	85.475380
1741.000000	85.403089
1740.000000	85.334647
1739.000000	85.271711
1738.000000	85.165144
1737.000000	84.993694
1736.000000	84.828859
1735.000000	84.720563
1734.000000	84.628700
1733.000000	84.537836
1732.000000	84.416479
1731.000000	84.290960
1730.000000	84.221653
1729.000000	84.204426
1728.000000	84.186864
1727.000000	84.140177
1726.000000	84.055929
1725.000000	83.906622
1724.000000	83.709077
1723.000000	83.516177
1722.000000	83.344637
1721.000000	83.182959
1720.000000	83.043889
1719.000000	82.935749
1718.000000	82.791692
1717.000000	82.604594
1716.000000	82.429099
1715.000000	82.288315
1714.000000	82.188274
1713.000000	82.103371
1712.000000	81.993902
1711.000000	81.848307
1710.000000	81.678778
1709.000000	81.486921
1708.000000	81.259875
1707.000000	81.017813
1706.000000	80.796975
1705.000000	80.623422
1704.000000	80.469323
1703.000000	80.296857
1702.000000	80.167081
1701.000000	80.122022
1700.000000	80.061685
1699.000000	79.891719
1698.000000	79.588767
1697.000000	79.266104
1696.000000	79.053432
1695.000000	78.921172
1694.000000	78.737560
1693.000000	78.481881
1692.000000	78.242314
1691.000000	78.053801
1690.000000	77.872659
1689.000000	77.679116
1688.000000	77.489576
1687.000000	77.335120
1686.000000	77.212547
1685.000000	77.011471
1684.000000	76.696638
1683.000000	76.438022
1682.000000	76.215361
1681.000000	75.980969
1680.000000	75.768283
1679.000000	75.582472
1678.000000	75.396449
1677.000000	75.194133
1676.000000	74.983779
1675.000000	74.779530
1674.000000	74.584500
1673.000000	74.350218
1672.000000	74.087379
1671.000000	73.839900
1670.000000	73.612609
1669.000000	73.413264
1668.000000	73.251196
1667.000000	73.107469
1666.000000	72.955988
1665.000000	72.778066
1664.000000	72.573042
1663.000000	72.340262
1662.000000	72.107355
1661.000000	71.881381
1660.000000	71.651332
1659.000000	71.446734
1658.000000	71.279747
1657.000000	71.116347
1656.000000	70.926621
1655.000000	70.759629
1654.000000	70.575552
1653.000000	70.395136
1652.000000	70.343288
1651.000000	70.195432
1650.000000	69.912002
1649.000000	69.611692
1648.000000	69.311799
1647.000000	68.997182
1646.000000	68.759518
1645.000000	68.593638
1644.000000	68.412206
1643.000000	68.206969
1642.000000	68.029831
1641.000000	67.896973
1640.000000	67.775350
1639.000000	67.645689
1638.000000	67.501794
1637.000000	67.332686
1636.000000	67.125678
1635.000000	66.976402
1634.000000	66.874236
1633.000000	66.719655
1632.000000	66.515299
1631.000000	66.307164
1630.000000	66.111916
1629.000000	65.922580
1628.000000	65.751325
1627.000000	65.623323
1626.000000	65.541646
1625.000000	65.477530
1624.000000	65.413928
1623.000000	65.366028
1622.000000	65.346355
1621.000000	65.307754
1620.000000	65.216392
1619.000000	65.103652
1618.000000	64.998847
1617.000000	64.882499
1616.000000	64.750959
1615.000000	64.628084
1614.000000	64.528530
1613.000000	64.470166
1612.000000	64.462418
1611.000000	64.489349
1610.000000	64.533668
1609.000000	64.577464
1608.000000	64.608545
1607.000000	64.624021
1606.000000	64.630193
1605.000000	64.614881
1604.000000	64.562811
1603.000000	64.493250
1602.000000	64.437467
1601.000000	64.404329
1600.000000	64.391495
1599.000000	64.409678
1598.000000	64.465973
1597.000000	64.541105
1596.000000	64.613084
1595.000000	64.683920
1594.000000	64.761512
1593.000000	64.829886
1592.000000	64.866814
1591.000000	64.875430
1590.000000	64.873725
1589.000000	64.865206
1588.000000	64.846858
1587.000000	64.833472
1586.000000	64.842778
1585.000000	64.875955
1584.000000	64.911207
1583.000000	64.953582
1582.000000	65.025837
1581.000000	65.112511
1580.000000	65.167841
1579.000000	65.188363
1578.000000	65.209795
1577.000000	65.232687
1576.000000	65.239563
1575.000000	65.237481
1574.000000	65.206363
1573.000000	65.141248
1572.000000	65.081569
1571.000000	65.057881
1570.000000	65.059559
1569.000000	65.084924
1568.000000	65.111948
1567.000000	65.129253
1566.000000	65.159765
1565.000000	65.223202
1564.000000	65.297171
1563.000000	65.362283
1562.000000	65.431938
1561.000000	65.531754
1560.000000	65.575471
1559.000000	65.481376
1558.000000	65.620266
1557.000000	65.839657
1556.000000	65.936059
1555.000000	66.017054
1554.000000	66.172889
1553.000000	66.343798
1552.000000	66.457407
1551.000000	66.542934
1550.000000	66.659797
1549.000000	66.829472
1548.000000	67.020849
1547.000000	67.215585
1546.000000	67.420927
1545.000000	67.614980
1544.000000	67.765408
1543.000000	67.894191
1542.000000	68.032335
1541.000000	68.175923
1540.000000	68.373419
1539.000000	68.714726
1538.000000	69.032661
1537.000000	69.189546
1536.000000	69.269546
1535.000000	69.401569
1534.000000	69.641177
1533.000000	69.961290
1532.000000	70.296656
1531.000000	70.600199
1530.000000	70.881188
1529.000000	71.157948
1528.000000	71.421401
1527.000000	71.667762
1526.000000	71.916658
1525.000000	72.160655
1524.000000	72.378859
1523.000000	72.610611
1522.000000	72.916046
1521.000000	73.311411
1520.000000	73.697223
1519.000000	73.985529
1518.000000	74.242754
1517.000000	74.551480
1516.000000	74.914074
1515.000000	75.269803
1514.000000	75.594313
1513.000000	75.909961
1512.000000	76.221600
1511.000000	76.486200
1510.000000	76.679519
1509.000000	76.802871
1508.000000	76.871236
1507.000000	77.000760
1506.000000	77.475213
1505.000000	78.068902
1504.000000	78.451902
1503.000000	78.686717
1502.000000	78.918822
1501.000000	79.182887
1500.000000	79.441811
1499.000000	79.673206
1498.000000	79.883843
1497.000000	80.090507
1496.000000	80.320028
1495.000000	80.546152
1494.000000	80.724832
1493.000000	80.870171
1492.000000	81.028860
1491.000000	81.205875
1490.000000	81.372335
1489.000000	81.541035
1488.000000	81.742126
1487.000000	81.975517
1486.000000	82.209615
1485.000000	82.410848
1484.000000	82.548443
1483.000000	82.639288
1482.000000	82.713252
1481.000000	82.781368
1480.000000	82.846485
1479.000000	82.918464
1478.000000	83.002589
1477.000000	83.074715
1476.000000	83.118594
1475.000000	83.132925
1474.000000	83.124262
1473.000000	83.087833
1472.000000	83.064463
1471.000000	83.065232
1470.000000	83.019920
1469.000000	82.890608
1468.000000	82.699018
1467.000000	82.459177
1466.000000	82.155311
1465.000000	81.786016
1464.000000	81.422556
1463.000000	81.136415
1462.000000	80.900891
1461.000000	80.669080
1460.000000	80.433179
1459.000000	80.190207
1458.000000	79.847358
1457.000000	79.363087
1456.000000	78.887351
1455.000000	78.420963
1454.000000	77.874444
1453.000000	77.222513
1452.000000	76.486424
1451.000000	75.689802
1450.000000	74.786515
1449.000000	73.683292
1448.000000	72.384564
1447.000000	70.999998
1446.000000	69.582894
1445.000000	68.061678
1444.000000	66.373836
1443.000000	64.520590
1442.000000	62.495226
1441.000000	60.322933
1440.000000	58.095476
1439.000000	55.802068
1438.000000	53.137355
1437.000000	49.821330
1436.000000	46.285856
1435.000000	43.268089
1434.000000	40.818220
1433.000000	38.603105
1432.000000	36.515912
1431.000000	34.668290
1430.000000	33.135676
1429.000000	31.953599
1428.000000	31.254271
1427.000000	31.113957
1426.000000	31.441952
1425.000000	32.153956
1424.000000	33.270705
1423.000000	34.721857
1422.000000	36.305081
1421.000000	37.988654
1420.000000	39.975704
1419.000000	42.302018
1418.000000	44.580158
1417.000000	46.525796
1416.000000	48.287101
1415.000000	50.061778
1414.000000	51.846185
1413.000000	53.575418
1412.000000	55.272100
1411.000000	56.967183
1410.000000	58.604301
1409.000000	60.129168
1408.000000	61.578024
1407.000000	62.992956
1406.000000	64.369425
1405.000000	65.703274
1404.000000	66.998402
1403.000000	68.211919
1402.000000	69.296804
1401.000000	70.299331
1400.000000	71.308200
1399.000000	72.324530
1398.000000	73.259765
1397.000000	74.084993
1396.000000	74.878971
1395.000000	75.705156
1394.000000	76.533000
1393.000000	77.293597
1392.000000	77.970195
1391.000000	78.589654
1390.000000	79.172176
1389.000000	79.722093
1388.000000	80.234438
1387.000000	80.694197
1386.000000	81.088075
1385.000000	81.426906
1384.000000	81.739148
1383.000000	82.034520
1382.000000	82.288354
1381.000000	82.474443
1380.000000	82.579364
1379.000000	82.589973
1378.000000	82.495013
1377.000000	82.282501
1376.000000	81.912824
1375.000000	81.322542
1374.000000	80.505916
1373.000000	79.544497
1372.000000	78.517471
1371.000000	77.455529
1370.000000	76.405100
1369.000000	75.474857
1368.000000	74.808345
1367.000000	74.497481
1366.000000	74.538317
1365.000000	74.874430
1364.000000	75.438774
1363.000000	76.167610
1362.000000	76.999295
1361.000000	77.864160
1360.000000	78.693781
1359.000000	79.440485
1358.000000	80.080763
1357.000000	80.601452
1356.000000	80.987214
1355.000000	81.223418
1354.000000	81.307089
1353.000000	81.239150
1352.000000	81.012300
1351.000000	80.604292
1350.000000	79.998548
1349.000000	79.192474
1348.000000	78.182712
1347.000000	76.961970
1346.000000	75.524724
1345.000000	73.879537
1344.000000	72.055787
1343.000000	70.080864
1342.000000	67.951376
1341.000000	65.651244
1340.000000	63.238079
1339.000000	60.900489
1338.000000	58.855479
1337.000000	57.201348
1336.000000	55.910081
1335.000000	54.895668
1334.000000	54.044194
1333.000000	53.227810
1332.000000	52.332880
1331.000000	51.272866
1330.000000	49.970697
1329.000000	48.351448
1328.000000	46.375764
1327.000000	44.076448
1326.000000	41.551576
1325.000000	38.936021
1324.000000	36.396827
1323.000000	34.108932
1322.000000	32.183090
1321.000000	30.624221
1320.000000	29.372336
1319.000000	28.349610
1318.000000	27.470681
1317.000000	26.661534
1316.000000	25.898894
1315.000000	25.213891
1314.000000	24.633426
1313.000000	24.152415
1312.000000	23.763204
1311.000000	23.467227
1310.000000	23.257905
1309.000000	23.126607
1308.000000	23.102722
1307.000000	23.251086
1306.000000	23.615440
1305.000000	24.201850
1304.000000	25.007751
1303.000000	26.026424
1302.000000	27.220009
1301.000000	28.521266
1300.000000	29.878966
1299.000000	31.267821
1298.000000	32.661450
1297.000000	34.030798
1296.000000	35.365125
1295.000000	36.669016
1294.000000	37.935988
1293.000000	39.147705
1292.000000	40.293632
1291.000000	41.371462
1290.000000	42.364522
1289.000000	43.242088
1288.000000	43.981673
1287.000000	44.572837
1286.000000	45.011907
1285.000000	45.309704
1284.000000	45.511846
1283.000000	45.696898
1282.000000	45.946350
1281.000000	46.321809
1280.000000	46.859813
1279.000000	47.563672
1278.000000	48.395813
1277.000000	49.298825
1276.000000	50.227380
1275.000000	51.156528
1274.000000	52.069940
1273.000000	52.955873
1272.000000	53.813410
1271.000000	54.646842
1270.000000	55.453554
1269.000000	56.225164
1268.000000	56.958264
1267.000000	57.652960
1266.000000	58.306742
1265.000000	58.917718
1264.000000	59.491106
1263.000000	60.037498
1262.000000	60.564342
1261.000000	61.077256
1260.000000	61.584923
1259.000000	62.094817
1258.000000	62.606937
1257.000000	63.115554
1256.000000	63.615056
1255.000000	64.099475
1254.000000	64.560388
1253.000000	64.991484
1252.000000	65.392836
1251.000000	65.769240
1250.000000	66.126932
1249.000000	66.473444
1248.000000	66.818494
1247.000000	67.170779
1246.000000	67.534438
1245.000000	67.909451
1244.000000	68.292486
1243.000000	68.675820
1242.000000	69.047984
1241.000000	69.398001
1240.000000	69.718870
1239.000000	70.007593
1238.000000	70.266337
1237.000000	70.503594
1236.000000	70.732058
1235.000000	70.964647
1234.000000	71.211535
1233.000000	71.479299
1232.000000	71.769380
1231.000000	72.076766
1230.000000	72.391577
1229.000000	72.701726
1228.000000	72.993994
1227.000000	73.256026
1226.000000	73.481570
1225.000000	73.674341
1224.000000	73.844712
1223.000000	74.005363
1222.000000	74.170403
1221.000000	74.353919
1220.000000	74.565296
1219.000000	74.805833
1218.000000	75.070506
1217.000000	75.350251
1216.000000	75.630710
1215.000000	75.892855
1214.000000	76.119392
1213.000000	76.301071
1212.000000	76.437614
1211.000000	76.536453
1210.000000	76.613816
1209.000000	76.691726
1208.000000	76.790497
1207.000000	76.923970
1206.000000	77.099976
1205.000000	77.319461
1204.000000	77.572682
1203.000000	77.839637
1202.000000	78.097412
1201.000000	78.326198
1200.000000	78.509924
1199.000000	78.638373
1198.000000	78.712842
1197.000000	78.747286
1196.000000	78.759952
1195.000000	78.768038
1194.000000	78.787337
1193.000000	78.828478
1192.000000	78.890338
1191.000000	78.958906
1190.000000	79.015870
1189.000000	79.045915
1188.000000	79.037870
1187.000000	78.988257
1186.000000	78.906878
1185.000000	78.814592
1184.000000	78.731444
1183.000000	78.668861
1182.000000	78.633231
1181.000000	78.634112
1180.000000	78.686273
1179.000000	78.804327
1178.000000	78.995564
1177.000000	79.250289
1176.000000	79.540050
1175.000000	79.826705
1174.000000	80.077394
1173.000000	80.271828
1172.000000	80.400373
1171.000000	80.464072
1170.000000	80.478532
1169.000000	80.470951
1168.000000	80.468730
1167.000000	80.494254
1166.000000	80.566194
1165.000000	80.697037
1164.000000	80.885390
1163.000000	81.115562
1162.000000	81.365213
1161.000000	81.610912
1160.000000	81.828179
1159.000000	81.996331
1158.000000	82.108206
1157.000000	82.171830
1156.000000	82.202877
1155.000000	82.220858
1154.000000	82.250465
1153.000000	82.314664
1152.000000	82.423520
1151.000000	82.573121
1150.000000	82.754464
1149.000000	82.955899
1148.000000	83.158184
1147.000000	83.336866
1146.000000	83.474389
1145.000000	83.564723
1144.000000	83.608236
1143.000000	83.610349
1142.000000	83.587112
1141.000000	83.562754
1140.000000	83.557419
1139.000000	83.582132
1138.000000	83.642304
1137.000000	83.737271
1136.000000	83.854601
1135.000000	83.972897
1134.000000	84.073482
1133.000000	84.145441
1132.000000	84.181304
1131.000000	84.178061
1130.000000	84.144143
1129.000000	84.098330
1128.000000	84.059340
1127.000000	84.041468
1126.000000	84.057472
1125.000000	84.115444
1124.000000	84.210123
1123.000000	84.323726
1122.000000	84.436857
1121.000000	84.533734
1120.000000	84.599636
1119.000000	84.624187
1118.000000	84.610791
1117.000000	84.576458
1116.000000	84.541353
1115.000000	84.523644
1114.000000	84.541231
1113.000000	84.607336
1112.000000	84.721359
1111.000000	84.868753
1110.000000	85.030752
1109.000000	85.188262
1108.000000	85.319488
1107.000000	85.404344
1106.000000	85.436377
1105.000000	85.424538
1104.000000	85.384204
1103.000000	85.334145
1102.000000	85.299718
1101.000000	85.306323
1100.000000	85.369459
1099.000000	85.486213
1098.000000	85.644948
1097.000000	85.827588
1096.000000	86.006481
1095.000000	86.150151
1094.000000	86.236824
1093.000000	86.259318
1092.000000	86.218856
1091.000000	86.126760
1090.000000	86.010352
1089.000000	85.906520
1088.000000	85.845983
1087.000000	85.847937
1086.000000	85.923506
1085.000000	86.072250
1084.000000	86.273399
1083.000000	86.488607
1082.000000	86.677533
1081.000000	86.807048
1080.000000	86.852056
1079.000000	86.801460
1078.000000	86.669225
1077.000000	86.488090
1076.000000	86.293696
1075.000000	86.118431
1074.000000	85.993370
1073.000000	85.941234
1072.000000	85.963428
1071.000000	86.039168
1070.000000	86.135990
1069.000000	86.214384
1068.000000	86.228330
1067.000000	86.136287
1066.000000	85.920365
1065.000000	85.592949
1064.000000	85.186998
1063.000000	84.752384
1062.000000	84.353423
1061.000000	84.054649
1060.000000	83.898577
1059.000000	83.899971
1058.000000	84.049954
1057.000000	84.320708
1056.000000	84.666665
1055.000000	85.030861
1054.000000	85.362467
1053.000000	85.623755
1052.000000	85.789175
1051.000000	85.849366
1050.000000	85.821665
1049.000000	85.744347
1048.000000	85.659773
1047.000000	85.604251
1046.000000	85.607018
1045.000000	85.684319
1044.000000	85.831372
1043.000000	86.026437
1042.000000	86.243772
1041.000000	86.458337
1040.000000	86.641455
1039.000000	86.766409
1038.000000	86.822678
1037.000000	86.819504
1036.000000	86.775789
1035.000000	86.716286
1034.000000	86.672775
1033.000000	86.675931
1032.000000	86.740517
1031.000000	86.863493
1030.000000	87.033222
1029.000000	87.232863
1028.000000	87.436484
1027.000000	87.614319
1026.000000	87.746958
1025.000000	87.828895
1024.000000	87.861477
1023.000000	87.852911
1022.000000	87.824900
1021.000000	87.805849
1020.000000	87.815985
1019.000000	87.863272
1018.000000	87.949980
1017.000000	88.071552
1016.000000	88.209620
1015.000000	88.337540
1014.000000	88.436363
1013.000000	88.499669
1012.000000	88.525941
1011.000000	88.518474
1010.000000	88.493063
1009.000000	88.474384
1008.000000	88.482209
1007.000000	88.526740
1006.000000	88.613460
1005.000000	88.740239
1004.000000	88.889267
1003.000000	89.031457
1002.000000	89.141856
1001.000000	89.204904
1000.000000	89.210133
999.000000	89.156001
998.000000	89.059613
997.000000	88.953219
996.000000	88.868987
995.000000	88.832609
994.000000	88.865000
993.000000	88.976855
992.000000	89.156850
991.000000	89.373973
990.000000	89.591657
989.000000	89.775430
988.000000	89.891305
987.000000	89.913771
986.000000	89.840996
985.000000	89.696689
984.000000	89.517756
983.000000	89.346376
982.000000	89.229359
981.000000	89.207600
980.000000	89.300029
979.000000	89.498598
978.000000	89.777904
977.000000	90.098155
976.000000	90.404493
975.000000	90.637768
974.000000	90.756823
973.000000	90.746690
972.000000	90.613636
971.000000	90.384725
970.000000	90.111122
969.000000	89.858150
968.000000	89.683618
967.000000	89.626970
966.000000	89.708108
965.000000	89.923406
964.000000	90.237045
963.000000	90.588911
962.000000	90.913888
961.000000	91.155672
960.000000	91.269717
959.000000	91.233558
958.000000	91.059205
957.000000	90.789978
956.000000	90.483698
955.000000	90.201776
954.000000	90.006058
953.000000	89.944674
952.000000	90.033968
951.000000	90.254886
950.000000	90.566830
949.000000	90.914200
948.000000	91.229359
947.000000	91.446560
946.000000	91.525919
945.000000	91.459820
944.000000	91.264689
943.000000	90.977431
942.000000	90.656759
941.000000	90.371197
940.000000	90.176438
939.000000	90.105602
938.000000	90.169769
937.000000	90.355392
936.000000	90.618928
935.000000	90.899211
934.000000	91.138097
933.000000	91.291080
932.000000	91.325706
931.000000	91.229817
930.000000	91.022786
929.000000	90.750220
928.000000	90.464322
927.000000	90.213012
926.000000	90.039589
925.000000	89.973098
924.000000	90.014511
923.000000	90.137367
922.000000	90.303566
921.000000	90.470921
920.000000	90.594266
919.000000	90.634899
918.000000	90.576912
917.000000	90.427744
916.000000	90.208161
915.000000	89.948865
914.000000	89.691107
913.000000	89.474419
912.000000	89.319003
911.000000	89.225623
910.000000	89.185312
909.000000	89.179953
908.000000	89.177371
907.000000	89.140744
906.000000	89.045767
905.000000	88.884160
904.000000	88.655909
903.000000	88.371635
902.000000	88.057881
901.000000	87.748078
900.000000	87.465230
899.000000	87.217209
898.000000	87.003935
897.000000	86.815780
896.000000	86.629618
895.000000	86.416999
894.000000	86.157311
893.000000	85.839257
892.000000	85.455392
891.000000	85.008024
890.000000	84.516854
889.000000	84.009307
888.000000	83.506338
887.000000	83.020070
886.000000	82.557044
885.000000	82.112240
884.000000	81.662050
883.000000	81.173858
882.000000	80.619096
881.000000	79.975647
880.000000	79.228254
879.000000	78.375872
878.000000	77.439320
877.000000	76.450761
876.000000	75.441421
875.000000	74.441389
874.000000	73.478338
873.000000	72.568098
872.000000	71.708472
871.000000	70.884789
870.000000	70.075566
869.000000	69.253472
868.000000	68.391998
867.000000	67.478883
866.000000	66.521033
865.000000	65.536880
864.000000	64.552427
863.000000	63.602455
862.000000	62.723481
861.000000	61.941959
860.000000	61.269656
859.000000	60.709037
858.000000	60.249322
857.000000	59.861649
856.000000	59.509698
855.000000	59.163391
854.000000	58.803811
853.000000	58.419032
852.000000	58.009494
851.000000	57.597985
850.000000	57.220817
849.000000	56.911276
848.000000	56.695678
847.000000	56.598110
846.000000	56.637237
845.000000	56.810813
844.000000	57.098759
843.000000	57.477665
842.000000	57.924154
841.000000	58.410732
840.000000	58.908610
839.000000	59.405738
838.000000	59.910270
837.000000	60.434694
836.000000	60.992361
835.000000	61.606693
834.000000	62.305128
833.000000	63.086494
832.000000	63.905470
831.000000	64.648751
830.000000	65.071602
829.000000	64.734628
828.000000	63.148175
827.000000	60.191043
826.000000	56.436622
825.000000	52.974849
824.000000	50.802778
823.000000	50.337397
822.000000	51.413485
821.000000	53.592916
820.000000	56.377974
819.000000	59.279753
818.000000	61.922118
817.000000	64.141652
816.000000	65.974445
815.000000	67.508497
814.000000	68.795524
813.000000	69.865324
812.000000	70.761045
811.000000	71.520061
810.000000	72.167464
809.000000	72.739723
808.000000	73.286435
807.000000	73.844475
806.000000	74.424973
805.000000	75.030810
804.000000	75.660012
803.000000	76.287294
802.000000	76.869074
801.000000	77.373071
800.000000	77.789778
799.000000	78.119588
798.000000	78.371224
797.000000	78.576164
796.000000	78.781699
795.000000	79.025705
794.000000	79.328474
793.000000	79.703093
792.000000	80.152572
791.000000	80.654515
790.000000	81.164640
789.000000	81.638964
788.000000	82.043498
787.000000	82.350758
786.000000	82.547598
785.000000	82.648692
784.000000	82.692319
783.000000	82.722216
782.000000	82.780959
781.000000	82.909910
780.000000	83.138140
779.000000	83.466809
778.000000	83.871382
777.000000	84.315215
776.000000	84.753873
775.000000	85.134878
774.000000	85.412455
773.000000	85.566888
772.000000	85.605825
771.000000	85.554545
770.000000	85.453199
769.000000	85.356492
768.000000	85.318938
767.000000	85.376954
766.000000	85.544060
765.000000	85.815120
764.000000	86.163650
763.000000	86.540857
762.000000	86.890260
761.000000	87.167049
760.000000	87.342458
759.000000	87.402417
758.000000	87.354677
757.000000	87.233019
756.000000	87.085374
755.000000	86.958103
754.000000	86.892121
753.000000	86.920094
752.000000	87.054833
751.000000	87.280728
750.000000	87.563311
749.000000	87.863133
748.000000	88.138413
747.000000	88.346926
746.000000	88.461023
745.000000	88.480308
744.000000	88.424901
743.000000	88.322568
742.000000	88.206378
741.000000	88.113867
740.000000	88.074919
739.000000	88.101177
738.000000	88.189606
737.000000	88.329428
736.000000	88.498998
735.000000	88.664715
734.000000	88.793998
733.000000	88.868610
732.000000	88.883371
731.000000	88.841837
730.000000	88.760158
729.000000	88.666492
728.000000	88.587384
727.000000	88.537537
726.000000	88.524309
725.000000	88.551710
724.000000	88.612696
723.000000	88.686197
722.000000	88.751248
721.000000	88.799890
720.000000	88.832059
719.000000	88.848603
718.000000	88.857854
717.000000	88.879888
716.000000	88.934548
715.000000	89.030080
714.000000	89.167040
713.000000	89.342457
712.000000	89.541747
711.000000	89.735089
710.000000	89.892217
709.000000	89.995562
708.000000	90.037130
707.000000	90.015419
706.000000	89.945567
705.000000	89.863629
704.000000	89.810462
703.000000	89.814721
702.000000	89.893480
701.000000	90.055215
700.000000	90.289174
699.000000	90.560828
698.000000	90.827172
697.000000	91.050961
696.000000	91.197731
695.000000	91.237130
694.000000	91.161653
693.000000	90.997547
692.000000	90.789416
691.000000	90.582439
690.000000	90.423795
689.000000	90.363902
688.000000	90.435322
687.000000	90.632263
686.000000	90.922314
685.000000	91.264739
684.000000	91.606912
683.000000	91.884085
682.000000	92.043751
681.000000	92.063933
680.000000	91.946084
679.000000	91.708925
678.000000	91.398701
677.000000	91.088619
676.000000	90.851339
675.000000	90.736962
674.000000	90.772378
673.000000	90.962326
672.000000	91.278377
671.000000	91.670300
670.000000	92.096477
669.000000	92.510179
668.000000	92.805833
667.000000	92.850964
666.000000	92.643518
665.000000	92.312938
664.000000	91.957015
663.000000	91.624065
662.000000	91.360682
661.000000	91.217210
660.000000	91.226461
659.000000	91.392746
658.000000	91.692789
657.000000	92.080208
656.000000	92.489793
655.000000	92.849284
654.000000	93.096939
653.000000	93.197930
652.000000	93.145744
651.000000	92.958542
650.000000	92.680777
649.000000	92.375468
648.000000	92.103567
647.000000	91.914055
646.000000	91.844749
645.000000	91.917993
644.000000	92.127206
643.000000	92.432942
642.000000	92.776269
641.000000	93.096983
640.000000	93.343225
639.000000	93.475754
638.000000	93.478764
637.000000	93.363619
636.000000	93.158880
635.000000	92.903224
634.000000	92.646549
633.000000	92.440984
632.000000	92.323634
631.000000	92.310432
630.000000	92.402325
629.000000	92.585837
628.000000	92.827922
627.000000	93.082120
626.000000	93.306516
625.000000	93.474928
624.000000	93.568505
623.000000	93.572550
622.000000	93.486776
621.000000	93.330877
620.000000	93.134071
619.000000	92.927616
618.000000	92.748016
617.000000	92.632050
616.000000	92.599003
615.000000	92.644406
614.000000	92.752785
613.000000	92.906614
612.000000	93.081130
611.000000	93.240650
610.000000	93.352673
609.000000	93.394752
608.000000	93.344917
607.000000	93.176989
606.000000	92.874037
605.000000	92.431100
604.000000	91.831207
603.000000	91.028926
602.000000	89.939618
601.000000	88.451056
600.000000	86.478472
599.000000	84.075450
598.000000	81.507009
597.000000	79.196662
596.000000	77.579017
595.000000	76.941168
594.000000	77.316340
593.000000	78.488137
592.000000	80.118090
591.000000	81.862723
590.000000	83.455446
589.000000	84.771978
588.000000	85.815766
587.000000	86.653045
586.000000	87.360666
585.000000	88.011291
584.000000	88.657908
583.000000	89.323220
582.000000	89.999087
581.000000	90.659669
580.000000	91.269651
579.000000	91.784524
578.000000	92.162203
577.000000	92.377643
576.000000	92.428825
575.000000	92.341608
574.000000	92.166100
573.000000	91.964185
572.000000	91.794965
571.000000	91.708992
570.000000	91.744653
569.000000	91.919945
568.000000	92.226455
567.000000	92.624782
566.000000	93.050307
565.000000	93.431642
564.000000	93.704496
563.000000	93.822430
562.000000	93.771073
561.000000	93.574005
560.000000	93.279051
559.000000	92.942935
558.000000	92.630585
557.000000	92.409679
556.000000	92.332933
555.000000	92.423849
554.000000	92.675790
553.000000	93.055634
552.000000	93.504686
551.000000	93.942171
550.000000	94.284744
549.000000	94.472546
548.000000	94.476229
547.000000	94.297853
546.000000	93.980561
545.000000	93.602978
544.000000	93.244548
543.000000	92.965516
542.000000	92.813850
541.000000	92.828371
540.000000	93.019534
539.000000	93.355374
538.000000	93.772368
537.000000	94.197651
536.000000	94.557777
535.000000	94.782508
534.000000	94.825579
533.000000	94.688574
532.000000	94.405694
531.000000	94.025298
530.000000	93.618345
529.000000	93.267359
528.000000	93.032813
527.000000	92.949148
526.000000	93.037411
525.000000	93.291021
524.000000	93.658075
523.000000	94.050333
522.000000	94.377849
521.000000	94.570577
520.000000	94.572945
519.000000	94.347952
518.000000	93.906254
517.000000	93.327243
516.000000	92.726899
515.000000	92.206795
514.000000	91.836861
513.000000	91.664022
512.000000	91.700124
511.000000	91.907024
510.000000	92.212365
509.000000	92.541112
508.000000	92.809013
507.000000	92.921332
506.000000	92.805853
505.000000	92.434340
504.000000	91.806839
503.000000	90.959303
502.000000	90.028876
501.000000	89.230051
500.000000	88.709781
499.000000	88.486378
498.000000	88.521539
497.000000	88.773846
496.000000	89.187565
495.000000	89.685562
494.000000	90.196348
493.000000	90.671746
492.000000	91.065584
491.000000	91.337738
490.000000	91.478695
489.000000	91.520443
488.000000	91.498830
487.000000	91.437423
486.000000	91.372266
485.000000	91.359509
484.000000	91.445360
483.000000	91.649854
482.000000	91.978469
481.000000	92.416924
480.000000	92.918368
479.000000	93.411674
478.000000	93.823898
477.000000	94.102862
476.000000	94.225522
475.000000	94.194306
474.000000	94.034591
473.000000	93.794863
472.000000	93.548192
471.000000	93.378064
470.000000	93.323334
469.000000	93.378936
468.000000	93.528648
467.000000	93.751430
466.000000	94.010838
465.000000	94.269125
464.000000	94.485342
463.000000	94.609426
462.000000	94.615977
461.000000	94.526277
460.000000	94.373039
459.000000	94.155780
458.000000	93.873545
457.000000	93.604445
456.000000	93.444426
455.000000	93.396396
454.000000	93.414813
453.000000	93.475974
452.000000	93.581086
451.000000	93.718006
450.000000	93.839745
449.000000	93.902583
448.000000	93.878305
447.000000	93.741769
446.000000	93.476166
445.000000	93.080260
444.000000	92.540390
443.000000	91.825924
442.000000	90.943100
441.000000	89.965779
440.000000	88.982006
439.000000	88.033963
438.000000	87.139441
437.000000	86.363636
436.000000	85.833284
435.000000	85.650955
434.000000	85.807182
433.000000	86.217535
432.000000	86.800009
431.000000	87.459379
430.000000	88.100326
429.000000	88.684792
428.000000	89.224164
427.000000	89.723252
426.000000	90.182792
425.000000	90.640300
424.000000	91.133858
423.000000	91.647791
422.000000	92.142868
421.000000	92.644124
420.000000	93.209023
419.000000	93.823529
418.000000	94.389161
417.000000	94.754266
416.000000	94.869463
415.000000	94.760115
414.000000	94.470481
413.000000	94.127783
412.000000	93.880741
411.000000	93.774673
410.000000	93.809062
409.000000	94.011740
408.000000	94.390888
407.000000	94.865094
406.000000	95.321666
405.000000	95.676491
404.000000	95.967715
403.000000	95.983202
402.000000	95.556824
401.000000	94.680926
400.000000	93.464013
