PE IR       SUBTECH     SPECTRUM    ASCII       PEDS        4.00        
   -1
23ms273,23MS274,23MS260_NITRO.asc
24/09/09
16:49:42.00
24/09/09
16:49:42.00
Administrator
Sample 1146 By Administrator Date Monday, September 09 2024
400.000000
#HDR
-1
-1
#GR
cm-1
%T
1.0
0.0
4000.000000
-1.000000
3601
8
92.116538
11.879951
#DATA
4000.000000	69.296388
3999.000000	69.325881
3998.000000	69.358024
3997.000000	69.392185
3996.000000	69.426564
3995.000000	69.458644
3994.000000	69.486704
3993.000000	69.511228
3992.000000	69.534608
3991.000000	69.559418
3990.000000	69.586808
3989.000000	69.616469
3988.000000	69.647661
3987.000000	69.679720
3986.000000	69.711671
3985.000000	69.741798
3984.000000	69.768346
3983.000000	69.790839
3982.000000	69.810560
3981.000000	69.829734
3980.000000	69.850420
3979.000000	69.873802
3978.000000	69.899908
3977.000000	69.927729
3976.000000	69.955483
3975.000000	69.981380
3974.000000	70.004636
3973.000000	70.026041
3972.000000	70.047584
3971.000000	70.071149
3970.000000	70.097506
3969.000000	70.125757
3968.000000	70.153657
3967.000000	70.178963
3966.000000	70.200688
3965.000000	70.219654
3964.000000	70.237838
3963.000000	70.256850
3962.000000	70.277042
3961.000000	70.298162
3960.000000	70.320770
3959.000000	70.346042
3958.000000	70.374418
3957.000000	70.404350
3956.000000	70.432724
3955.000000	70.456988
3954.000000	70.476525
3953.000000	70.492784
3952.000000	70.508214
3951.000000	70.525581
3950.000000	70.547257
3949.000000	70.572786
3948.000000	70.598116
3947.000000	70.618926
3946.000000	70.635438
3945.000000	70.653264
3944.000000	70.678150
3943.000000	70.710175
3942.000000	70.743303
3941.000000	70.771901
3940.000000	70.797009
3939.000000	70.823503
3938.000000	70.853042
3937.000000	70.881837
3936.000000	70.904932
3935.000000	70.921881
3934.000000	70.937056
3933.000000	70.955477
3932.000000	70.978245
3931.000000	71.002452
3930.000000	71.025144
3929.000000	71.045870
3928.000000	71.066833
3927.000000	71.091347
3926.000000	71.120229
3925.000000	71.149796
3924.000000	71.173900
3923.000000	71.189511
3922.000000	71.200150
3921.000000	71.212269
3920.000000	71.230679
3919.000000	71.256704
3918.000000	71.288327
3917.000000	71.321316
3916.000000	71.350969
3915.000000	71.375702
3914.000000	71.398543
3913.000000	71.423744
3912.000000	71.453723
3911.000000	71.486187
3910.000000	71.516033
3909.000000	71.539297
3908.000000	71.555414
3907.000000	71.566880
3906.000000	71.575427
3905.000000	71.579877
3904.000000	71.577473
3903.000000	71.568570
3902.000000	71.562080
3901.000000	71.571028
3900.000000	71.600361
3899.000000	71.643023
3898.000000	71.685931
3897.000000	71.720992
3896.000000	71.749141
3895.000000	71.774895
3894.000000	71.802933
3893.000000	71.836248
3892.000000	71.873365
3891.000000	71.905810
3890.000000	71.924548
3889.000000	71.931774
3888.000000	71.938368
3887.000000	71.953125
3886.000000	71.976217
3885.000000	71.996023
3884.000000	72.001503
3883.000000	71.999199
3882.000000	72.007866
3881.000000	72.039423
3880.000000	72.085175
3879.000000	72.123450
3878.000000	72.144127
3877.000000	72.155657
3876.000000	72.170442
3875.000000	72.192484
3874.000000	72.213988
3873.000000	72.225537
3872.000000	72.229018
3871.000000	72.236994
3870.000000	72.258401
3869.000000	72.285195
3868.000000	72.305557
3867.000000	72.320444
3866.000000	72.336792
3865.000000	72.360275
3864.000000	72.392201
3863.000000	72.425692
3862.000000	72.454580
3861.000000	72.478907
3860.000000	72.503966
3859.000000	72.535769
3858.000000	72.574824
3857.000000	72.613281
3856.000000	72.636656
3855.000000	72.636012
3854.000000	72.622936
3853.000000	72.612410
3852.000000	72.606954
3851.000000	72.614961
3850.000000	72.647122
3849.000000	72.698654
3848.000000	72.758289
3847.000000	72.815153
3846.000000	72.860349
3845.000000	72.890167
3844.000000	72.906189
3843.000000	72.912058
3842.000000	72.913831
3841.000000	72.916893
3840.000000	72.924166
3839.000000	72.937206
3838.000000	72.956169
3837.000000	72.980209
3836.000000	73.006708
3835.000000	73.032602
3834.000000	73.057450
3833.000000	73.083939
3832.000000	73.115555
3831.000000	73.151746
3830.000000	73.187782
3829.000000	73.221776
3828.000000	73.256587
3827.000000	73.291964
3826.000000	73.321900
3825.000000	73.340145
3824.000000	73.346080
3823.000000	73.346158
3822.000000	73.352511
3821.000000	73.370820
3820.000000	73.389623
3819.000000	73.399852
3818.000000	73.407487
3817.000000	73.422969
3816.000000	73.452332
3815.000000	73.490290
3814.000000	73.526807
3813.000000	73.560099
3812.000000	73.594310
3811.000000	73.631467
3810.000000	73.669166
3809.000000	73.703039
3808.000000	73.729669
3807.000000	73.746979
3806.000000	73.753847
3805.000000	73.751361
3804.000000	73.745437
3803.000000	73.741583
3802.000000	73.746621
3801.000000	73.763575
3800.000000	73.785394
3799.000000	73.809797
3798.000000	73.841878
3797.000000	73.883394
3796.000000	73.928904
3795.000000	73.970545
3794.000000	74.005031
3793.000000	74.035678
3792.000000	74.067415
3791.000000	74.101842
3790.000000	74.136033
3789.000000	74.166154
3788.000000	74.190886
3787.000000	74.211846
3786.000000	74.231502
3785.000000	74.250048
3784.000000	74.265689
3783.000000	74.277938
3782.000000	74.290410
3781.000000	74.308985
3780.000000	74.336932
3779.000000	74.369485
3778.000000	74.398063
3777.000000	74.420127
3776.000000	74.440112
3775.000000	74.461349
3774.000000	74.482658
3773.000000	74.502084
3772.000000	74.519674
3771.000000	74.536491
3770.000000	74.552949
3769.000000	74.568037
3768.000000	74.582433
3767.000000	74.601040
3766.000000	74.627074
3765.000000	74.657021
3764.000000	74.683291
3763.000000	74.701507
3762.000000	74.714763
3761.000000	74.729030
3760.000000	74.749441
3759.000000	74.774647
3758.000000	74.797519
3757.000000	74.814262
3756.000000	74.826087
3755.000000	74.834239
3754.000000	74.836847
3753.000000	74.832351
3752.000000	74.825770
3751.000000	74.824430
3750.000000	74.827997
3749.000000	74.832235
3748.000000	74.839869
3747.000000	74.856398
3746.000000	74.882058
3745.000000	74.920328
3744.000000	74.968449
3743.000000	75.008685
3742.000000	75.039886
3741.000000	75.072535
3740.000000	75.104746
3739.000000	75.128278
3738.000000	75.139914
3737.000000	75.149121
3736.000000	75.170485
3735.000000	75.208368
3734.000000	75.251946
3733.000000	75.289419
3732.000000	75.320833
3731.000000	75.352172
3730.000000	75.386016
3729.000000	75.420417
3728.000000	75.453405
3727.000000	75.487186
3726.000000	75.522900
3725.000000	75.556808
3724.000000	75.586121
3723.000000	75.613938
3722.000000	75.645407
3721.000000	75.679615
3720.000000	75.713179
3719.000000	75.744939
3718.000000	75.774055
3717.000000	75.799567
3716.000000	75.820530
3715.000000	75.835906
3714.000000	75.844177
3713.000000	75.846701
3712.000000	75.852222
3711.000000	75.869237
3710.000000	75.897795
3709.000000	75.932935
3708.000000	75.970754
3707.000000	76.010114
3706.000000	76.049548
3705.000000	76.086839
3704.000000	76.121534
3703.000000	76.156366
3702.000000	76.193320
3701.000000	76.227891
3700.000000	76.253913
3699.000000	76.273014
3698.000000	76.291425
3697.000000	76.311878
3696.000000	76.332713
3695.000000	76.350704
3694.000000	76.364640
3693.000000	76.376456
3692.000000	76.390693
3691.000000	76.410591
3690.000000	76.434638
3689.000000	76.457025
3688.000000	76.472240
3687.000000	76.483316
3686.000000	76.500004
3685.000000	76.527151
3684.000000	76.561210
3683.000000	76.596682
3682.000000	76.629810
3681.000000	76.658517
3680.000000	76.678242
3679.000000	76.683086
3678.000000	76.669601
3677.000000	76.642952
3676.000000	76.623641
3675.000000	76.623587
3674.000000	76.629271
3673.000000	76.631038
3672.000000	76.634814
3671.000000	76.653369
3670.000000	76.697925
3669.000000	76.757541
3668.000000	76.808243
3667.000000	76.843781
3666.000000	76.873814
3665.000000	76.906487
3664.000000	76.944085
3663.000000	76.985664
3662.000000	77.028452
3661.000000	77.067129
3660.000000	77.092756
3659.000000	77.099019
3658.000000	77.088035
3657.000000	77.069922
3656.000000	77.052803
3655.000000	77.036783
3654.000000	77.022283
3653.000000	77.011835
3652.000000	77.003018
3651.000000	76.991054
3650.000000	76.975926
3649.000000	76.961849
3648.000000	76.955722
3647.000000	76.963788
3646.000000	76.987200
3645.000000	77.021366
3644.000000	77.062883
3643.000000	77.110539
3642.000000	77.161125
3641.000000	77.206984
3640.000000	77.239242
3639.000000	77.254640
3638.000000	77.254930
3637.000000	77.244006
3636.000000	77.227027
3635.000000	77.210195
3634.000000	77.197234
3633.000000	77.185033
3632.000000	77.167733
3631.000000	77.144095
3630.000000	77.125760
3629.000000	77.127449
3628.000000	77.140798
3627.000000	77.148981
3626.000000	77.155409
3625.000000	77.169251
3624.000000	77.189934
3623.000000	77.212177
3622.000000	77.230267
3621.000000	77.239878
3620.000000	77.240288
3619.000000	77.232018
3618.000000	77.212181
3617.000000	77.181653
3616.000000	77.149866
3615.000000	77.129082
3614.000000	77.126393
3613.000000	77.137798
3612.000000	77.151556
3611.000000	77.160103
3610.000000	77.166386
3609.000000	77.178490
3608.000000	77.199620
3607.000000	77.223671
3606.000000	77.242353
3605.000000	77.253412
3604.000000	77.260074
3603.000000	77.268199
3602.000000	77.281098
3601.000000	77.296157
3600.000000	77.306713
3599.000000	77.306757
3598.000000	77.294019
3597.000000	77.273221
3596.000000	77.254607
3595.000000	77.247356
3594.000000	77.252339
3593.000000	77.260703
3592.000000	77.262503
3591.000000	77.254099
3590.000000	77.239992
3589.000000	77.231726
3588.000000	77.240663
3587.000000	77.263873
3586.000000	77.285281
3585.000000	77.295301
3584.000000	77.299268
3583.000000	77.307979
3582.000000	77.326208
3581.000000	77.349950
3580.000000	77.371650
3579.000000	77.386535
3578.000000	77.393785
3577.000000	77.394107
3576.000000	77.389987
3575.000000	77.384965
3574.000000	77.381792
3573.000000	77.379665
3572.000000	77.374337
3571.000000	77.361116
3570.000000	77.337898
3569.000000	77.309239
3568.000000	77.287063
3567.000000	77.281306
3566.000000	77.288959
3565.000000	77.301863
3564.000000	77.318965
3563.000000	77.344900
3562.000000	77.381115
3561.000000	77.421580
3560.000000	77.456591
3559.000000	77.479319
3558.000000	77.488373
3557.000000	77.485390
3556.000000	77.474145
3555.000000	77.461038
3554.000000	77.453231
3553.000000	77.454215
3552.000000	77.460760
3551.000000	77.465987
3550.000000	77.465960
3549.000000	77.463403
3548.000000	77.465898
3547.000000	77.479519
3546.000000	77.502242
3545.000000	77.525130
3544.000000	77.541720
3543.000000	77.553137
3542.000000	77.563522
3541.000000	77.573897
3540.000000	77.583211
3539.000000	77.592161
3538.000000	77.601896
3537.000000	77.610226
3536.000000	77.611766
3535.000000	77.604116
3534.000000	77.591128
3533.000000	77.579816
3532.000000	77.575095
3531.000000	77.577426
3530.000000	77.583752
3529.000000	77.590029
3528.000000	77.594343
3527.000000	77.598405
3526.000000	77.605628
3525.000000	77.617177
3524.000000	77.630261
3523.000000	77.640052
3522.000000	77.643710
3521.000000	77.642890
3520.000000	77.642094
3519.000000	77.644263
3518.000000	77.647974
3517.000000	77.649964
3516.000000	77.649175
3515.000000	77.646790
3514.000000	77.642808
3513.000000	77.635570
3512.000000	77.625711
3511.000000	77.618004
3510.000000	77.616530
3509.000000	77.619408
3508.000000	77.620633
3507.000000	77.617025
3506.000000	77.611460
3505.000000	77.609781
3504.000000	77.615399
3503.000000	77.625913
3502.000000	77.634823
3501.000000	77.637419
3500.000000	77.635052
3499.000000	77.632330
3498.000000	77.630989
3497.000000	77.628281
3496.000000	77.621151
3495.000000	77.609796
3494.000000	77.596190
3493.000000	77.581292
3492.000000	77.565433
3491.000000	77.549954
3490.000000	77.536557
3489.000000	77.525401
3488.000000	77.514704
3487.000000	77.501549
3486.000000	77.483092
3485.000000	77.459025
3484.000000	77.433785
3483.000000	77.414795
3482.000000	77.405932
3481.000000	77.402774
3480.000000	77.395457
3479.000000	77.376343
3478.000000	77.344885
3477.000000	77.306459
3476.000000	77.268031
3475.000000	77.233922
3474.000000	77.204676
3473.000000	77.179635
3472.000000	77.159375
3471.000000	77.143985
3470.000000	77.129490
3469.000000	77.108416
3468.000000	77.075029
3467.000000	77.029054
3466.000000	76.974541
3465.000000	76.917310
3464.000000	76.863536
3463.000000	76.817612
3462.000000	76.778790
3461.000000	76.740930
3460.000000	76.697285
3459.000000	76.645512
3458.000000	76.588176
3457.000000	76.529842
3456.000000	76.474031
3455.000000	76.421781
3454.000000	76.371478
3453.000000	76.320229
3452.000000	76.265817
3451.000000	76.207459
3450.000000	76.145498
3449.000000	76.081232
3448.000000	76.016748
3447.000000	75.953360
3446.000000	75.890249
3445.000000	75.825940
3444.000000	75.760527
3443.000000	75.695020
3442.000000	75.629248
3441.000000	75.562262
3440.000000	75.494677
3439.000000	75.428501
3438.000000	75.363880
3437.000000	75.297412
3436.000000	75.224257
3435.000000	75.141475
3434.000000	75.049354
3433.000000	74.951035
3432.000000	74.850408
3431.000000	74.748818
3430.000000	74.643497
3429.000000	74.530384
3428.000000	74.409239
3427.000000	74.284389
3426.000000	74.160650
3425.000000	74.039993
3424.000000	73.922014
3423.000000	73.805468
3422.000000	73.687889
3421.000000	73.565517
3420.000000	73.435367
3419.000000	73.297290
3418.000000	73.153924
3417.000000	73.009258
3416.000000	72.867002
3415.000000	72.728068
3414.000000	72.588461
3413.000000	72.441216
3412.000000	72.281428
3411.000000	72.109002
3410.000000	71.926429
3409.000000	71.735605
3408.000000	71.538399
3407.000000	71.338652
3406.000000	71.141791
3405.000000	70.952302
3404.000000	70.771026
3403.000000	70.593430
3402.000000	70.409127
3401.000000	70.205279
3400.000000	69.973815
3399.000000	69.716782
3398.000000	69.444959
3397.000000	69.171053
3396.000000	68.903570
3395.000000	68.645051
3394.000000	68.392494
3393.000000	68.138113
3392.000000	67.871292
3391.000000	67.583012
3390.000000	67.271582
3389.000000	66.943979
3388.000000	66.610936
3387.000000	66.279850
3386.000000	65.951733
3385.000000	65.624075
3384.000000	65.293873
3383.000000	64.957901
3382.000000	64.612065
3381.000000	64.252584
3380.000000	63.878171
3379.000000	63.490268
3378.000000	63.092072
3377.000000	62.687702
3376.000000	62.280864
3375.000000	61.873456
3374.000000	61.465404
3373.000000	61.055693
3372.000000	60.642310
3371.000000	60.220428
3370.000000	59.783487
3369.000000	59.327280
3368.000000	58.852701
3367.000000	58.364518
3366.000000	57.868460
3365.000000	57.370083
3364.000000	56.873287
3363.000000	56.377829
3362.000000	55.879181
3361.000000	55.371696
3360.000000	54.852188
3359.000000	54.320897
3358.000000	53.780789
3357.000000	53.236832
3356.000000	52.693685
3355.000000	52.153177
3354.000000	51.614206
3353.000000	51.074239
3352.000000	50.529391
3351.000000	49.973741
3350.000000	49.402358
3349.000000	48.816263
3348.000000	48.222409
3347.000000	47.628647
3346.000000	47.039643
3345.000000	46.456843
3344.000000	45.878811
3343.000000	45.301008
3342.000000	44.718510
3341.000000	44.129830
3340.000000	43.536453
3339.000000	42.939042
3338.000000	42.336973
3337.000000	41.731891
3336.000000	41.128217
3335.000000	40.529189
3334.000000	39.934835
3333.000000	39.343987
3332.000000	38.755449
3331.000000	38.166998
3330.000000	37.576420
3329.000000	36.984545
3328.000000	36.395087
3327.000000	35.810981
3326.000000	35.233083
3325.000000	34.662080
3324.000000	34.098563
3323.000000	33.541271
3322.000000	32.987775
3321.000000	32.437264
3320.000000	31.890654
3319.000000	31.348294
3318.000000	30.810816
3317.000000	30.281182
3316.000000	29.763099
3315.000000	29.257670
3314.000000	28.763761
3313.000000	28.281146
3312.000000	27.810051
3311.000000	27.348705
3310.000000	26.895361
3309.000000	26.451686
3308.000000	26.022080
3307.000000	25.609841
3306.000000	25.216533
3305.000000	24.844135
3304.000000	24.492988
3303.000000	24.159813
3302.000000	23.840458
3301.000000	23.533973
3300.000000	23.241917
3299.000000	22.964598
3298.000000	22.702129
3297.000000	22.457214
3296.000000	22.232584
3295.000000	22.027871
3294.000000	21.841212
3293.000000	21.672858
3292.000000	21.523444
3291.000000	21.389540
3290.000000	21.266435
3289.000000	21.152792
3288.000000	21.050051
3287.000000	20.958763
3286.000000	20.878548
3285.000000	20.810970
3284.000000	20.757258
3283.000000	20.714916
3282.000000	20.679929
3281.000000	20.650714
3280.000000	20.627316
3279.000000	20.608122
3278.000000	20.591508
3277.000000	20.579184
3276.000000	20.573748
3275.000000	20.574537
3274.000000	20.579267
3273.000000	20.588328
3272.000000	20.603634
3271.000000	20.624163
3270.000000	20.646541
3269.000000	20.669050
3268.000000	20.691950
3267.000000	20.715343
3266.000000	20.739742
3265.000000	20.767538
3264.000000	20.800551
3263.000000	20.837053
3262.000000	20.874148
3261.000000	20.911277
3260.000000	20.948870
3259.000000	20.985714
3258.000000	21.021000
3257.000000	21.057309
3256.000000	21.097821
3255.000000	21.142124
3254.000000	21.187775
3253.000000	21.234261
3252.000000	21.282097
3251.000000	21.329785
3250.000000	21.375408
3249.000000	21.420016
3248.000000	21.466134
3247.000000	21.514154
3246.000000	21.563072
3245.000000	21.613299
3244.000000	21.665654
3243.000000	21.718792
3242.000000	21.770708
3241.000000	21.821419
3240.000000	21.871559
3239.000000	21.919899
3238.000000	21.965159
3237.000000	22.008842
3236.000000	22.053592
3235.000000	22.100116
3234.000000	22.147957
3233.000000	22.197390
3232.000000	22.247815
3231.000000	22.296269
3230.000000	22.340451
3229.000000	22.381498
3228.000000	22.421418
3227.000000	22.459811
3226.000000	22.495773
3225.000000	22.530765
3224.000000	22.566403
3223.000000	22.601434
3222.000000	22.633787
3221.000000	22.663781
3220.000000	22.692460
3219.000000	22.718656
3218.000000	22.740929
3217.000000	22.760593
3216.000000	22.779772
3215.000000	22.798134
3214.000000	22.814173
3213.000000	22.828134
3212.000000	22.840665
3211.000000	22.850370
3210.000000	22.855680
3209.000000	22.857364
3208.000000	22.856776
3207.000000	22.853303
3206.000000	22.846088
3205.000000	22.836529
3204.000000	22.826084
3203.000000	22.813557
3202.000000	22.797191
3201.000000	22.777556
3200.000000	22.755969
3199.000000	22.731873
3198.000000	22.704595
3197.000000	22.675658
3196.000000	22.646494
3195.000000	22.615876
3194.000000	22.582112
3193.000000	22.545950
3192.000000	22.508737
3191.000000	22.469612
3190.000000	22.427424
3189.000000	22.383350
3188.000000	22.339079
3187.000000	22.294313
3186.000000	22.248560
3185.000000	22.203332
3184.000000	22.159838
3183.000000	22.116619
3182.000000	22.072082
3181.000000	22.027390
3180.000000	21.984289
3179.000000	21.942303
3178.000000	21.900694
3177.000000	21.860966
3176.000000	21.824698
3175.000000	21.790892
3174.000000	21.758094
3173.000000	21.727029
3172.000000	21.698607
3171.000000	21.671772
3170.000000	21.645805
3169.000000	21.622603
3168.000000	21.604115
3167.000000	21.589499
3166.000000	21.577417
3165.000000	21.568668
3164.000000	21.564106
3163.000000	21.562429
3162.000000	21.562432
3161.000000	21.565386
3160.000000	21.572617
3159.000000	21.583153
3158.000000	21.596222
3157.000000	21.613290
3156.000000	21.635428
3155.000000	21.661167
3154.000000	21.689372
3153.000000	21.721657
3152.000000	21.759142
3151.000000	21.799875
3150.000000	21.842070
3149.000000	21.887185
3148.000000	21.937305
3147.000000	21.991859
3146.000000	22.049719
3145.000000	22.111633
3144.000000	22.177720
3143.000000	22.245575
3142.000000	22.313642
3141.000000	22.384247
3140.000000	22.460357
3139.000000	22.541552
3138.000000	22.626153
3137.000000	22.714624
3136.000000	22.808005
3135.000000	22.905115
3134.000000	23.003976
3133.000000	23.104504
3132.000000	23.207214
3131.000000	23.311465
3130.000000	23.417295
3129.000000	23.526699
3128.000000	23.641019
3127.000000	23.758931
3126.000000	23.878990
3125.000000	24.001820
3124.000000	24.127696
3123.000000	24.254795
3122.000000	24.381993
3121.000000	24.510981
3120.000000	24.643642
3119.000000	24.779737
3118.000000	24.919350
3117.000000	25.064489
3116.000000	25.215696
3115.000000	25.369692
3114.000000	25.522787
3113.000000	25.674600
3112.000000	25.826420
3111.000000	25.978635
3110.000000	26.132095
3109.000000	26.289222
3108.000000	26.451230
3107.000000	26.616350
3106.000000	26.782833
3105.000000	26.951392
3104.000000	27.122588
3103.000000	27.294562
3102.000000	27.465603
3101.000000	27.636546
3100.000000	27.808742
3099.000000	27.982042
3098.000000	28.156884
3097.000000	28.335582
3096.000000	28.519002
3095.000000	28.704415
3094.000000	28.888781
3093.000000	29.072003
3092.000000	29.254924
3091.000000	29.436695
3090.000000	29.616596
3089.000000	29.796362
3088.000000	29.978420
3087.000000	30.163520
3086.000000	30.351628
3085.000000	30.542882
3084.000000	30.735760
3083.000000	30.926698
3082.000000	31.113673
3081.000000	31.298303
3080.000000	31.482931
3079.000000	31.667788
3078.000000	31.852634
3077.000000	32.038624
3076.000000	32.226509
3075.000000	32.415024
3074.000000	32.602804
3073.000000	32.789810
3072.000000	32.975477
3071.000000	33.158034
3070.000000	33.337565
3069.000000	33.517341
3068.000000	33.700128
3067.000000	33.885257
3066.000000	34.070921
3065.000000	34.256827
3064.000000	34.442476
3063.000000	34.625382
3062.000000	34.803443
3061.000000	34.977475
3060.000000	35.149537
3059.000000	35.320647
3058.000000	35.491850
3057.000000	35.665298
3056.000000	35.842035
3055.000000	36.020240
3054.000000	36.197549
3053.000000	36.373458
3052.000000	36.547797
3051.000000	36.718861
3050.000000	36.885281
3049.000000	37.048449
3048.000000	37.211303
3047.000000	37.375810
3046.000000	37.542794
3045.000000	37.712469
3044.000000	37.883334
3043.000000	38.051963
3042.000000	38.215516
3041.000000	38.373608
3040.000000	38.527174
3039.000000	38.677432
3038.000000	38.827126
3037.000000	38.980504
3036.000000	39.139855
3035.000000	39.303209
3034.000000	39.466707
3033.000000	39.627945
3032.000000	39.785889
3031.000000	39.939419
3030.000000	40.088061
3029.000000	40.233231
3028.000000	40.377383
3027.000000	40.522544
3026.000000	40.670094
3025.000000	40.820426
3024.000000	40.971806
3023.000000	41.121170
3022.000000	41.267105
3021.000000	41.410698
3020.000000	41.552982
3019.000000	41.693523
3018.000000	41.832551
3017.000000	41.972315
3016.000000	42.114739
3015.000000	42.259299
3014.000000	42.404339
3013.000000	42.548799
3012.000000	42.691296
3011.000000	42.829392
3010.000000	42.961670
3009.000000	43.089540
3008.000000	43.215837
3007.000000	43.342758
3006.000000	43.471978
3005.000000	43.604969
3004.000000	43.741555
3003.000000	43.879254
3002.000000	44.015491
3001.000000	44.149638
3000.000000	44.282013
2999.000000	44.412174
2998.000000	44.539476
2997.000000	44.664504
2996.000000	44.788852
2995.000000	44.914100
2994.000000	45.041335
2993.000000	45.170450
2992.000000	45.299311
2991.000000	45.424908
2990.000000	45.546204
2989.000000	45.664774
2988.000000	45.782354
2987.000000	45.899373
2986.000000	46.016509
2985.000000	46.135757
2984.000000	46.258504
2983.000000	46.383721
2982.000000	46.509111
2981.000000	46.632825
2980.000000	46.753218
2979.000000	46.868605
2978.000000	46.978883
2977.000000	47.086540
2976.000000	47.194752
2975.000000	47.305128
2974.000000	47.417948
2973.000000	47.533229
2972.000000	47.650383
2971.000000	47.767743
2970.000000	47.883751
2969.000000	47.998053
2968.000000	48.110715
2967.000000	48.221395
2966.000000	48.330218
2965.000000	48.438581
2964.000000	48.547949
2963.000000	48.658331
2962.000000	48.768658
2961.000000	48.877886
2960.000000	48.985085
2959.000000	49.089347
2958.000000	49.190448
2957.000000	49.289234
2956.000000	49.387040
2955.000000	49.485439
2954.000000	49.586341
2953.000000	49.690802
2952.000000	49.797421
2951.000000	49.903309
2950.000000	50.007077
2949.000000	50.109425
2948.000000	50.210538
2947.000000	50.308836
2946.000000	50.403204
2945.000000	50.494793
2944.000000	50.585657
2943.000000	50.677005
2942.000000	50.769801
2941.000000	50.865312
2940.000000	50.963439
2939.000000	51.061600
2938.000000	51.156816
2937.000000	51.248338
2936.000000	51.337363
2935.000000	51.425411
2934.000000	51.514404
2933.000000	51.607134
2932.000000	51.705506
2931.000000	51.808152
2930.000000	51.910783
2929.000000	52.008958
2928.000000	52.100069
2927.000000	52.183740
2926.000000	52.261606
2925.000000	52.336659
2924.000000	52.411950
2923.000000	52.489819
2922.000000	52.572218
2921.000000	52.660400
2920.000000	52.753328
2919.000000	52.847118
2918.000000	52.937273
2917.000000	53.021461
2916.000000	53.099920
2915.000000	53.174079
2914.000000	53.245669
2913.000000	53.316757
2912.000000	53.389484
2911.000000	53.465291
2910.000000	53.544202
2909.000000	53.624528
2908.000000	53.703335
2907.000000	53.777952
2906.000000	53.847614
2905.000000	53.913743
2904.000000	53.978903
2903.000000	54.045996
2902.000000	54.117732
2901.000000	54.195867
2900.000000	54.279888
2899.000000	54.366591
2898.000000	54.451825
2897.000000	54.531520
2896.000000	54.602704
2895.000000	54.665093
2894.000000	54.722506
2893.000000	54.781353
2892.000000	54.846621
2891.000000	54.919353
2890.000000	54.997433
2889.000000	55.077412
2888.000000	55.155267
2887.000000	55.227216
2886.000000	55.291671
2885.000000	55.350309
2884.000000	55.406902
2883.000000	55.465513
2882.000000	55.529571
2881.000000	55.601026
2880.000000	55.678900
2879.000000	55.759386
2878.000000	55.838660
2877.000000	55.915319
2876.000000	55.989312
2875.000000	56.059168
2874.000000	56.122036
2873.000000	56.177113
2872.000000	56.228255
2871.000000	56.282313
2870.000000	56.344533
2869.000000	56.415002
2868.000000	56.488717
2867.000000	56.558976
2866.000000	56.621413
2865.000000	56.676153
2864.000000	56.727490
2863.000000	56.781592
2862.000000	56.843271
2861.000000	56.913209
2860.000000	56.987738
2859.000000	57.061675
2858.000000	57.131478
2857.000000	57.195737
2856.000000	57.253879
2855.000000	57.306124
2854.000000	57.354977
2853.000000	57.405422
2852.000000	57.462581
2851.000000	57.529012
2850.000000	57.603510
2849.000000	57.681239
2848.000000	57.755163
2847.000000	57.819390
2846.000000	57.872544
2845.000000	57.918139
2844.000000	57.962193
2843.000000	58.011088
2842.000000	58.070378
2841.000000	58.142342
2840.000000	58.222920
2839.000000	58.302598
2838.000000	58.372592
2837.000000	58.430336
2836.000000	58.478722
2835.000000	58.521633
2834.000000	58.561982
2833.000000	58.603184
2832.000000	58.649921
2831.000000	58.706083
2830.000000	58.772400
2829.000000	58.846094
2828.000000	58.922104
2827.000000	58.994755
2826.000000	59.059727
2825.000000	59.115839
2824.000000	59.165508
2823.000000	59.213522
2822.000000	59.265073
2821.000000	59.323791
2820.000000	59.390203
2819.000000	59.461429
2818.000000	59.532576
2817.000000	59.598857
2816.000000	59.657134
2815.000000	59.706863
2814.000000	59.750763
2813.000000	59.794254
2812.000000	59.842863
2811.000000	59.899122
2810.000000	59.961657
2809.000000	60.026794
2808.000000	60.090411
2807.000000	60.148715
2806.000000	60.198781
2805.000000	60.239588
2804.000000	60.272872
2803.000000	60.302997
2802.000000	60.335712
2801.000000	60.376010
2800.000000	60.425483
2799.000000	60.481010
2798.000000	60.536465
2797.000000	60.586390
2796.000000	60.628577
2795.000000	60.664035
2794.000000	60.695743
2793.000000	60.727837
2792.000000	60.764694
2791.000000	60.809075
2790.000000	60.860492
2789.000000	60.915475
2788.000000	60.969547
2787.000000	61.019092
2786.000000	61.062163
2785.000000	61.098605
2784.000000	61.130083
2783.000000	61.159847
2782.000000	61.191807
2781.000000	61.229107
2780.000000	61.272885
2779.000000	61.321894
2778.000000	61.372949
2777.000000	61.421585
2776.000000	61.463000
2775.000000	61.493656
2774.000000	61.513208
2773.000000	61.525136
2772.000000	61.534732
2771.000000	61.545941
2770.000000	61.559633
2769.000000	61.574111
2768.000000	61.586546
2767.000000	61.593947
2766.000000	61.593986
2765.000000	61.585954
2764.000000	61.571174
2763.000000	61.552617
2762.000000	61.534005
2761.000000	61.518823
2760.000000	61.509144
2759.000000	61.504605
2758.000000	61.502567
2757.000000	61.499447
2756.000000	61.492234
2755.000000	61.479401
2754.000000	61.461208
2753.000000	61.439471
2752.000000	61.416545
2751.000000	61.394123
2750.000000	61.372592
2749.000000	61.350839
2748.000000	61.326321
2747.000000	61.295590
2746.000000	61.255819
2745.000000	61.206414
2744.000000	61.148963
2743.000000	61.086116
2742.000000	61.020959
2741.000000	60.957020
2740.000000	60.897767
2739.000000	60.845456
2738.000000	60.800788
2737.000000	60.764150
2736.000000	60.736782
2735.000000	60.720773
2734.000000	60.718727
2733.000000	60.732994
2732.000000	60.765010
2731.000000	60.815029
2730.000000	60.882009
2729.000000	60.964051
2728.000000	61.058163
2727.000000	61.160183
2726.000000	61.266098
2725.000000	61.373265
2724.000000	61.480485
2723.000000	61.586813
2722.000000	61.690785
2721.000000	61.791073
2720.000000	61.887123
2719.000000	61.978736
2718.000000	62.065518
2717.000000	62.147017
2716.000000	62.222906
2715.000000	62.292873
2714.000000	62.356458
2713.000000	62.413443
2712.000000	62.464150
2711.000000	62.508657
2710.000000	62.546453
2709.000000	62.577071
2708.000000	62.600914
2707.000000	62.619270
2706.000000	62.633463
2705.000000	62.644644
2704.000000	62.653805
2703.000000	62.661330
2702.000000	62.666752
2701.000000	62.669093
2700.000000	62.667659
2699.000000	62.662420
2698.000000	62.654096
2697.000000	62.644417
2696.000000	62.635749
2695.000000	62.629882
2694.000000	62.627040
2693.000000	62.626053
2692.000000	62.625130
2691.000000	62.622231
2690.000000	62.615440
2689.000000	62.603906
2688.000000	62.588569
2687.000000	62.571787
2686.000000	62.556312
2685.000000	62.544548
2684.000000	62.537925
2683.000000	62.535979
2682.000000	62.535973
2681.000000	62.533975
2680.000000	62.526800
2679.000000	62.513407
2678.000000	62.495360
2677.000000	62.476535
2676.000000	62.461981
2675.000000	62.455863
2674.000000	62.459670
2673.000000	62.472060
2672.000000	62.489929
2671.000000	62.509697
2670.000000	62.528338
2669.000000	62.544226
2668.000000	62.557781
2667.000000	62.571090
2666.000000	62.586778
2665.000000	62.606911
2664.000000	62.632037
2663.000000	62.660487
2662.000000	62.688382
2661.000000	62.710763
2660.000000	62.723523
2659.000000	62.725249
2658.000000	62.718088
2657.000000	62.707339
2656.000000	62.699681
2655.000000	62.700630
2654.000000	62.712599
2653.000000	62.734400
2652.000000	62.761947
2651.000000	62.789689
2650.000000	62.812735
2649.000000	62.829019
2648.000000	62.840674
2647.000000	62.853486
2646.000000	62.874885
2645.000000	62.911579
2644.000000	62.966949
2643.000000	63.039577
2642.000000	63.123635
2641.000000	63.210878
2640.000000	63.293370
2639.000000	63.365587
2638.000000	63.426144
2637.000000	63.478523
2636.000000	63.529514
2635.000000	63.585559
2634.000000	63.649424
2633.000000	63.719250
2632.000000	63.789623
2631.000000	63.853241
2630.000000	63.902729
2629.000000	63.933540
2628.000000	63.946366
2627.000000	63.947046
2626.000000	63.944379
2625.000000	63.947136
2624.000000	63.961523
2623.000000	63.988933
2622.000000	64.024945
2621.000000	64.061041
2620.000000	64.088064
2619.000000	64.099602
2618.000000	64.093943
2617.000000	64.074487
2616.000000	64.048638
2615.000000	64.024629
2614.000000	64.007931
2613.000000	63.999218
2612.000000	63.994358
2611.000000	63.986173
2610.000000	63.967136
2609.000000	63.932823
2608.000000	63.884706
2607.000000	63.830321
2606.000000	63.780733
2605.000000	63.747031
2604.000000	63.737035
2603.000000	63.752804
2602.000000	63.790115
2601.000000	63.839770
2600.000000	63.890906
2599.000000	63.934910
2598.000000	63.968287
2597.000000	63.994098
2596.000000	64.020320
2595.000000	64.056104
2594.000000	64.107914
2593.000000	64.176977
2592.000000	64.258972
2591.000000	64.345283
2590.000000	64.425886
2589.000000	64.493230
2588.000000	64.545266
2587.000000	64.586160
2586.000000	64.624580
2585.000000	64.670679
2584.000000	64.732417
2583.000000	64.812055
2582.000000	64.904868
2581.000000	65.001175
2580.000000	65.090307
2579.000000	65.164275
2578.000000	65.220240
2577.000000	65.261789
2576.000000	65.298058
2575.000000	65.340167
2574.000000	65.396686
2573.000000	65.470687
2572.000000	65.558894
2571.000000	65.652449
2570.000000	65.739535
2569.000000	65.809692
2568.000000	65.858008
2567.000000	65.886316
2566.000000	65.901626
2565.000000	65.913615
2564.000000	65.931091
2563.000000	65.958067
2562.000000	65.990917
2561.000000	66.019646
2560.000000	66.032675
2559.000000	66.021043
2558.000000	65.981404
2557.000000	65.917517
2556.000000	65.840120
2555.000000	65.764343
2554.000000	65.705231
2553.000000	65.673796
2552.000000	65.674445
2551.000000	65.704043
2550.000000	65.753111
2549.000000	65.810464
2548.000000	65.867894
2547.000000	65.922515
2546.000000	65.976633
2545.000000	66.035632
2544.000000	66.105763
2543.000000	66.190490
2542.000000	66.287361
2541.000000	66.388434
2540.000000	66.483578
2539.000000	66.564247
2538.000000	66.625943
2537.000000	66.669806
2536.000000	66.702605
2535.000000	66.734227
2534.000000	66.773380
2533.000000	66.824400
2532.000000	66.886270
2531.000000	66.952787
2530.000000	67.014549
2529.000000	67.062708
2528.000000	67.093063
2527.000000	67.107689
2526.000000	67.113496
2525.000000	67.119934
2524.000000	67.136289
2523.000000	67.168201
2522.000000	67.214918
2521.000000	67.269619
2520.000000	67.322678
2519.000000	67.365340
2518.000000	67.392429
2517.000000	67.404248
2516.000000	67.406675
2515.000000	67.408577
2514.000000	67.417965
2513.000000	67.439478
2512.000000	67.473440
2511.000000	67.515318
2510.000000	67.556661
2509.000000	67.588777
2508.000000	67.607138
2507.000000	67.612912
2506.000000	67.611392
2505.000000	67.609994
2504.000000	67.616341
2503.000000	67.635307
2502.000000	67.666405
2501.000000	67.704148
2500.000000	67.741030
2499.000000	67.770265
2498.000000	67.787381
2497.000000	67.791848
2496.000000	67.788009
2495.000000	67.783329
2494.000000	67.784867
2493.000000	67.796733
2492.000000	67.819301
2491.000000	67.848840
2490.000000	67.878168
2489.000000	67.899845
2488.000000	67.910072
2487.000000	67.909869
2486.000000	67.903491
2485.000000	67.896879
2484.000000	67.896451
2483.000000	67.906705
2482.000000	67.927572
2481.000000	67.954482
2480.000000	67.981124
2479.000000	68.001970
2478.000000	68.013412
2477.000000	68.014919
2476.000000	68.009977
2475.000000	68.004604
2474.000000	68.004045
2473.000000	68.010668
2472.000000	68.024034
2471.000000	68.041450
2470.000000	68.058496
2469.000000	68.070775
2468.000000	68.076198
2467.000000	68.075712
2466.000000	68.072411
2465.000000	68.070687
2464.000000	68.075234
2463.000000	68.088747
2462.000000	68.109799
2461.000000	68.133545
2460.000000	68.154709
2459.000000	68.169600
2458.000000	68.176302
2457.000000	68.175020
2456.000000	68.168654
2455.000000	68.161824
2454.000000	68.158652
2453.000000	68.161387
2452.000000	68.170346
2451.000000	68.183875
2450.000000	68.198669
2449.000000	68.211528
2448.000000	68.221352
2447.000000	68.229198
2446.000000	68.236902
2445.000000	68.246494
2444.000000	68.259923
2443.000000	68.277581
2442.000000	68.296929
2441.000000	68.313729
2440.000000	68.324732
2439.000000	68.328815
2438.000000	68.326505
2437.000000	68.319972
2436.000000	68.313264
2435.000000	68.310823
2434.000000	68.315280
2433.000000	68.327044
2432.000000	68.345186
2431.000000	68.367327
2430.000000	68.389491
2429.000000	68.407993
2428.000000	68.422028
2427.000000	68.433475
2426.000000	68.444328
2425.000000	68.455447
2424.000000	68.467129
2423.000000	68.479019
2422.000000	68.489266
2421.000000	68.495382
2420.000000	68.496436
2419.000000	68.493843
2418.000000	68.490371
2417.000000	68.489461
2416.000000	68.494921
2415.000000	68.509389
2414.000000	68.532426
2413.000000	68.560694
2412.000000	68.590002
2411.000000	68.616480
2410.000000	68.636850
2409.000000	68.649491
2408.000000	68.655673
2407.000000	68.658683
2406.000000	68.661646
2405.000000	68.666598
2404.000000	68.674656
2403.000000	68.685543
2402.000000	68.697201
2401.000000	68.707411
2400.000000	68.715941
2399.000000	68.724463
2398.000000	68.735002
2397.000000	68.749725
2396.000000	68.771130
2395.000000	68.800301
2394.000000	68.834734
2393.000000	68.869174
2392.000000	68.898587
2391.000000	68.919732
2390.000000	68.931206
2389.000000	68.933940
2388.000000	68.932263
2387.000000	68.932272
2386.000000	68.939050
2385.000000	68.955677
2384.000000	68.982777
2383.000000	69.018271
2382.000000	69.056896
2381.000000	69.093125
2380.000000	69.125146
2379.000000	69.154543
2378.000000	69.183959
2377.000000	69.215612
2376.000000	69.251402
2375.000000	69.291714
2374.000000	69.334364
2373.000000	69.375506
2372.000000	69.411639
2371.000000	69.440372
2370.000000	69.459930
2369.000000	69.472021
2368.000000	69.482762
2367.000000	69.499539
2366.000000	69.526895
2365.000000	69.565482
2364.000000	69.615766
2363.000000	69.672147
2362.000000	69.723589
2361.000000	69.765713
2360.000000	69.797062
2359.000000	69.820385
2358.000000	69.838686
2357.000000	69.854310
2356.000000	69.875823
2355.000000	69.905214
2354.000000	69.942000
2353.000000	69.983664
2352.000000	70.028971
2351.000000	70.076923
2350.000000	70.113029
2349.000000	70.129034
2348.000000	70.130526
2347.000000	70.141245
2346.000000	70.183509
2345.000000	70.250154
2344.000000	70.321379
2343.000000	70.376368
2342.000000	70.414435
2341.000000	70.441613
2340.000000	70.458818
2339.000000	70.469535
2338.000000	70.478208
2337.000000	70.491755
2336.000000	70.514615
2335.000000	70.548392
2334.000000	70.591691
2333.000000	70.640021
2332.000000	70.685586
2331.000000	70.725884
2330.000000	70.755003
2329.000000	70.776516
2328.000000	70.793507
2327.000000	70.811563
2326.000000	70.837821
2325.000000	70.871714
2324.000000	70.916299
2323.000000	70.964430
2322.000000	71.010195
2321.000000	71.045602
2320.000000	71.069226
2319.000000	71.086651
2318.000000	71.102978
2317.000000	71.124188
2316.000000	71.152668
2315.000000	71.191903
2314.000000	71.238971
2313.000000	71.287819
2312.000000	71.330568
2311.000000	71.363439
2310.000000	71.386059
2309.000000	71.400634
2308.000000	71.413097
2307.000000	71.430071
2306.000000	71.456655
2305.000000	71.492059
2304.000000	71.533571
2303.000000	71.576873
2302.000000	71.617009
2301.000000	71.648917
2300.000000	71.670501
2299.000000	71.684537
2298.000000	71.695702
2297.000000	71.708627
2296.000000	71.727043
2295.000000	71.752656
2294.000000	71.783668
2293.000000	71.814489
2292.000000	71.840772
2291.000000	71.860701
2290.000000	71.875373
2289.000000	71.886715
2288.000000	71.899087
2287.000000	71.917334
2286.000000	71.944136
2285.000000	71.977800
2284.000000	72.014526
2283.000000	72.049837
2282.000000	72.078971
2281.000000	72.098088
2280.000000	72.107020
2279.000000	72.109885
2278.000000	72.112160
2277.000000	72.118714
2276.000000	72.133086
2275.000000	72.156953
2274.000000	72.188133
2273.000000	72.221671
2272.000000	72.253067
2271.000000	72.279955
2270.000000	72.301397
2269.000000	72.317789
2268.000000	72.332121
2267.000000	72.348604
2266.000000	72.369017
2265.000000	72.391683
2264.000000	72.413560
2263.000000	72.431727
2262.000000	72.443222
2261.000000	72.446028
2260.000000	72.441929
2259.000000	72.435931
2258.000000	72.433155
2257.000000	72.436855
2256.000000	72.448814
2255.000000	72.468632
2254.000000	72.491700
2253.000000	72.510849
2252.000000	72.520439
2251.000000	72.518479
2250.000000	72.504899
2249.000000	72.480858
2248.000000	72.450027
2247.000000	72.417251
2246.000000	72.384945
2245.000000	72.351946
2244.000000	72.315955
2243.000000	72.275138
2242.000000	72.227745
2241.000000	72.173058
2240.000000	72.113604
2239.000000	72.054638
2238.000000	72.000775
2237.000000	71.954417
2236.000000	71.916823
2235.000000	71.887990
2234.000000	71.865056
2233.000000	71.843194
2232.000000	71.819284
2231.000000	71.793456
2230.000000	71.767408
2229.000000	71.743421
2228.000000	71.724935
2227.000000	71.715436
2226.000000	71.715387
2225.000000	71.721783
2224.000000	71.730924
2223.000000	71.740068
2222.000000	71.746729
2221.000000	71.749041
2220.000000	71.747882
2219.000000	71.746639
2218.000000	71.747988
2217.000000	71.751965
2216.000000	71.757018
2215.000000	71.760910
2214.000000	71.760452
2213.000000	71.752775
2212.000000	71.737974
2211.000000	71.719376
2210.000000	71.701143
2209.000000	71.687145
2208.000000	71.681426
2207.000000	71.686850
2206.000000	71.702225
2205.000000	71.722338
2204.000000	71.741382
2203.000000	71.755260
2202.000000	71.761383
2201.000000	71.759074
2200.000000	71.750960
2199.000000	71.741802
2198.000000	71.735061
2197.000000	71.731451
2196.000000	71.730165
2195.000000	71.729270
2194.000000	71.725150
2193.000000	71.714398
2192.000000	71.697234
2191.000000	71.677627
2190.000000	71.660022
2189.000000	71.647562
2188.000000	71.642643
2187.000000	71.645977
2186.000000	71.654243
2185.000000	71.660943
2184.000000	71.660697
2183.000000	71.651743
2182.000000	71.634922
2181.000000	71.613034
2180.000000	71.591514
2179.000000	71.577008
2178.000000	71.573737
2177.000000	71.581968
2176.000000	71.599583
2175.000000	71.623136
2174.000000	71.647803
2173.000000	71.669140
2172.000000	71.686079
2171.000000	71.700946
2170.000000	71.716733
2169.000000	71.736032
2168.000000	71.761688
2167.000000	71.795105
2166.000000	71.832930
2165.000000	71.867882
2164.000000	71.894010
2163.000000	71.909972
2162.000000	71.917784
2161.000000	71.921366
2160.000000	71.926731
2159.000000	71.940504
2158.000000	71.966335
2157.000000	72.003284
2156.000000	72.047272
2155.000000	72.092334
2154.000000	72.131228
2153.000000	72.158388
2152.000000	72.173849
2151.000000	72.182915
2150.000000	72.191742
2149.000000	72.204670
2148.000000	72.224676
2147.000000	72.252753
2146.000000	72.285760
2145.000000	72.317243
2144.000000	72.341620
2143.000000	72.356811
2142.000000	72.363897
2141.000000	72.366915
2140.000000	72.372910
2139.000000	72.389132
2138.000000	72.418734
2137.000000	72.459878
2136.000000	72.507912
2135.000000	72.556283
2134.000000	72.596790
2133.000000	72.623179
2132.000000	72.635973
2131.000000	72.641955
2130.000000	72.648779
2129.000000	72.661924
2128.000000	72.685046
2127.000000	72.718763
2126.000000	72.758115
2125.000000	72.794257
2124.000000	72.820151
2123.000000	72.833487
2122.000000	72.835550
2121.000000	72.830831
2120.000000	72.827646
2119.000000	72.835023
2118.000000	72.857181
2117.000000	72.892268
2116.000000	72.935609
2115.000000	72.981207
2114.000000	73.020888
2113.000000	73.046961
2112.000000	73.057963
2111.000000	73.059738
2110.000000	73.060472
2109.000000	73.066804
2108.000000	73.083384
2107.000000	73.111344
2106.000000	73.145625
2105.000000	73.176633
2104.000000	73.196276
2103.000000	73.201453
2102.000000	73.192877
2101.000000	73.174570
2100.000000	73.154683
2099.000000	73.142675
2098.000000	73.143309
2097.000000	73.154472
2096.000000	73.170365
2095.000000	73.183528
2094.000000	73.184773
2093.000000	73.166729
2092.000000	73.130088
2091.000000	73.084259
2090.000000	73.041156
2089.000000	73.009936
2088.000000	72.996293
2087.000000	73.001908
2086.000000	73.022389
2085.000000	73.048637
2084.000000	73.072387
2083.000000	73.089706
2082.000000	73.100088
2081.000000	73.106081
2080.000000	73.114329
2079.000000	73.133326
2078.000000	73.167566
2077.000000	73.214984
2076.000000	73.270123
2075.000000	73.326316
2074.000000	73.375571
2073.000000	73.410783
2072.000000	73.430823
2071.000000	73.441987
2070.000000	73.452711
2069.000000	73.469049
2068.000000	73.495579
2067.000000	73.537096
2066.000000	73.596247
2065.000000	73.669775
2064.000000	73.748280
2063.000000	73.820128
2062.000000	73.877161
2061.000000	73.919333
2060.000000	73.954736
2059.000000	73.993224
2058.000000	74.039528
2057.000000	74.093031
2056.000000	74.151612
2055.000000	74.211987
2054.000000	74.267700
2053.000000	74.311684
2052.000000	74.342196
2051.000000	74.364100
2050.000000	74.384283
2049.000000	74.408709
2048.000000	74.443342
2047.000000	74.492456
2046.000000	74.553475
2045.000000	74.616966
2044.000000	74.673832
2043.000000	74.720560
2042.000000	74.757735
2041.000000	74.787362
2040.000000	74.812984
2039.000000	74.839362
2038.000000	74.870386
2037.000000	74.908543
2036.000000	74.955796
2035.000000	75.011854
2034.000000	75.071818
2033.000000	75.128947
2032.000000	75.180205
2031.000000	75.226768
2030.000000	75.270738
2029.000000	75.314650
2028.000000	75.363458
2027.000000	75.421610
2026.000000	75.487416
2025.000000	75.554145
2024.000000	75.616051
2023.000000	75.670021
2022.000000	75.711366
2021.000000	75.734516
2020.000000	75.740892
2019.000000	75.742387
2018.000000	75.754992
2017.000000	75.789474
2016.000000	75.846521
2015.000000	75.918013
2014.000000	75.992736
2013.000000	76.063090
2012.000000	76.127941
2011.000000	76.188777
2010.000000	76.245193
2009.000000	76.296838
2008.000000	76.347480
2007.000000	76.401811
2006.000000	76.459614
2005.000000	76.517715
2004.000000	76.575040
2003.000000	76.632055
2002.000000	76.685776
2001.000000	76.732138
2000.000000	76.772360
1999.000000	76.811927
1998.000000	76.854651
1997.000000	76.899230
1996.000000	76.942352
1995.000000	76.983381
1994.000000	77.026594
1993.000000	77.080630
1992.000000	77.151147
1991.000000	77.229664
1990.000000	77.297688
1989.000000	77.346110
1988.000000	77.382475
1987.000000	77.416984
1986.000000	77.449336
1985.000000	77.475605
1984.000000	77.500655
1983.000000	77.534135
1982.000000	77.576944
1981.000000	77.621760
1980.000000	77.664065
1979.000000	77.704103
1978.000000	77.740887
1977.000000	77.771963
1976.000000	77.800112
1975.000000	77.832211
1974.000000	77.870838
1973.000000	77.912626
1972.000000	77.953206
1971.000000	77.986789
1970.000000	78.003731
1969.000000	77.999362
1968.000000	77.985878
1967.000000	77.983998
1966.000000	77.999695
1965.000000	78.022087
1964.000000	78.045575
1963.000000	78.078217
1962.000000	78.126748
1961.000000	78.186081
1960.000000	78.245750
1959.000000	78.297174
1958.000000	78.332430
1957.000000	78.346441
1956.000000	78.345423
1955.000000	78.343944
1954.000000	78.351077
1953.000000	78.366104
1952.000000	78.388093
1951.000000	78.418577
1950.000000	78.451314
1949.000000	78.473314
1948.000000	78.478317
1947.000000	78.469694
1946.000000	78.451015
1945.000000	78.425727
1944.000000	78.409595
1943.000000	78.429801
1942.000000	78.496898
1941.000000	78.586661
1940.000000	78.666326
1939.000000	78.722118
1938.000000	78.751283
1937.000000	78.750539
1936.000000	78.722782
1935.000000	78.683016
1934.000000	78.650417
1933.000000	78.637824
1932.000000	78.651583
1931.000000	78.692591
1930.000000	78.750237
1929.000000	78.807297
1928.000000	78.849210
1927.000000	78.865474
1926.000000	78.847618
1925.000000	78.798411
1924.000000	78.747490
1923.000000	78.736387
1922.000000	78.777618
1921.000000	78.847040
1920.000000	78.918328
1919.000000	78.980001
1918.000000	79.021511
1917.000000	79.025206
1916.000000	78.985709
1915.000000	78.925656
1914.000000	78.875626
1913.000000	78.849761
1912.000000	78.850073
1911.000000	78.879973
1910.000000	78.940853
1909.000000	79.021856
1908.000000	79.098839
1907.000000	79.148395
1906.000000	79.159167
1905.000000	79.134552
1904.000000	79.094405
1903.000000	79.063940
1902.000000	79.058633
1901.000000	79.080753
1900.000000	79.121690
1899.000000	79.164921
1898.000000	79.190044
1897.000000	79.183858
1896.000000	79.154444
1895.000000	79.123296
1894.000000	79.102070
1893.000000	79.089548
1892.000000	79.089265
1891.000000	79.114810
1890.000000	79.175222
1889.000000	79.254291
1888.000000	79.312290
1887.000000	79.320586
1886.000000	79.281066
1885.000000	79.214143
1884.000000	79.145596
1883.000000	79.096956
1882.000000	79.079578
1881.000000	79.097238
1880.000000	79.147356
1879.000000	79.217469
1878.000000	79.284181
1877.000000	79.322416
1876.000000	79.321682
1875.000000	79.288301
1874.000000	79.234222
1873.000000	79.175547
1872.000000	79.133926
1871.000000	79.123993
1870.000000	79.143143
1869.000000	79.183916
1868.000000	79.236015
1867.000000	79.274106
1866.000000	79.275408
1865.000000	79.239149
1864.000000	79.182074
1863.000000	79.128564
1862.000000	79.100123
1861.000000	79.108685
1860.000000	79.154475
1859.000000	79.224187
1858.000000	79.291297
1857.000000	79.327534
1856.000000	79.318600
1855.000000	79.269806
1854.000000	79.197787
1853.000000	79.124131
1852.000000	79.068966
1851.000000	79.042292
1850.000000	79.042066
1849.000000	79.059393
1848.000000	79.092148
1847.000000	79.142768
1846.000000	79.198012
1845.000000	79.223151
1844.000000	79.191968
1843.000000	79.112553
1842.000000	79.020986
1841.000000	78.960062
1840.000000	78.949365
1839.000000	78.977294
1838.000000	79.015068
1837.000000	79.035058
1836.000000	79.022229
1835.000000	78.973158
1834.000000	78.896723
1833.000000	78.814187
1832.000000	78.749460
1831.000000	78.721749
1830.000000	78.744555
1829.000000	78.795991
1828.000000	78.827535
1827.000000	78.822021
1826.000000	78.787121
1825.000000	78.726691
1824.000000	78.645088
1823.000000	78.555583
1822.000000	78.479849
1821.000000	78.434929
1820.000000	78.425091
1819.000000	78.444223
1818.000000	78.475237
1817.000000	78.494297
1816.000000	78.481609
1815.000000	78.423583
1814.000000	78.318918
1813.000000	78.188974
1812.000000	78.077527
1811.000000	78.024507
1810.000000	78.028207
1809.000000	78.057296
1808.000000	78.090056
1807.000000	78.113134
1806.000000	78.103321
1805.000000	78.038850
1804.000000	77.928497
1803.000000	77.811299
1802.000000	77.733486
1801.000000	77.723833
1800.000000	77.773057
1799.000000	77.837901
1798.000000	77.874493
1797.000000	77.874585
1796.000000	77.863161
1795.000000	77.857520
1794.000000	77.838669
1793.000000	77.776287
1792.000000	77.688544
1791.000000	77.621490
1790.000000	77.585855
1789.000000	77.573977
1788.000000	77.581824
1787.000000	77.596903
1786.000000	77.595897
1785.000000	77.558980
1784.000000	77.484614
1783.000000	77.383141
1782.000000	77.275066
1781.000000	77.191452
1780.000000	77.154898
1779.000000	77.156062
1778.000000	77.156319
1777.000000	77.127791
1776.000000	77.075669
1775.000000	77.022578
1774.000000	76.972966
1773.000000	76.906025
1772.000000	76.822485
1771.000000	76.738083
1770.000000	76.659940
1769.000000	76.611000
1768.000000	76.614148
1767.000000	76.647759
1766.000000	76.658599
1765.000000	76.620661
1764.000000	76.551227
1763.000000	76.473167
1762.000000	76.392207
1761.000000	76.297438
1760.000000	76.191905
1759.000000	76.110448
1758.000000	76.076141
1757.000000	76.072771
1756.000000	76.056774
1755.000000	75.995050
1754.000000	75.888422
1753.000000	75.752657
1752.000000	75.605908
1751.000000	75.479761
1750.000000	75.400304
1749.000000	75.364722
1748.000000	75.359373
1747.000000	75.358513
1746.000000	75.324543
1745.000000	75.237632
1744.000000	75.125870
1743.000000	75.043671
1742.000000	75.004281
1741.000000	74.966052
1740.000000	74.894148
1739.000000	74.799758
1738.000000	74.712449
1737.000000	74.655527
1736.000000	74.633575
1735.000000	74.597828
1734.000000	74.488560
1733.000000	74.285704
1732.000000	74.029697
1731.000000	73.812730
1730.000000	73.680728
1729.000000	73.606389
1728.000000	73.539515
1727.000000	73.448782
1726.000000	73.323757
1725.000000	73.154536
1724.000000	72.952005
1723.000000	72.752385
1722.000000	72.580744
1721.000000	72.434475
1720.000000	72.294054
1719.000000	72.132790
1718.000000	71.955883
1717.000000	71.799344
1716.000000	71.664712
1715.000000	71.527589
1714.000000	71.361788
1713.000000	71.147123
1712.000000	70.900676
1711.000000	70.660335
1710.000000	70.445486
1709.000000	70.254742
1708.000000	70.080656
1707.000000	69.908726
1706.000000	69.723166
1705.000000	69.528553
1704.000000	69.362623
1703.000000	69.278782
1702.000000	69.280109
1701.000000	69.227463
1700.000000	68.971922
1699.000000	68.566706
1698.000000	68.174514
1697.000000	67.907091
1696.000000	67.765404
1695.000000	67.619481
1694.000000	67.360734
1693.000000	67.027309
1692.000000	66.688764
1691.000000	66.369580
1690.000000	66.072803
1689.000000	65.808498
1688.000000	65.598726
1687.000000	65.460119
1686.000000	65.369918
1685.000000	65.237134
1684.000000	65.045898
1683.000000	64.803929
1682.000000	64.477113
1681.000000	64.131781
1680.000000	63.852595
1679.000000	63.669273
1678.000000	63.566764
1677.000000	63.489759
1676.000000	63.371789
1675.000000	63.168073
1674.000000	62.887948
1673.000000	62.579800
1672.000000	62.298973
1671.000000	62.065303
1670.000000	61.858804
1669.000000	61.644725
1668.000000	61.401436
1667.000000	61.157251
1666.000000	60.953603
1665.000000	60.784257
1664.000000	60.609438
1663.000000	60.405042
1662.000000	60.171393
1661.000000	59.907447
1660.000000	59.626365
1659.000000	59.362270
1658.000000	59.141541
1657.000000	58.968423
1656.000000	58.853289
1655.000000	58.797067
1654.000000	58.745524
1653.000000	58.628300
1652.000000	58.334200
1651.000000	57.910315
1650.000000	57.544686
1649.000000	57.259306
1648.000000	57.017373
1647.000000	56.842731
1646.000000	56.714696
1645.000000	56.533199
1644.000000	56.283542
1643.000000	56.034324
1642.000000	55.810475
1641.000000	55.598650
1640.000000	55.389030
1639.000000	55.201315
1638.000000	55.057316
1637.000000	54.945744
1636.000000	54.850287
1635.000000	54.732202
1634.000000	54.526811
1633.000000	54.254822
1632.000000	53.996139
1631.000000	53.789413
1630.000000	53.623391
1629.000000	53.463224
1628.000000	53.299670
1627.000000	53.153969
1626.000000	53.039157
1625.000000	52.941597
1624.000000	52.838974
1623.000000	52.727597
1622.000000	52.605285
1621.000000	52.468417
1620.000000	52.339125
1619.000000	52.249282
1618.000000	52.200665
1617.000000	52.162919
1616.000000	52.103257
1615.000000	52.015025
1614.000000	51.922485
1613.000000	51.846131
1612.000000	51.785190
1611.000000	51.733757
1610.000000	51.688622
1609.000000	51.646809
1608.000000	51.609892
1607.000000	51.586831
1606.000000	51.581461
1605.000000	51.584102
1604.000000	51.586572
1603.000000	51.597782
1602.000000	51.624441
1601.000000	51.651409
1600.000000	51.661526
1599.000000	51.657670
1598.000000	51.651753
1597.000000	51.647584
1596.000000	51.650550
1595.000000	51.676296
1594.000000	51.730104
1593.000000	51.793367
1592.000000	51.846242
1591.000000	51.888410
1590.000000	51.925452
1589.000000	51.951861
1588.000000	51.962013
1587.000000	51.966168
1586.000000	51.978183
1585.000000	51.999052
1584.000000	52.023068
1583.000000	52.051862
1582.000000	52.085560
1581.000000	52.107307
1580.000000	52.102805
1579.000000	52.087041
1578.000000	52.089535
1577.000000	52.120257
1576.000000	52.160892
1575.000000	52.171056
1574.000000	52.140212
1573.000000	52.108420
1572.000000	52.109814
1571.000000	52.140281
1570.000000	52.171192
1569.000000	52.170287
1568.000000	52.115929
1567.000000	52.039517
1566.000000	51.997167
1565.000000	52.001786
1564.000000	52.031685
1563.000000	52.096149
1562.000000	52.225849
1561.000000	52.446847
1560.000000	52.648862
1559.000000	52.847208
1558.000000	53.058659
1557.000000	53.081953
1556.000000	53.002561
1555.000000	53.005260
1554.000000	53.105317
1553.000000	53.233164
1552.000000	53.333344
1551.000000	53.444623
1550.000000	53.611764
1549.000000	53.815079
1548.000000	53.992183
1547.000000	54.125248
1546.000000	54.242958
1545.000000	54.381511
1544.000000	54.574901
1543.000000	54.835447
1542.000000	55.141977
1541.000000	55.473467
1540.000000	55.854221
1539.000000	56.189439
1538.000000	56.339528
1537.000000	56.380089
1536.000000	56.448668
1535.000000	56.606583
1534.000000	56.866971
1533.000000	57.189239
1532.000000	57.489069
1531.000000	57.732647
1530.000000	57.961164
1529.000000	58.200060
1528.000000	58.451026
1527.000000	58.729368
1526.000000	59.044091
1525.000000	59.364738
1524.000000	59.671460
1523.000000	60.005183
1522.000000	60.433731
1521.000000	60.931606
1520.000000	61.348238
1519.000000	61.623246
1518.000000	61.847043
1517.000000	62.112040
1516.000000	62.432710
1515.000000	62.758744
1514.000000	63.070349
1513.000000	63.379497
1512.000000	63.672577
1511.000000	63.934110
1510.000000	64.164895
1509.000000	64.402271
1508.000000	64.723495
1507.000000	65.312804
1506.000000	66.051603
1505.000000	66.495351
1504.000000	66.637914
1503.000000	66.751769
1502.000000	66.964899
1501.000000	67.281457
1500.000000	67.634200
1499.000000	67.970474
1498.000000	68.276396
1497.000000	68.553349
1496.000000	68.790360
1495.000000	68.975864
1494.000000	69.126123
1493.000000	69.268600
1492.000000	69.416528
1491.000000	69.579493
1490.000000	69.787022
1489.000000	70.043365
1488.000000	70.296546
1487.000000	70.506588
1486.000000	70.664249
1485.000000	70.771335
1484.000000	70.847546
1483.000000	70.930158
1482.000000	71.043980
1481.000000	71.172592
1480.000000	71.282024
1479.000000	71.354384
1478.000000	71.377331
1477.000000	71.336570
1476.000000	71.252423
1475.000000	71.177913
1474.000000	71.140516
1473.000000	71.135570
1472.000000	71.141252
1471.000000	71.101270
1470.000000	70.974514
1469.000000	70.776681
1468.000000	70.540421
1467.000000	70.275099
1466.000000	69.941026
1465.000000	69.493638
1464.000000	68.959796
1463.000000	68.420834
1462.000000	67.934126
1461.000000	67.505983
1460.000000	67.126079
1459.000000	66.774050
1458.000000	66.390882
1457.000000	65.909065
1456.000000	65.308700
1455.000000	64.647880
1454.000000	63.981386
1453.000000	63.274676
1452.000000	62.501595
1451.000000	61.676891
1450.000000	60.762253
1449.000000	59.666822
1448.000000	58.376121
1447.000000	56.977646
1446.000000	55.514727
1445.000000	53.948272
1444.000000	52.256651
1443.000000	50.450798
1442.000000	48.513054
1441.000000	46.446579
1440.000000	44.321409
1439.000000	42.119974
1438.000000	39.580184
1437.000000	36.473908
1436.000000	33.142396
1435.000000	30.197849
1434.000000	27.757560
1433.000000	25.592052
1432.000000	23.628682
1431.000000	21.969351
1430.000000	20.673709
1429.000000	19.752457
1428.000000	19.296136
1427.000000	19.374062
1426.000000	19.928114
1425.000000	20.902225
1424.000000	22.300550
1423.000000	24.019728
1422.000000	25.863321
1421.000000	27.807343
1420.000000	30.022657
1419.000000	32.504282
1418.000000	34.894217
1417.000000	36.935829
1416.000000	38.748566
1415.000000	40.508361
1414.000000	42.229040
1413.000000	43.875566
1412.000000	45.477770
1411.000000	47.064117
1410.000000	48.588979
1409.000000	50.003097
1408.000000	51.321312
1407.000000	52.579009
1406.000000	53.793592
1405.000000	54.983338
1404.000000	56.148090
1403.000000	57.241794
1402.000000	58.235639
1401.000000	59.174003
1400.000000	60.117494
1399.000000	61.051677
1398.000000	61.906403
1397.000000	62.676911
1396.000000	63.446151
1395.000000	64.269226
1394.000000	65.099479
1393.000000	65.859758
1392.000000	66.540553
1391.000000	67.178276
1390.000000	67.797532
1389.000000	68.410546
1388.000000	69.021616
1387.000000	69.608099
1386.000000	70.122777
1385.000000	70.542584
1384.000000	70.882584
1383.000000	71.154096
1382.000000	71.348874
1381.000000	71.454910
1380.000000	71.456954
1379.000000	71.327309
1378.000000	71.036917
1377.000000	70.563268
1376.000000	69.874417
1375.000000	68.945219
1374.000000	67.808687
1373.000000	66.544486
1372.000000	65.225738
1371.000000	63.925106
1370.000000	62.759913
1369.000000	61.900351
1368.000000	61.499485
1367.000000	61.600207
1366.000000	62.137062
1365.000000	63.015451
1364.000000	64.161300
1363.000000	65.508892
1362.000000	66.951849
1361.000000	68.342413
1360.000000	69.561952
1359.000000	70.557195
1358.000000	71.315190
1357.000000	71.836104
1356.000000	72.119222
1355.000000	72.165572
1354.000000	71.986010
1353.000000	71.590806
1352.000000	70.980284
1351.000000	70.146301
1350.000000	69.085594
1349.000000	67.804989
1348.000000	66.306671
1347.000000	64.591226
1346.000000	62.668014
1345.000000	60.556152
1344.000000	58.280791
1343.000000	55.859391
1342.000000	53.294141
1341.000000	50.600128
1340.000000	47.869494
1339.000000	45.292770
1338.000000	43.076063
1337.000000	41.340349
1336.000000	40.105443
1335.000000	39.310324
1334.000000	38.809890
1333.000000	38.393427
1332.000000	37.842669
1331.000000	36.979882
1330.000000	35.681406
1329.000000	33.883271
1328.000000	31.598194
1327.000000	28.925533
1326.000000	26.028075
1325.000000	23.098826
1324.000000	20.351974
1323.000000	17.998348
1322.000000	16.175380
1321.000000	14.902508
1320.000000	14.109894
1319.000000	13.673218
1318.000000	13.434300
1317.000000	13.246028
1316.000000	13.030232
1315.000000	12.786815
1314.000000	12.537712
1313.000000	12.296098
1312.000000	12.084604
1311.000000	11.937683
1310.000000	11.879951
1309.000000	11.925972
1308.000000	12.110086
1307.000000	12.483905
1306.000000	13.074927
1305.000000	13.879974
1304.000000	14.889551
1303.000000	16.089020
1302.000000	17.437258
1301.000000	18.870757
1300.000000	20.339653
1299.000000	21.814577
1298.000000	23.266893
1297.000000	24.670786
1296.000000	26.020253
1295.000000	27.323307
1294.000000	28.580401
1293.000000	29.783271
1292.000000	30.926842
1291.000000	32.006178
1290.000000	32.997785
1289.000000	33.861241
1288.000000	34.556396
1287.000000	35.046498
1286.000000	35.303817
1285.000000	35.332118
1284.000000	35.197140
1283.000000	35.028647
1282.000000	34.978340
1281.000000	35.166189
1280.000000	35.646381
1279.000000	36.395054
1278.000000	37.323319
1277.000000	38.324084
1276.000000	39.317976
1275.000000	40.265178
1274.000000	41.152713
1273.000000	41.983388
1272.000000	42.770638
1271.000000	43.526397
1270.000000	44.249390
1269.000000	44.929197
1268.000000	45.559429
1267.000000	46.139989
1266.000000	46.674359
1265.000000	47.170928
1264.000000	47.644704
1263.000000	48.113783
1262.000000	48.590743
1261.000000	49.079880
1260.000000	49.576937
1259.000000	50.066851
1258.000000	50.528221
1257.000000	50.944650
1256.000000	51.313249
1255.000000	51.643038
1254.000000	51.948989
1253.000000	52.249035
1252.000000	52.560039
1251.000000	52.891246
1250.000000	53.240380
1249.000000	53.595893
1248.000000	53.942660
1247.000000	54.266851
1246.000000	54.561135
1245.000000	54.828840
1244.000000	55.082358
1243.000000	55.336566
1242.000000	55.602472
1241.000000	55.884102
1240.000000	56.176733
1239.000000	56.466174
1238.000000	56.733793
1237.000000	56.964735
1236.000000	57.153618
1235.000000	57.306680
1234.000000	57.440933
1233.000000	57.579810
1232.000000	57.745000
1231.000000	57.948752
1230.000000	58.190434
1229.000000	58.456977
1228.000000	58.726535
1227.000000	58.975774
1226.000000	59.189287
1225.000000	59.365041
1224.000000	59.512500
1223.000000	59.648208
1222.000000	59.792071
1221.000000	59.961192
1220.000000	60.161701
1219.000000	60.385303
1218.000000	60.614629
1217.000000	60.831204
1216.000000	61.020615
1215.000000	61.177639
1214.000000	61.311407
1213.000000	61.443306
1212.000000	61.596205
1211.000000	61.784098
1210.000000	62.008401
1209.000000	62.257950
1208.000000	62.510151
1207.000000	62.737266
1206.000000	62.918092
1205.000000	63.046790
1204.000000	63.132723
1203.000000	63.196753
1202.000000	63.267236
1201.000000	63.370843
1200.000000	63.520690
1199.000000	63.711036
1198.000000	63.921582
1197.000000	64.124669
1196.000000	64.290687
1195.000000	64.396925
1194.000000	64.436916
1193.000000	64.420217
1192.000000	64.363254
1191.000000	64.280757
1190.000000	64.185601
1189.000000	64.089467
1188.000000	64.000896
1187.000000	63.926496
1186.000000	63.874856
1185.000000	63.856136
1184.000000	63.876741
1183.000000	63.937593
1182.000000	64.037542
1181.000000	64.179635
1180.000000	64.370536
1179.000000	64.612774
1178.000000	64.896345
1177.000000	65.193604
1176.000000	65.465547
1175.000000	65.679150
1174.000000	65.824284
1173.000000	65.915727
1172.000000	65.982259
1171.000000	66.056195
1170.000000	66.166119
1169.000000	66.326718
1168.000000	66.529408
1167.000000	66.746607
1166.000000	66.946892
1165.000000	67.106897
1164.000000	67.216003
1163.000000	67.281137
1162.000000	67.328871
1161.000000	67.394809
1160.000000	67.505544
1159.000000	67.669224
1158.000000	67.876817
1157.000000	68.104676
1156.000000	68.317693
1155.000000	68.481846
1154.000000	68.582006
1153.000000	68.627379
1152.000000	68.642824
1151.000000	68.660505
1150.000000	68.714219
1149.000000	68.826977
1148.000000	68.996303
1147.000000	69.194380
1146.000000	69.383511
1145.000000	69.530455
1144.000000	69.613985
1143.000000	69.633167
1142.000000	69.613482
1141.000000	69.597298
1140.000000	69.622512
1139.000000	69.708688
1138.000000	69.855133
1137.000000	70.041066
1136.000000	70.227513
1135.000000	70.370994
1134.000000	70.445378
1133.000000	70.452032
1132.000000	70.413818
1131.000000	70.366591
1130.000000	70.351275
1129.000000	70.398683
1128.000000	70.513382
1127.000000	70.672769
1126.000000	70.841050
1125.000000	70.982160
1124.000000	71.067665
1123.000000	71.088114
1122.000000	71.062893
1121.000000	71.032247
1120.000000	71.036140
1119.000000	71.099756
1118.000000	71.229617
1117.000000	71.409710
1116.000000	71.600388
1115.000000	71.752670
1114.000000	71.833147
1113.000000	71.837027
1112.000000	71.783969
1111.000000	71.711423
1110.000000	71.668023
1109.000000	71.696288
1108.000000	71.811368
1107.000000	71.995610
1106.000000	72.210241
1105.000000	72.408619
1104.000000	72.547046
1103.000000	72.601580
1102.000000	72.583250
1101.000000	72.532058
1100.000000	72.493748
1099.000000	72.503384
1098.000000	72.579436
1097.000000	72.716372
1096.000000	72.880562
1095.000000	73.023415
1094.000000	73.107374
1093.000000	73.121060
1092.000000	73.077969
1091.000000	73.012696
1090.000000	72.975292
1089.000000	73.011815
1088.000000	73.139784
1087.000000	73.341669
1086.000000	73.577229
1085.000000	73.796683
1084.000000	73.950296
1083.000000	74.005532
1082.000000	73.965333
1081.000000	73.866994
1080.000000	73.762462
1079.000000	73.700638
1078.000000	73.716669
1077.000000	73.817910
1076.000000	73.974990
1075.000000	74.134760
1074.000000	74.248395
1073.000000	74.289157
1072.000000	74.253253
1071.000000	74.159359
1070.000000	74.045607
1069.000000	73.949175
1068.000000	73.881834
1067.000000	73.823182
1066.000000	73.735192
1065.000000	73.579635
1064.000000	73.331490
1063.000000	72.997691
1062.000000	72.628712
1061.000000	72.303315
1060.000000	72.094703
1059.000000	72.049505
1058.000000	72.180324
1057.000000	72.463823
1056.000000	72.842963
1055.000000	73.241901
1054.000000	73.593154
1053.000000	73.852730
1052.000000	74.003630
1051.000000	74.060471
1050.000000	74.070561
1049.000000	74.093318
1048.000000	74.169217
1047.000000	74.305828
1046.000000	74.484319
1045.000000	74.669525
1044.000000	74.817595
1043.000000	74.894890
1042.000000	74.900051
1041.000000	74.865514
1040.000000	74.838026
1039.000000	74.861889
1038.000000	74.968789
1037.000000	75.164102
1036.000000	75.416534
1035.000000	75.669419
1034.000000	75.867317
1033.000000	75.974714
1032.000000	75.981356
1031.000000	75.907431
1030.000000	75.804602
1029.000000	75.736375
1028.000000	75.747664
1027.000000	75.850285
1026.000000	76.027625
1025.000000	76.241588
1024.000000	76.440040
1023.000000	76.577099
1022.000000	76.637428
1021.000000	76.639764
1020.000000	76.620022
1019.000000	76.617574
1018.000000	76.667028
1017.000000	76.783281
1016.000000	76.947237
1015.000000	77.113953
1014.000000	77.237468
1013.000000	77.288227
1012.000000	77.258066
1011.000000	77.166143
1010.000000	77.060724
1009.000000	77.000358
1008.000000	77.024938
1007.000000	77.143169
1006.000000	77.337895
1005.000000	77.570492
1004.000000	77.785531
1003.000000	77.930769
1002.000000	77.983501
1001.000000	77.957014
1000.000000	77.886675
999.000000	77.816866
998.000000	77.791480
997.000000	77.837114
996.000000	77.946783
995.000000	78.085069
994.000000	78.210909
993.000000	78.293742
992.000000	78.317741
991.000000	78.288893
990.000000	78.240592
989.000000	78.219710
988.000000	78.261228
987.000000	78.375793
986.000000	78.551779
985.000000	78.756680
984.000000	78.940606
983.000000	79.055612
982.000000	79.081151
981.000000	79.030260
980.000000	78.936632
979.000000	78.843970
978.000000	78.798616
977.000000	78.832034
976.000000	78.942167
975.000000	79.096545
974.000000	79.253979
973.000000	79.379413
972.000000	79.448051
971.000000	79.454555
970.000000	79.422338
969.000000	79.392120
968.000000	79.397749
967.000000	79.454409
966.000000	79.560430
965.000000	79.695946
964.000000	79.822690
963.000000	79.900242
962.000000	79.910483
961.000000	79.863371
960.000000	79.784059
959.000000	79.705249
958.000000	79.665512
957.000000	79.695288
956.000000	79.797162
955.000000	79.945598
954.000000	80.104728
953.000000	80.240448
952.000000	80.323726
951.000000	80.340678
950.000000	80.304660
949.000000	80.249241
948.000000	80.207643
947.000000	80.201946
946.000000	80.243268
945.000000	80.325865
944.000000	80.421880
943.000000	80.494554
942.000000	80.521948
941.000000	80.503634
940.000000	80.451142
939.000000	80.385316
938.000000	80.338665
937.000000	80.342424
936.000000	80.405339
935.000000	80.510868
934.000000	80.631586
933.000000	80.738457
932.000000	80.802726
931.000000	80.806226
930.000000	80.753986
929.000000	80.669651
928.000000	80.579523
927.000000	80.506740
926.000000	80.472422
925.000000	80.485109
924.000000	80.528972
923.000000	80.573323
922.000000	80.594543
921.000000	80.582100
920.000000	80.531442
919.000000	80.447037
918.000000	80.350674
917.000000	80.271372
916.000000	80.224848
915.000000	80.208496
914.000000	80.210089
913.000000	80.209975
912.000000	80.178583
911.000000	80.089152
910.000000	79.935389
909.000000	79.730461
908.000000	79.493768
907.000000	79.248286
906.000000	79.023251
905.000000	78.840595
904.000000	78.696908
903.000000	78.568508
902.000000	78.429810
901.000000	78.258990
900.000000	78.034125
899.000000	77.741915
898.000000	77.391987
897.000000	77.009704
896.000000	76.617153
895.000000	76.226801
894.000000	75.844178
893.000000	75.463749
892.000000	75.062115
891.000000	74.609586
890.000000	74.088801
889.000000	73.496419
888.000000	72.837420
887.000000	72.127630
886.000000	71.396186
885.000000	70.670196
884.000000	69.954908
883.000000	69.236328
882.000000	68.492288
881.000000	67.694483
880.000000	66.810282
879.000000	65.817190
878.000000	64.720103
877.000000	63.546680
876.000000	62.332339
875.000000	61.113104
874.000000	59.918861
873.000000	58.762661
872.000000	57.636804
871.000000	56.524773
870.000000	55.413885
869.000000	54.298623
868.000000	53.182835
867.000000	52.086129
866.000000	51.041368
865.000000	50.077584
864.000000	49.210287
863.000000	48.440751
862.000000	47.756395
861.000000	47.130946
860.000000	46.531337
859.000000	45.934873
858.000000	45.336408
857.000000	44.744385
856.000000	44.178436
855.000000	43.666514
854.000000	43.237124
853.000000	42.904656
852.000000	42.664552
851.000000	42.502500
850.000000	42.398758
849.000000	42.331790
848.000000	42.288194
847.000000	42.276101
846.000000	42.326028
845.000000	42.470051
844.000000	42.730242
843.000000	43.119947
842.000000	43.640455
841.000000	44.272262
840.000000	44.974530
839.000000	45.708733
838.000000	46.457434
837.000000	47.219301
836.000000	48.002250
835.000000	48.826476
834.000000	49.712546
833.000000	50.635242
832.000000	51.488351
831.000000	52.055247
830.000000	51.979916
829.000000	50.771216
828.000000	48.036348
827.000000	43.954319
826.000000	39.543364
825.000000	36.263645
824.000000	35.147679
823.000000	36.221936
822.000000	38.714808
821.000000	41.726413
820.000000	44.653541
819.000000	47.194894
818.000000	49.237026
817.000000	50.803983
816.000000	52.027969
815.000000	53.057048
814.000000	53.992593
813.000000	54.893982
812.000000	55.796870
811.000000	56.692057
810.000000	57.524938
809.000000	58.238561
808.000000	58.806794
807.000000	59.235215
806.000000	59.556628
805.000000	59.836782
804.000000	60.155093
803.000000	60.560339
802.000000	61.051954
801.000000	61.596946
800.000000	62.146579
799.000000	62.640686
798.000000	63.027398
797.000000	63.297332
796.000000	63.490746
795.000000	63.671060
794.000000	63.899041
793.000000	64.220289
792.000000	64.648771
791.000000	65.150751
790.000000	65.656156
789.000000	66.093722
788.000000	66.416201
787.000000	66.609837
786.000000	66.703355
785.000000	66.767384
784.000000	66.885161
783.000000	67.111577
782.000000	67.455341
781.000000	67.885718
780.000000	68.342072
779.000000	68.747089
778.000000	69.037449
777.000000	69.196596
776.000000	69.258860
775.000000	69.288014
774.000000	69.355028
773.000000	69.518609
772.000000	69.800346
771.000000	70.168809
770.000000	70.553050
769.000000	70.875828
768.000000	71.079434
767.000000	71.142814
766.000000	71.096067
765.000000	71.016415
764.000000	70.993678
763.000000	71.089671
762.000000	71.320685
761.000000	71.659729
760.000000	72.041339
759.000000	72.376779
758.000000	72.590602
757.000000	72.657146
756.000000	72.606519
755.000000	72.506238
754.000000	72.439023
753.000000	72.477136
752.000000	72.650739
751.000000	72.932387
750.000000	73.253910
749.000000	73.538607
748.000000	73.723796
747.000000	73.779368
746.000000	73.727368
745.000000	73.640750
744.000000	73.607081
743.000000	73.686530
742.000000	73.895018
741.000000	74.205838
740.000000	74.552336
739.000000	74.843587
738.000000	75.003749
737.000000	75.007916
736.000000	74.885742
735.000000	74.703870
734.000000	74.546966
733.000000	74.491963
732.000000	74.573629
731.000000	74.767990
730.000000	75.010646
729.000000	75.226777
728.000000	75.350319
727.000000	75.343719
726.000000	75.221615
725.000000	75.051308
724.000000	74.916325
723.000000	74.876751
722.000000	74.956389
721.000000	75.143268
720.000000	75.385528
719.000000	75.603202
718.000000	75.729128
717.000000	75.744411
716.000000	75.677202
715.000000	75.584349
714.000000	75.539108
713.000000	75.610260
712.000000	75.825544
711.000000	76.152785
710.000000	76.522897
709.000000	76.863284
708.000000	77.111425
707.000000	77.227334
706.000000	77.217696
705.000000	77.141471
704.000000	77.076987
703.000000	77.081605
702.000000	77.180686
701.000000	77.370836
700.000000	77.613311
699.000000	77.841444
698.000000	77.997264
697.000000	78.063356
696.000000	78.058964
695.000000	78.022392
694.000000	78.008017
693.000000	78.073256
692.000000	78.239296
691.000000	78.473887
690.000000	78.721910
689.000000	78.938154
688.000000	79.083410
687.000000	79.121360
686.000000	79.053659
685.000000	78.939363
684.000000	78.853934
683.000000	78.841730
682.000000	78.919362
681.000000	79.091481
680.000000	79.331420
679.000000	79.572318
678.000000	79.753901
677.000000	79.858476
676.000000	79.891707
675.000000	79.877926
674.000000	79.864512
673.000000	79.902628
672.000000	80.013879
671.000000	80.187691
670.000000	80.409618
669.000000	80.666388
668.000000	80.882471
667.000000	80.934028
666.000000	80.829482
665.000000	80.685267
664.000000	80.595814
663.000000	80.606390
662.000000	80.718358
661.000000	80.902474
660.000000	81.118593
659.000000	81.325858
658.000000	81.487776
657.000000	81.581490
656.000000	81.605717
655.000000	81.593179
654.000000	81.588192
653.000000	81.615407
652.000000	81.683687
651.000000	81.796054
650.000000	81.940199
649.000000	82.083164
648.000000	82.193097
647.000000	82.260859
646.000000	82.296921
645.000000	82.320325
644.000000	82.353336
643.000000	82.414693
642.000000	82.510481
641.000000	82.631738
640.000000	82.762684
639.000000	82.887614
638.000000	82.989844
637.000000	83.056745
636.000000	83.093507
635.000000	83.124513
634.000000	83.175373
633.000000	83.255398
632.000000	83.357943
631.000000	83.472290
630.000000	83.588322
629.000000	83.693657
628.000000	83.776825
627.000000	83.837629
626.000000	83.889932
625.000000	83.952041
624.000000	84.033507
623.000000	84.132287
622.000000	84.242854
621.000000	84.361152
620.000000	84.482029
619.000000	84.598863
618.000000	84.708761
617.000000	84.814108
616.000000	84.916601
615.000000	85.013379
614.000000	85.098721
613.000000	85.165676
612.000000	85.205450
611.000000	85.213253
610.000000	85.194215
609.000000	85.154892
608.000000	85.088475
607.000000	84.968882
606.000000	84.757378
605.000000	84.396766
604.000000	83.788474
603.000000	82.788056
602.000000	81.213077
601.000000	78.892017
600.000000	75.769350
599.000000	72.049760
598.000000	68.251931
597.000000	65.059186
596.000000	63.051274
595.000000	62.477905
594.000000	63.183546
593.000000	64.733970
592.000000	66.671760
591.000000	68.660800
590.000000	70.500355
589.000000	72.119480
588.000000	73.537297
587.000000	74.802143
586.000000	75.942048
585.000000	76.960758
584.000000	77.850500
583.000000	78.605443
582.000000	79.227605
581.000000	79.732360
580.000000	80.144668
579.000000	80.485340
578.000000	80.778460
577.000000	81.060187
576.000000	81.364601
575.000000	81.697368
574.000000	82.031652
573.000000	82.338752
572.000000	82.607498
571.000000	82.838839
570.000000	83.041351
569.000000	83.231552
568.000000	83.425372
567.000000	83.625138
566.000000	83.818994
565.000000	83.992221
564.000000	84.130088
563.000000	84.218121
562.000000	84.251986
561.000000	84.247497
560.000000	84.235804
559.000000	84.250106
558.000000	84.317593
557.000000	84.454147
556.000000	84.657767
555.000000	84.905167
554.000000	85.159177
553.000000	85.381711
552.000000	85.542540
551.000000	85.627951
550.000000	85.651373
549.000000	85.646808
548.000000	85.644819
547.000000	85.661305
546.000000	85.704751
545.000000	85.778185
544.000000	85.868573
543.000000	85.951288
542.000000	86.013599
541.000000	86.066574
540.000000	86.128601
539.000000	86.210647
538.000000	86.321745
537.000000	86.471926
536.000000	86.657296
535.000000	86.850345
534.000000	87.014641
533.000000	87.126808
532.000000	87.177585
531.000000	87.166167
530.000000	87.108250
529.000000	87.036136
528.000000	86.981064
527.000000	86.966391
526.000000	87.015781
525.000000	87.137706
524.000000	87.296506
523.000000	87.422524
522.000000	87.455245
521.000000	87.365693
520.000000	87.146962
519.000000	86.806621
518.000000	86.380390
517.000000	85.939427
516.000000	85.562076
515.000000	85.301768
514.000000	85.177738
513.000000	85.178881
512.000000	85.263017
511.000000	85.367525
510.000000	85.436505
509.000000	85.436796
508.000000	85.338204
507.000000	85.097414
506.000000	84.668906
505.000000	84.018594
504.000000	83.135050
503.000000	82.071600
502.000000	80.998541
501.000000	80.145944
500.000000	79.662662
499.000000	79.563480
498.000000	79.785210
497.000000	80.226859
496.000000	80.761459
495.000000	81.266653
494.000000	81.667727
493.000000	81.962957
492.000000	82.200389
491.000000	82.440684
490.000000	82.731489
489.000000	83.094105
488.000000	83.517410
487.000000	83.974417
486.000000	84.450073
485.000000	84.942857
484.000000	85.436738
483.000000	85.891799
482.000000	86.277057
481.000000	86.590859
480.000000	86.837888
479.000000	87.018617
478.000000	87.151894
477.000000	87.281641
476.000000	87.440913
475.000000	87.626782
474.000000	87.826307
473.000000	88.041563
472.000000	88.260205
471.000000	88.420893
470.000000	88.475374
469.000000	88.457208
468.000000	88.442859
467.000000	88.488283
466.000000	88.602272
465.000000	88.764513
464.000000	88.939192
463.000000	89.080691
462.000000	89.164062
461.000000	89.198873
460.000000	89.190853
459.000000	89.122191
458.000000	89.011941
457.000000	88.945782
456.000000	88.970146
455.000000	89.049667
454.000000	89.143240
453.000000	89.237811
452.000000	89.312785
451.000000	89.303136
450.000000	89.141171
449.000000	88.825122
448.000000	88.414660
447.000000	87.974747
446.000000	87.527508
445.000000	87.040303
444.000000	86.429892
443.000000	85.587605
442.000000	84.431101
441.000000	82.952935
440.000000	81.217805
439.000000	79.347599
438.000000	77.516310
437.000000	75.965058
436.000000	74.961250
435.000000	74.660745
434.000000	74.993024
433.000000	75.744762
432.000000	76.734796
431.000000	77.831279
430.000000	78.922403
429.000000	79.957400
428.000000	80.959809
427.000000	81.968082
426.000000	82.991018
425.000000	84.023613
424.000000	85.030926
423.000000	85.919599
422.000000	86.591100
421.000000	87.034293
420.000000	87.314535
419.000000	87.601901
418.000000	88.087758
417.000000	88.705994
416.000000	89.311868
415.000000	89.838494
414.000000	90.237028
413.000000	90.496981
412.000000	90.626243
411.000000	90.610919
410.000000	90.488704
409.000000	90.403201
408.000000	90.479953
407.000000	90.720002
406.000000	91.062095
405.000000	91.475946
404.000000	91.887539
403.000000	92.116538
402.000000	92.014838
401.000000	91.618575
400.000000	91.069788
