PE IR       SUBTECH     SPECTRUM    ASCII       PEDS        4.00        
   -1
23MS122_nitrito.asc
24/09/05
16:31:40.00
24/09/05
16:31:40.00
Administrator
Sample 1109 By Administrator Date Thursday, September 05 2024
400.000000
#HDR
-1
-1
#GR
cm-1
%T
1.0
0.0
4000.000000
-1.000000
3601
8
79.732064
4.937670
#DATA
4000.000000	58.044320
3999.000000	58.101031
3998.000000	58.156292
3997.000000	58.209976
3996.000000	58.262375
3995.000000	58.313668
3994.000000	58.364083
3993.000000	58.414650
3992.000000	58.467228
3991.000000	58.523281
3990.000000	58.582496
3989.000000	58.642931
3988.000000	58.702615
3987.000000	58.760723
3986.000000	58.817337
3985.000000	58.872500
3984.000000	58.925878
3983.000000	58.977204
3982.000000	59.026601
3981.000000	59.074382
3980.000000	59.120946
3979.000000	59.167194
3978.000000	59.214789
3977.000000	59.265464
3976.000000	59.319771
3975.000000	59.376388
3974.000000	59.432809
3973.000000	59.487100
3972.000000	59.539174
3971.000000	59.590444
3970.000000	59.642188
3969.000000	59.694225
3968.000000	59.745067
3967.000000	59.793144
3966.000000	59.837948
3965.000000	59.880477
3964.000000	59.922872
3963.000000	59.967231
3962.000000	60.014259
3961.000000	60.062912
3960.000000	60.111725
3959.000000	60.160538
3958.000000	60.210578
3957.000000	60.262891
3956.000000	60.316931
3955.000000	60.370687
3954.000000	60.421920
3953.000000	60.469523
3952.000000	60.514210
3951.000000	60.558427
3950.000000	60.605114
3949.000000	60.655332
3948.000000	60.706695
3947.000000	60.755017
3946.000000	60.798807
3945.000000	60.842154
3944.000000	60.892227
3943.000000	60.952679
3942.000000	61.019706
3941.000000	61.085421
3940.000000	61.144724
3939.000000	61.197934
3938.000000	61.247280
3937.000000	61.293154
3936.000000	61.335159
3935.000000	61.375707
3934.000000	61.420731
3933.000000	61.475618
3932.000000	61.540244
3931.000000	61.608148
3930.000000	61.670785
3929.000000	61.723532
3928.000000	61.768680
3927.000000	61.813524
3926.000000	61.864890
3925.000000	61.923947
3924.000000	61.985771
3923.000000	62.043969
3922.000000	62.095240
3921.000000	62.140725
3920.000000	62.184902
3919.000000	62.233105
3918.000000	62.288109
3917.000000	62.347645
3916.000000	62.405790
3915.000000	62.457618
3914.000000	62.502787
3913.000000	62.545012
3912.000000	62.588799
3911.000000	62.636238
3910.000000	62.685929
3909.000000	62.735122
3908.000000	62.782968
3907.000000	62.831929
3906.000000	62.885541
3905.000000	62.944809
3904.000000	63.006587
3903.000000	63.066489
3902.000000	63.123133
3901.000000	63.178355
3900.000000	63.233681
3899.000000	63.287220
3898.000000	63.335303
3897.000000	63.376705
3896.000000	63.414674
3895.000000	63.455720
3894.000000	63.506738
3893.000000	63.570823
3892.000000	63.642980
3891.000000	63.710940
3890.000000	63.764300
3889.000000	63.803258
3888.000000	63.837358
3887.000000	63.878636
3886.000000	63.931721
3885.000000	63.989403
3884.000000	64.042405
3883.000000	64.090601
3882.000000	64.141187
3881.000000	64.199716
3880.000000	64.262693
3879.000000	64.320648
3878.000000	64.369078
3877.000000	64.412060
3876.000000	64.456798
3875.000000	64.506816
3874.000000	64.559552
3873.000000	64.611682
3872.000000	64.664801
3871.000000	64.722382
3870.000000	64.781854
3869.000000	64.834845
3868.000000	64.878162
3867.000000	64.917503
3866.000000	64.960007
3865.000000	65.009231
3864.000000	65.064064
3863.000000	65.121064
3862.000000	65.177395
3861.000000	65.230917
3860.000000	65.280320
3859.000000	65.325760
3858.000000	65.368300
3857.000000	65.411347
3856.000000	65.462745
3855.000000	65.532174
3854.000000	65.615531
3853.000000	65.688271
3852.000000	65.736210
3851.000000	65.772210
3850.000000	65.809616
3849.000000	65.851145
3848.000000	65.897225
3847.000000	65.948866
3846.000000	66.006426
3845.000000	66.068601
3844.000000	66.132544
3843.000000	66.195623
3842.000000	66.257415
3841.000000	66.320026
3840.000000	66.385726
3839.000000	66.453593
3838.000000	66.518053
3837.000000	66.573702
3836.000000	66.621394
3835.000000	66.667129
3834.000000	66.715010
3833.000000	66.764583
3832.000000	66.813622
3831.000000	66.861588
3830.000000	66.910669
3829.000000	66.963306
3828.000000	67.019291
3827.000000	67.076245
3826.000000	67.132456
3825.000000	67.189416
3824.000000	67.251314
3823.000000	67.321143
3822.000000	67.395037
3821.000000	67.462025
3820.000000	67.516289
3819.000000	67.564707
3818.000000	67.614059
3817.000000	67.662889
3816.000000	67.706911
3815.000000	67.746036
3814.000000	67.787587
3813.000000	67.837722
3812.000000	67.894152
3811.000000	67.952554
3810.000000	68.012542
3809.000000	68.074809
3808.000000	68.136806
3807.000000	68.193963
3806.000000	68.246702
3805.000000	68.302655
3804.000000	68.367465
3803.000000	68.437880
3802.000000	68.504748
3801.000000	68.560162
3800.000000	68.607413
3799.000000	68.658259
3798.000000	68.715311
3797.000000	68.770479
3796.000000	68.817437
3795.000000	68.857740
3794.000000	68.897889
3793.000000	68.942280
3792.000000	68.991136
3791.000000	69.043336
3790.000000	69.098701
3789.000000	69.157360
3788.000000	69.219350
3787.000000	69.284656
3786.000000	69.352330
3785.000000	69.419908
3784.000000	69.485499
3783.000000	69.549984
3782.000000	69.615328
3781.000000	69.680827
3780.000000	69.742622
3779.000000	69.797429
3778.000000	69.845860
3777.000000	69.891329
3776.000000	69.936676
3775.000000	69.983830
3774.000000	70.035008
3773.000000	70.092418
3772.000000	70.156423
3771.000000	70.224449
3770.000000	70.292033
3769.000000	70.356243
3768.000000	70.418263
3767.000000	70.480956
3766.000000	70.545195
3765.000000	70.609875
3764.000000	70.673707
3763.000000	70.736128
3762.000000	70.795951
3761.000000	70.851521
3760.000000	70.903882
3759.000000	70.957636
3758.000000	71.017053
3757.000000	71.082111
3756.000000	71.149661
3755.000000	71.218161
3754.000000	71.288632
3753.000000	71.362316
3752.000000	71.437268
3751.000000	71.506888
3750.000000	71.565279
3749.000000	71.613800
3748.000000	71.658006
3747.000000	71.699473
3746.000000	71.737227
3745.000000	71.776378
3744.000000	71.825552
3743.000000	71.891920
3742.000000	71.977637
3741.000000	72.070153
3740.000000	72.150345
3739.000000	72.209783
3738.000000	72.253600
3737.000000	72.297426
3736.000000	72.360239
3735.000000	72.449944
3734.000000	72.550787
3733.000000	72.633592
3732.000000	72.682838
3731.000000	72.708617
3730.000000	72.731166
3729.000000	72.761433
3728.000000	72.800306
3727.000000	72.848607
3726.000000	72.909802
3725.000000	72.984522
3724.000000	73.067579
3723.000000	73.150957
3722.000000	73.229069
3721.000000	73.300880
3720.000000	73.368329
3719.000000	73.433013
3718.000000	73.494650
3717.000000	73.553204
3716.000000	73.611396
3715.000000	73.673383
3714.000000	73.739911
3713.000000	73.806890
3712.000000	73.869142
3711.000000	73.925504
3710.000000	73.979058
3709.000000	74.033520
3708.000000	74.090753
3707.000000	74.151395
3706.000000	74.214380
3705.000000	74.276020
3704.000000	74.331545
3703.000000	74.378363
3702.000000	74.418931
3701.000000	74.459215
3700.000000	74.504963
3699.000000	74.557526
3698.000000	74.613912
3697.000000	74.671261
3696.000000	74.730804
3695.000000	74.796099
3694.000000	74.868012
3693.000000	74.943219
3692.000000	75.017204
3691.000000	75.085609
3690.000000	75.141647
3689.000000	75.179668
3688.000000	75.204301
3687.000000	75.230246
3686.000000	75.266794
3685.000000	75.309842
3684.000000	75.351018
3683.000000	75.387585
3682.000000	75.421834
3681.000000	75.456794
3680.000000	75.495581
3679.000000	75.539318
3678.000000	75.582131
3677.000000	75.611345
3676.000000	75.622656
3675.000000	75.633002
3674.000000	75.665202
3673.000000	75.716952
3672.000000	75.757755
3671.000000	75.761866
3670.000000	75.735659
3669.000000	75.707802
3668.000000	75.698969
3667.000000	75.706119
3666.000000	75.713313
3665.000000	75.710701
3664.000000	75.700106
3663.000000	75.689068
3662.000000	75.683248
3661.000000	75.683204
3660.000000	75.684065
3659.000000	75.675613
3658.000000	75.645357
3657.000000	75.590376
3656.000000	75.528174
3655.000000	75.485189
3654.000000	75.470630
3653.000000	75.466275
3652.000000	75.442837
3651.000000	75.382927
3650.000000	75.290556
3649.000000	75.184788
3648.000000	75.087789
3647.000000	75.013148
3646.000000	74.958793
3645.000000	74.910101
3644.000000	74.851571
3643.000000	74.777258
3642.000000	74.691275
3641.000000	74.600304
3640.000000	74.507953
3639.000000	74.415647
3638.000000	74.323998
3637.000000	74.231658
3636.000000	74.135592
3635.000000	74.036173
3634.000000	73.939909
3633.000000	73.851654
3632.000000	73.762726
3631.000000	73.650204
3630.000000	73.498418
3629.000000	73.327707
3628.000000	73.185368
3627.000000	73.096490
3626.000000	73.042492
3625.000000	72.989078
3624.000000	72.916778
3623.000000	72.823510
3622.000000	72.710324
3621.000000	72.575397
3620.000000	72.424023
3619.000000	72.276572
3618.000000	72.154942
3617.000000	72.062283
3616.000000	71.982042
3615.000000	71.893961
3614.000000	71.789357
3613.000000	71.674400
3612.000000	71.559271
3611.000000	71.444216
3610.000000	71.319904
3609.000000	71.183307
3608.000000	71.047760
3607.000000	70.930940
3606.000000	70.835934
3605.000000	70.750812
3604.000000	70.662810
3603.000000	70.566990
3602.000000	70.464421
3601.000000	70.358233
3600.000000	70.252120
3599.000000	70.147283
3598.000000	70.039811
3597.000000	69.924343
3596.000000	69.801671
3595.000000	69.680074
3594.000000	69.568062
3593.000000	69.467499
3592.000000	69.372637
3591.000000	69.272331
3590.000000	69.155081
3589.000000	69.020023
3588.000000	68.885305
3587.000000	68.776277
3586.000000	68.699516
3585.000000	68.637495
3584.000000	68.568476
3583.000000	68.482441
3582.000000	68.381226
3581.000000	68.272137
3580.000000	68.162822
3579.000000	68.056890
3578.000000	67.952241
3577.000000	67.844446
3576.000000	67.732153
3575.000000	67.617936
3574.000000	67.504964
3573.000000	67.395330
3572.000000	67.289770
3571.000000	67.185257
3570.000000	67.073735
3569.000000	66.949423
3568.000000	66.820020
3567.000000	66.705250
3566.000000	66.616857
3565.000000	66.545548
3564.000000	66.471576
3563.000000	66.381308
3562.000000	66.272350
3561.000000	66.151184
3560.000000	66.028035
3559.000000	65.910161
3558.000000	65.798189
3557.000000	65.689282
3556.000000	65.582179
3555.000000	65.477144
3554.000000	65.373016
3553.000000	65.268057
3552.000000	65.162899
3551.000000	65.058424
3550.000000	64.951092
3549.000000	64.835237
3548.000000	64.710897
3547.000000	64.586378
3546.000000	64.470907
3545.000000	64.366329
3544.000000	64.267230
3543.000000	64.166522
3542.000000	64.059430
3541.000000	63.945120
3540.000000	63.826887
3539.000000	63.709773
3538.000000	63.597288
3537.000000	63.490864
3536.000000	63.391108
3535.000000	63.297046
3534.000000	63.204871
3533.000000	63.110293
3532.000000	63.011711
3531.000000	62.909290
3530.000000	62.802214
3529.000000	62.690084
3528.000000	62.576519
3527.000000	62.467705
3526.000000	62.367069
3525.000000	62.273946
3524.000000	62.186842
3523.000000	62.104554
3522.000000	62.024263
3521.000000	61.942062
3520.000000	61.856025
3519.000000	61.766480
3518.000000	61.673630
3517.000000	61.577237
3516.000000	61.478073
3515.000000	61.377091
3514.000000	61.273305
3513.000000	61.164979
3512.000000	61.052973
3511.000000	60.941146
3510.000000	60.833639
3509.000000	60.733063
3508.000000	60.639804
3507.000000	60.550488
3506.000000	60.458174
3505.000000	60.357239
3504.000000	60.248723
3503.000000	60.138732
3502.000000	60.031644
3501.000000	59.927000
3500.000000	59.822180
3499.000000	59.714711
3498.000000	59.602385
3497.000000	59.484468
3496.000000	59.363056
3495.000000	59.241032
3494.000000	59.119014
3493.000000	58.996428
3492.000000	58.874405
3491.000000	58.754859
3490.000000	58.637556
3489.000000	58.520984
3488.000000	58.405346
3487.000000	58.291680
3486.000000	58.178363
3485.000000	58.061357
3484.000000	57.937969
3483.000000	57.808526
3482.000000	57.675063
3481.000000	57.540440
3480.000000	57.407612
3479.000000	57.277212
3478.000000	57.146548
3477.000000	57.013221
3476.000000	56.878819
3475.000000	56.746778
3474.000000	56.617827
3473.000000	56.490165
3472.000000	56.362851
3471.000000	56.235718
3470.000000	56.106658
3469.000000	55.972258
3468.000000	55.831212
3467.000000	55.684905
3466.000000	55.535203
3465.000000	55.383970
3464.000000	55.234043
3463.000000	55.088023
3462.000000	54.946038
3461.000000	54.806288
3460.000000	54.666993
3459.000000	54.526344
3458.000000	54.382117
3457.000000	54.233673
3456.000000	54.083247
3455.000000	53.933099
3454.000000	53.782791
3453.000000	53.631210
3452.000000	53.479336
3451.000000	53.328142
3450.000000	53.175171
3449.000000	53.016561
3448.000000	52.852091
3447.000000	52.685536
3446.000000	52.520271
3445.000000	52.356803
3444.000000	52.194083
3443.000000	52.030865
3442.000000	51.866254
3441.000000	51.700915
3440.000000	51.536932
3439.000000	51.374774
3438.000000	51.211353
3437.000000	51.042584
3436.000000	50.866681
3435.000000	50.683579
3434.000000	50.493323
3433.000000	50.297404
3432.000000	50.099698
3431.000000	49.903525
3430.000000	49.708601
3429.000000	49.512606
3428.000000	49.314405
3427.000000	49.113572
3426.000000	48.908705
3425.000000	48.698538
3424.000000	48.483366
3423.000000	48.263613
3422.000000	48.038419
3421.000000	47.807790
3420.000000	47.574278
3419.000000	47.340153
3418.000000	47.104736
3417.000000	46.866369
3416.000000	46.625207
3415.000000	46.381860
3414.000000	46.134901
3413.000000	45.882272
3412.000000	45.623454
3411.000000	45.358501
3410.000000	45.086576
3409.000000	44.807320
3408.000000	44.522327
3407.000000	44.233070
3406.000000	43.939108
3405.000000	43.640020
3404.000000	43.337037
3403.000000	43.031060
3402.000000	42.720514
3401.000000	42.402844
3400.000000	42.076672
3399.000000	41.741304
3398.000000	41.396819
3397.000000	41.045923
3396.000000	40.692835
3395.000000	40.338688
3394.000000	39.980070
3393.000000	39.613763
3392.000000	39.240098
3391.000000	38.859777
3390.000000	38.471140
3389.000000	38.072680
3388.000000	37.665850
3387.000000	37.252922
3386.000000	36.834266
3385.000000	36.410240
3384.000000	35.982713
3383.000000	35.552719
3382.000000	35.118720
3381.000000	34.678957
3380.000000	34.233658
3379.000000	33.783095
3378.000000	33.326187
3377.000000	32.862708
3376.000000	32.394152
3375.000000	31.921161
3374.000000	31.442542
3373.000000	30.958380
3372.000000	30.471431
3371.000000	29.983465
3370.000000	29.493373
3369.000000	29.000166
3368.000000	28.504944
3367.000000	28.008568
3366.000000	27.510175
3365.000000	27.009676
3364.000000	26.508692
3363.000000	26.007782
3362.000000	25.505792
3361.000000	25.002958
3360.000000	24.501527
3359.000000	24.002121
3358.000000	23.502799
3357.000000	23.002970
3356.000000	22.504739
3355.000000	22.009320
3354.000000	21.515839
3353.000000	21.024925
3352.000000	20.539865
3351.000000	20.062841
3350.000000	19.592998
3349.000000	19.129261
3348.000000	18.671874
3347.000000	18.219958
3346.000000	17.771538
3345.000000	17.326900
3344.000000	16.888674
3343.000000	16.457961
3342.000000	16.033407
3341.000000	15.615043
3340.000000	15.205253
3339.000000	14.805245
3338.000000	14.414367
3337.000000	14.032981
3336.000000	13.662670
3335.000000	13.302884
3334.000000	12.951014
3333.000000	12.606687
3332.000000	12.271740
3331.000000	11.946161
3330.000000	11.627727
3329.000000	11.315870
3328.000000	11.012728
3327.000000	10.719501
3326.000000	10.435867
3325.000000	10.162894
3324.000000	9.902137
3323.000000	9.652341
3322.000000	9.410308
3321.000000	9.175446
3320.000000	8.949804
3319.000000	8.733326
3318.000000	8.523967
3317.000000	8.321759
3316.000000	8.128707
3315.000000	7.944718
3314.000000	7.767119
3313.000000	7.594804
3312.000000	7.428675
3311.000000	7.268234
3310.000000	7.112177
3309.000000	6.961774
3308.000000	6.820243
3307.000000	6.688639
3306.000000	6.566043
3305.000000	6.453406
3304.000000	6.352101
3303.000000	6.259652
3302.000000	6.171098
3301.000000	6.084361
3300.000000	6.000694
3299.000000	5.920105
3298.000000	5.841176
3297.000000	5.765038
3296.000000	5.694688
3295.000000	5.630561
3294.000000	5.570684
3293.000000	5.515278
3292.000000	5.466917
3291.000000	5.425655
3290.000000	5.388512
3289.000000	5.353535
3288.000000	5.320858
3287.000000	5.290046
3286.000000	5.260060
3285.000000	5.232091
3284.000000	5.208348
3283.000000	5.188348
3282.000000	5.169784
3281.000000	5.152387
3280.000000	5.137534
3279.000000	5.124543
3278.000000	5.111405
3277.000000	5.098630
3276.000000	5.088403
3275.000000	5.080448
3274.000000	5.072505
3273.000000	5.064703
3272.000000	5.059783
3271.000000	5.059168
3270.000000	5.062254
3269.000000	5.068799
3268.000000	5.078463
3267.000000	5.088786
3266.000000	5.097101
3265.000000	5.104008
3264.000000	5.111789
3263.000000	5.120304
3262.000000	5.127955
3261.000000	5.135316
3260.000000	5.144029
3259.000000	5.153222
3258.000000	5.160955
3257.000000	5.168382
3256.000000	5.178479
3255.000000	5.191482
3254.000000	5.205221
3253.000000	5.219076
3252.000000	5.233693
3251.000000	5.247731
3250.000000	5.259022
3249.000000	5.268540
3248.000000	5.279521
3247.000000	5.293077
3246.000000	5.307966
3245.000000	5.323811
3244.000000	5.340960
3243.000000	5.357921
3242.000000	5.372650
3241.000000	5.385822
3240.000000	5.399633
3239.000000	5.414028
3238.000000	5.427278
3237.000000	5.439310
3236.000000	5.451330
3235.000000	5.463289
3234.000000	5.474885
3233.000000	5.487875
3232.000000	5.503906
3231.000000	5.521172
3230.000000	5.536548
3229.000000	5.549847
3228.000000	5.562733
3227.000000	5.574968
3226.000000	5.585285
3225.000000	5.594642
3224.000000	5.604877
3223.000000	5.615271
3222.000000	5.623919
3221.000000	5.631324
3220.000000	5.639221
3219.000000	5.647041
3218.000000	5.653107
3217.000000	5.658003
3216.000000	5.663216
3215.000000	5.667759
3214.000000	5.669710
3213.000000	5.669927
3212.000000	5.670552
3211.000000	5.671052
3210.000000	5.669408
3209.000000	5.665995
3208.000000	5.662740
3207.000000	5.659458
3206.000000	5.654517
3205.000000	5.648195
3204.000000	5.641840
3203.000000	5.634814
3202.000000	5.625571
3201.000000	5.614706
3200.000000	5.603765
3199.000000	5.592126
3198.000000	5.578311
3197.000000	5.563116
3196.000000	5.548195
3195.000000	5.532938
3194.000000	5.515938
3193.000000	5.498174
3192.000000	5.481479
3191.000000	5.465162
3190.000000	5.447471
3189.000000	5.428881
3188.000000	5.410712
3187.000000	5.392017
3186.000000	5.371236
3185.000000	5.349576
3184.000000	5.329282
3183.000000	5.309937
3182.000000	5.289794
3181.000000	5.269327
3180.000000	5.250127
3179.000000	5.231681
3178.000000	5.212588
3177.000000	5.193626
3176.000000	5.176307
3175.000000	5.159753
3174.000000	5.142246
3173.000000	5.124499
3172.000000	5.108245
3171.000000	5.093053
3170.000000	5.077609
3169.000000	5.062605
3168.000000	5.049252
3167.000000	5.036522
3166.000000	5.023055
3165.000000	5.010140
3164.000000	4.999658
3163.000000	4.990751
3162.000000	4.981639
3161.000000	4.973099
3160.000000	4.966898
3159.000000	4.962415
3158.000000	4.957969
3157.000000	4.953714
3156.000000	4.950257
3155.000000	4.946328
3154.000000	4.941205
3153.000000	4.937670
3152.000000	4.939003
3151.000000	4.944633
3150.000000	4.951819
3149.000000	4.959872
3148.000000	4.969542
3147.000000	4.979964
3146.000000	4.989788
3145.000000	4.999796
3144.000000	5.011191
3143.000000	5.022884
3142.000000	5.033530
3141.000000	5.044719
3140.000000	5.059060
3139.000000	5.076552
3138.000000	5.095805
3137.000000	5.116960
3136.000000	5.140438
3135.000000	5.164591
3134.000000	5.187665
3133.000000	5.210709
3132.000000	5.235657
3131.000000	5.262298
3130.000000	5.289826
3129.000000	5.319283
3128.000000	5.351634
3127.000000	5.385261
3126.000000	5.418227
3125.000000	5.451016
3124.000000	5.484297
3123.000000	5.516432
3122.000000	5.546346
3121.000000	5.576683
3120.000000	5.610831
3119.000000	5.648674
3118.000000	5.688450
3117.000000	5.730625
3116.000000	5.776573
3115.000000	5.825324
3114.000000	5.874769
3113.000000	5.924456
3112.000000	5.974278
3111.000000	6.022589
3110.000000	6.068821
3109.000000	6.115954
3108.000000	6.167120
3107.000000	6.221404
3106.000000	6.275923
3105.000000	6.330111
3104.000000	6.384797
3103.000000	6.439239
3102.000000	6.492599
3101.000000	6.546745
3100.000000	6.604313
3099.000000	6.665113
3098.000000	6.727281
3097.000000	6.790398
3096.000000	6.854575
3095.000000	6.918226
3094.000000	6.979745
3093.000000	7.040169
3092.000000	7.101671
3091.000000	7.164799
3090.000000	7.229360
3089.000000	7.296009
3088.000000	7.364545
3087.000000	7.432675
3086.000000	7.499101
3085.000000	7.565990
3084.000000	7.635777
3083.000000	7.707545
3082.000000	7.779232
3081.000000	7.851329
3080.000000	7.925687
3079.000000	8.002489
3078.000000	8.081082
3077.000000	8.161913
3076.000000	8.244828
3075.000000	8.327369
3074.000000	8.407470
3073.000000	8.486085
3072.000000	8.564787
3071.000000	8.642780
3070.000000	8.719097
3069.000000	8.795761
3068.000000	8.875769
3067.000000	8.959470
3066.000000	9.045406
3065.000000	9.133059
3064.000000	9.222133
3063.000000	9.310869
3062.000000	9.397753
3061.000000	9.483472
3060.000000	9.569047
3059.000000	9.653786
3058.000000	9.737243
3057.000000	9.821241
3056.000000	9.907468
3055.000000	9.994829
3054.000000	10.081586
3053.000000	10.168396
3052.000000	10.256971
3051.000000	10.347405
3050.000000	10.438882
3049.000000	10.531167
3048.000000	10.623295
3047.000000	10.712820
3046.000000	10.798723
3045.000000	10.883324
3044.000000	10.969416
3043.000000	11.057439
3042.000000	11.147204
3041.000000	11.239774
3040.000000	11.335107
3039.000000	11.430197
3038.000000	11.522311
3037.000000	11.612300
3036.000000	11.702554
3035.000000	11.793698
3034.000000	11.885592
3033.000000	11.979277
3032.000000	12.075174
3031.000000	12.171171
3030.000000	12.265045
3029.000000	12.357071
3028.000000	12.448183
3027.000000	12.537734
3026.000000	12.625526
3025.000000	12.713869
3024.000000	12.804829
3023.000000	12.897204
3022.000000	12.988727
3021.000000	13.079510
3020.000000	13.170844
3019.000000	13.262324
3018.000000	13.352781
3017.000000	13.442507
3016.000000	13.532238
3015.000000	13.621472
3014.000000	13.710120
3013.000000	13.800282
3012.000000	13.894023
3011.000000	13.990707
3010.000000	14.088339
3009.000000	14.186004
3008.000000	14.283196
3007.000000	14.378717
3006.000000	14.472335
3005.000000	14.565856
3004.000000	14.660563
3003.000000	14.755142
3002.000000	14.847848
3001.000000	14.938905
3000.000000	15.029173
2999.000000	15.118544
2998.000000	15.207472
2997.000000	15.297795
2996.000000	15.389965
2995.000000	15.481707
2994.000000	15.571718
2993.000000	15.662506
2992.000000	15.757095
2991.000000	15.854862
2990.000000	15.953067
2989.000000	16.050616
2988.000000	16.147748
2987.000000	16.243743
2986.000000	16.337576
2985.000000	16.429579
2984.000000	16.520292
2983.000000	16.609161
2982.000000	16.696492
2981.000000	16.785026
2980.000000	16.877186
2979.000000	16.971990
2978.000000	17.066835
2977.000000	17.160980
2976.000000	17.255334
2975.000000	17.350306
2974.000000	17.445968
2973.000000	17.542893
2972.000000	17.640844
2971.000000	17.737943
2970.000000	17.832964
2969.000000	17.926985
2968.000000	18.021031
2967.000000	18.113944
2966.000000	18.204563
2965.000000	18.294247
2964.000000	18.385062
2963.000000	18.477129
2962.000000	18.569867
2961.000000	18.663945
2960.000000	18.759745
2959.000000	18.855650
2958.000000	18.949998
2957.000000	19.042966
2956.000000	19.134554
2955.000000	19.223059
2954.000000	19.308037
2953.000000	19.392493
2952.000000	19.479240
2951.000000	19.566808
2950.000000	19.651864
2949.000000	19.734076
2948.000000	19.815905
2947.000000	19.899065
2946.000000	19.983957
2945.000000	20.071450
2944.000000	20.162249
2943.000000	20.255064
2942.000000	20.347580
2941.000000	20.438716
2940.000000	20.528230
2939.000000	20.615313
2938.000000	20.699593
2937.000000	20.782472
2936.000000	20.865506
2935.000000	20.948377
2934.000000	21.030227
2933.000000	21.111754
2932.000000	21.194196
2931.000000	21.277558
2930.000000	21.361686
2929.000000	21.447625
2928.000000	21.535860
2927.000000	21.624645
2926.000000	21.712111
2925.000000	21.798572
2924.000000	21.884820
2923.000000	21.969780
2922.000000	22.052080
2921.000000	22.132416
2920.000000	22.212141
2919.000000	22.290985
2918.000000	22.368302
2917.000000	22.445223
2916.000000	22.523330
2915.000000	22.602279
2914.000000	22.680639
2913.000000	22.758018
2912.000000	22.834712
2911.000000	22.910340
2910.000000	22.984489
2909.000000	23.057664
2908.000000	23.130153
2907.000000	23.201070
2906.000000	23.269871
2905.000000	23.337570
2904.000000	23.405127
2903.000000	23.472081
2902.000000	23.538232
2901.000000	23.605153
2900.000000	23.674477
2899.000000	23.745864
2898.000000	23.818153
2897.000000	23.890930
2896.000000	23.963388
2895.000000	24.033305
2894.000000	24.099143
2893.000000	24.162038
2892.000000	24.223925
2891.000000	24.284856
2890.000000	24.343777
2889.000000	24.400692
2888.000000	24.456278
2887.000000	24.510431
2886.000000	24.562938
2885.000000	24.614615
2884.000000	24.666125
2883.000000	24.716632
2882.000000	24.765098
2881.000000	24.811937
2880.000000	24.857892
2879.000000	24.902431
2878.000000	24.944918
2877.000000	24.986320
2876.000000	25.027990
2875.000000	25.069537
2874.000000	25.109579
2873.000000	25.147935
2872.000000	25.185824
2871.000000	25.224900
2870.000000	25.267442
2869.000000	25.316500
2868.000000	25.374094
2867.000000	25.439873
2866.000000	25.512641
2865.000000	25.591997
2864.000000	25.677299
2863.000000	25.766421
2862.000000	25.857210
2861.000000	25.949090
2860.000000	26.041857
2859.000000	26.134103
2858.000000	26.224587
2857.000000	26.314148
2856.000000	26.404571
2855.000000	26.496481
2854.000000	26.589704
2853.000000	26.684559
2852.000000	26.781139
2851.000000	26.878159
2850.000000	26.974009
2849.000000	27.068134
2848.000000	27.160192
2847.000000	27.248951
2846.000000	27.333459
2845.000000	27.414445
2844.000000	27.493262
2843.000000	27.570296
2842.000000	27.645663
2841.000000	27.720434
2840.000000	27.795629
2839.000000	27.870812
2838.000000	27.945039
2837.000000	28.018577
2836.000000	28.092425
2835.000000	28.166794
2834.000000	28.241225
2833.000000	28.315581
2832.000000	28.389794
2831.000000	28.463233
2830.000000	28.535362
2829.000000	28.606376
2828.000000	28.676265
2827.000000	28.744104
2826.000000	28.809301
2825.000000	28.872767
2824.000000	28.935862
2823.000000	28.998985
2822.000000	29.062233
2821.000000	29.126518
2820.000000	29.192755
2819.000000	29.260643
2818.000000	29.329332
2817.000000	29.398598
2816.000000	29.468274
2815.000000	29.537285
2814.000000	29.604399
2813.000000	29.669347
2812.000000	29.732334
2811.000000	29.793267
2810.000000	29.852494
2809.000000	29.911534
2808.000000	29.971939
2807.000000	30.034051
2806.000000	30.097737
2805.000000	30.163384
2804.000000	30.231016
2803.000000	30.299255
2802.000000	30.366458
2801.000000	30.432302
2800.000000	30.497260
2799.000000	30.561229
2798.000000	30.623747
2797.000000	30.684912
2796.000000	30.744982
2795.000000	30.803700
2794.000000	30.861053
2793.000000	30.918042
2792.000000	30.975695
2791.000000	31.033971
2790.000000	31.092563
2789.000000	31.151888
2788.000000	31.212176
2787.000000	31.272391
2786.000000	31.331291
2785.000000	31.388929
2784.000000	31.446016
2783.000000	31.502513
2782.000000	31.557994
2781.000000	31.612703
2780.000000	31.666941
2779.000000	31.720066
2778.000000	31.771395
2777.000000	31.821602
2776.000000	31.872051
2775.000000	31.923179
2774.000000	31.974644
2773.000000	32.026521
2772.000000	32.079085
2771.000000	32.131850
2770.000000	32.183984
2769.000000	32.235342
2768.000000	32.286049
2767.000000	32.335534
2766.000000	32.383091
2765.000000	32.429015
2764.000000	32.474181
2763.000000	32.518962
2762.000000	32.563581
2761.000000	32.609006
2760.000000	32.656252
2759.000000	32.705082
2758.000000	32.754441
2757.000000	32.803795
2756.000000	32.853044
2755.000000	32.901494
2754.000000	32.948070
2753.000000	32.992371
2752.000000	33.034617
2751.000000	33.074972
2750.000000	33.113819
2749.000000	33.152295
2748.000000	33.191539
2747.000000	33.231663
2746.000000	33.272270
2745.000000	33.313501
2744.000000	33.355621
2743.000000	33.398076
2742.000000	33.439965
2741.000000	33.481056
2740.000000	33.521473
2739.000000	33.560916
2738.000000	33.599170
2737.000000	33.636801
2736.000000	33.674314
2735.000000	33.711150
2734.000000	33.746638
2733.000000	33.781388
2732.000000	33.816531
2731.000000	33.852085
2730.000000	33.887397
2729.000000	33.922787
2728.000000	33.959354
2727.000000	33.997292
2726.000000	34.035694
2725.000000	34.073918
2724.000000	34.111945
2723.000000	34.149433
2722.000000	34.185557
2721.000000	34.219924
2720.000000	34.252750
2719.000000	34.284183
2718.000000	34.314362
2717.000000	34.344068
2716.000000	34.374397
2715.000000	34.405849
2714.000000	34.438425
2713.000000	34.472351
2712.000000	34.507801
2711.000000	34.544106
2710.000000	34.580053
2709.000000	34.614741
2708.000000	34.647415
2707.000000	34.676920
2706.000000	34.702326
2705.000000	34.723971
2704.000000	34.742978
2703.000000	34.760037
2702.000000	34.775578
2701.000000	34.790546
2700.000000	34.805910
2699.000000	34.821573
2698.000000	34.836794
2697.000000	34.851532
2696.000000	34.866269
2695.000000	34.880772
2694.000000	34.894140
2693.000000	34.905936
2692.000000	34.916321
2691.000000	34.925115
2690.000000	34.931795
2689.000000	34.936328
2688.000000	34.939090
2687.000000	34.940196
2686.000000	34.939790
2685.000000	34.938793
2684.000000	34.938380
2683.000000	34.938793
2682.000000	34.939658
2681.000000	34.941229
2680.000000	34.944253
2679.000000	34.948773
2678.000000	34.954085
2677.000000	34.959814
2676.000000	34.966064
2675.000000	34.972611
2674.000000	34.978881
2673.000000	34.984848
2672.000000	34.991178
2671.000000	34.998766
2670.000000	35.008841
2669.000000	35.023174
2668.000000	35.043403
2667.000000	35.070119
2666.000000	35.103512
2665.000000	35.144370
2664.000000	35.193153
2663.000000	35.248633
2662.000000	35.308246
2661.000000	35.369893
2660.000000	35.432646
2659.000000	35.495814
2658.000000	35.558684
2657.000000	35.621072
2656.000000	35.683270
2655.000000	35.745458
2654.000000	35.807753
2653.000000	35.870662
2652.000000	35.934599
2651.000000	35.999018
2650.000000	36.062888
2649.000000	36.125876
2648.000000	36.188226
2647.000000	36.249633
2646.000000	36.309156
2645.000000	36.366187
2644.000000	36.420744
2643.000000	36.472768
2642.000000	36.522047
2641.000000	36.568779
2640.000000	36.613209
2639.000000	36.654901
2638.000000	36.693123
2637.000000	36.728094
2636.000000	36.761100
2635.000000	36.793237
2634.000000	36.824977
2633.000000	36.856780
2632.000000	36.889134
2631.000000	36.921890
2630.000000	36.954266
2629.000000	36.985661
2628.000000	37.015707
2627.000000	37.043590
2626.000000	37.068302
2625.000000	37.089564
2624.000000	37.107873
2623.000000	37.123716
2622.000000	37.137590
2621.000000	37.150769
2620.000000	37.164857
2619.000000	37.180503
2618.000000	37.197385
2617.000000	37.215376
2616.000000	37.234682
2615.000000	37.254674
2614.000000	37.273690
2613.000000	37.290320
2612.000000	37.304093
2611.000000	37.314847
2610.000000	37.322288
2609.000000	37.326497
2608.000000	37.328023
2607.000000	37.327102
2606.000000	37.323627
2605.000000	37.317779
2604.000000	37.309903
2603.000000	37.299725
2602.000000	37.286429
2601.000000	37.269976
2600.000000	37.251436
2599.000000	37.231983
2598.000000	37.212444
2597.000000	37.193848
2596.000000	37.177534
2595.000000	37.164539
2594.000000	37.155628
2593.000000	37.151925
2592.000000	37.154905
2591.000000	37.165427
2590.000000	37.183725
2589.000000	37.210423
2588.000000	37.246327
2587.000000	37.291762
2586.000000	37.346444
2585.000000	37.410270
2584.000000	37.483446
2583.000000	37.565097
2582.000000	37.653180
2581.000000	37.745495
2580.000000	37.840265
2579.000000	37.935862
2578.000000	38.030639
2577.000000	38.123889
2576.000000	38.216157
2575.000000	38.308282
2574.000000	38.400658
2573.000000	38.493480
2572.000000	38.587126
2571.000000	38.681897
2570.000000	38.777818
2569.000000	38.874848
2568.000000	38.972659
2567.000000	39.070067
2566.000000	39.165383
2565.000000	39.257689
2564.000000	39.347204
2563.000000	39.434345
2562.000000	39.519128
2561.000000	39.601810
2560.000000	39.683316
2559.000000	39.764304
2558.000000	39.844534
2557.000000	39.923479
2556.000000	40.000994
2555.000000	40.077029
2554.000000	40.151173
2553.000000	40.223195
2552.000000	40.293475
2551.000000	40.362425
2550.000000	40.430051
2549.000000	40.496321
2548.000000	40.561461
2547.000000	40.625340
2546.000000	40.687052
2545.000000	40.745710
2544.000000	40.800897
2543.000000	40.852176
2542.000000	40.898833
2541.000000	40.940596
2540.000000	40.978235
2539.000000	41.012538
2538.000000	41.043429
2537.000000	41.070427
2536.000000	41.092992
2535.000000	41.110243
2534.000000	41.120521
2533.000000	41.122158
2532.000000	41.114267
2531.000000	41.096049
2530.000000	41.066903
2529.000000	41.027389
2528.000000	40.979917
2527.000000	40.928041
2526.000000	40.875262
2525.000000	40.825122
2524.000000	40.781082
2523.000000	40.745666
2522.000000	40.720089
2521.000000	40.705250
2520.000000	40.701882
2519.000000	40.709763
2518.000000	40.727817
2517.000000	40.755190
2516.000000	40.792288
2515.000000	40.839420
2514.000000	40.895796
2513.000000	40.960372
2512.000000	41.032280
2511.000000	41.110500
2510.000000	41.193169
2509.000000	41.278245
2508.000000	41.364345
2507.000000	41.450115
2506.000000	41.533948
2505.000000	41.614832
2504.000000	41.692939
2503.000000	41.768563
2502.000000	41.841201
2501.000000	41.910280
2500.000000	41.976177
2499.000000	42.039621
2498.000000	42.100476
2497.000000	42.158209
2496.000000	42.212770
2495.000000	42.264444
2494.000000	42.313451
2493.000000	42.360384
2492.000000	42.406694
2491.000000	42.453656
2490.000000	42.501326
2489.000000	42.549016
2488.000000	42.595951
2487.000000	42.640920
2486.000000	42.682034
2485.000000	42.717927
2484.000000	42.748867
2483.000000	42.775837
2482.000000	42.799541
2481.000000	42.821001
2480.000000	42.842329
2479.000000	42.865810
2478.000000	42.892555
2477.000000	42.922826
2476.000000	42.956699
2475.000000	42.993437
2474.000000	43.030854
2473.000000	43.066423
2472.000000	43.098539
2471.000000	43.126150
2470.000000	43.148182
2469.000000	43.164691
2468.000000	43.177791
2467.000000	43.190318
2466.000000	43.203997
2465.000000	43.219635
2464.000000	43.238244
2463.000000	43.260575
2462.000000	43.286183
2461.000000	43.314022
2460.000000	43.343498
2459.000000	43.373909
2458.000000	43.403702
2457.000000	43.431453
2456.000000	43.457091
2455.000000	43.481112
2454.000000	43.503250
2453.000000	43.522999
2452.000000	43.540762
2451.000000	43.557319
2450.000000	43.572732
2449.000000	43.587103
2448.000000	43.601760
2447.000000	43.618575
2446.000000	43.638560
2445.000000	43.662238
2444.000000	43.690500
2443.000000	43.723725
2442.000000	43.760444
2441.000000	43.798004
2440.000000	43.834254
2439.000000	43.867507
2438.000000	43.895708
2437.000000	43.917116
2436.000000	43.931825
2435.000000	43.941472
2434.000000	43.948151
2433.000000	43.954523
2432.000000	43.964214
2431.000000	43.980508
2430.000000	44.004685
2429.000000	44.036352
2428.000000	44.074646
2427.000000	44.118014
2426.000000	44.163277
2425.000000	44.206579
2424.000000	44.245034
2423.000000	44.276963
2422.000000	44.301405
2421.000000	44.318882
2420.000000	44.332099
2419.000000	44.344513
2418.000000	44.358442
2417.000000	44.375276
2416.000000	44.396600
2415.000000	44.423498
2414.000000	44.455331
2413.000000	44.490427
2412.000000	44.527700
2411.000000	44.566337
2410.000000	44.604787
2409.000000	44.641446
2408.000000	44.675973
2407.000000	44.708637
2406.000000	44.738855
2405.000000	44.765651
2404.000000	44.789004
2403.000000	44.809594
2402.000000	44.827729
2401.000000	44.844182
2400.000000	44.861454
2399.000000	44.882842
2398.000000	44.910349
2397.000000	44.944592
2396.000000	44.985837
2395.000000	45.033544
2394.000000	45.085351
2393.000000	45.137766
2392.000000	45.187872
2391.000000	45.233323
2390.000000	45.271687
2389.000000	45.301418
2388.000000	45.323417
2387.000000	45.340363
2386.000000	45.355170
2385.000000	45.371101
2384.000000	45.392195
2383.000000	45.421660
2382.000000	45.459913
2381.000000	45.505363
2380.000000	45.556482
2379.000000	45.611868
2378.000000	45.669154
2377.000000	45.726032
2376.000000	45.781985
2375.000000	45.837827
2374.000000	45.893572
2373.000000	45.948475
2372.000000	46.002958
2371.000000	46.057981
2370.000000	46.113830
2369.000000	46.170642
2368.000000	46.229543
2367.000000	46.291550
2366.000000	46.356658
2365.000000	46.424222
2364.000000	46.493413
2363.000000	46.563791
2362.000000	46.635830
2361.000000	46.707497
2360.000000	46.777773
2359.000000	46.848549
2358.000000	46.918605
2357.000000	46.988020
2356.000000	47.056662
2355.000000	47.123758
2354.000000	47.190175
2353.000000	47.251916
2352.000000	47.307124
2351.000000	47.357753
2350.000000	47.416053
2349.000000	47.491146
2348.000000	47.574194
2347.000000	47.653383
2346.000000	47.720417
2345.000000	47.781498
2344.000000	47.850456
2343.000000	47.931500
2342.000000	48.016014
2341.000000	48.083271
2340.000000	48.133174
2339.000000	48.175973
2338.000000	48.221617
2337.000000	48.275810
2336.000000	48.341214
2335.000000	48.420445
2334.000000	48.509783
2333.000000	48.603840
2332.000000	48.696043
2331.000000	48.784300
2330.000000	48.865418
2329.000000	48.941755
2328.000000	49.009222
2327.000000	49.073964
2326.000000	49.132581
2325.000000	49.188693
2324.000000	49.243948
2323.000000	49.303479
2322.000000	49.371783
2321.000000	49.446843
2320.000000	49.528462
2319.000000	49.613087
2318.000000	49.697215
2317.000000	49.777464
2316.000000	49.851672
2315.000000	49.921825
2314.000000	49.985583
2313.000000	50.045348
2312.000000	50.101902
2311.000000	50.161532
2310.000000	50.222204
2309.000000	50.284039
2308.000000	50.344455
2307.000000	50.406991
2306.000000	50.470543
2305.000000	50.535876
2304.000000	50.602440
2303.000000	50.673149
2302.000000	50.747219
2301.000000	50.823933
2300.000000	50.901238
2299.000000	50.979340
2298.000000	51.054370
2297.000000	51.123593
2296.000000	51.184790
2295.000000	51.240050
2294.000000	51.289445
2293.000000	51.334969
2292.000000	51.380097
2291.000000	51.430388
2290.000000	51.487982
2289.000000	51.552835
2288.000000	51.625058
2287.000000	51.704356
2286.000000	51.786998
2285.000000	51.866575
2284.000000	51.938815
2283.000000	52.001832
2282.000000	52.054180
2281.000000	52.095058
2280.000000	52.127910
2279.000000	52.158823
2278.000000	52.192444
2277.000000	52.231031
2276.000000	52.277303
2275.000000	52.333565
2274.000000	52.398219
2273.000000	52.466734
2272.000000	52.535478
2271.000000	52.602608
2270.000000	52.665060
2269.000000	52.719373
2268.000000	52.765007
2267.000000	52.804015
2266.000000	52.837615
2265.000000	52.866234
2264.000000	52.892377
2263.000000	52.919867
2262.000000	52.949902
2261.000000	52.981542
2260.000000	53.015125
2259.000000	53.052138
2258.000000	53.092368
2257.000000	53.134122
2256.000000	53.177511
2255.000000	53.223130
2254.000000	53.268532
2253.000000	53.309111
2252.000000	53.342188
2251.000000	53.367218
2250.000000	53.382367
2249.000000	53.385786
2248.000000	53.379186
2247.000000	53.367553
2246.000000	53.354418
2245.000000	53.342114
2244.000000	53.334906
2243.000000	53.337724
2242.000000	53.351521
2241.000000	53.373078
2240.000000	53.398781
2239.000000	53.424857
2238.000000	53.444878
2237.000000	53.451537
2236.000000	53.441725
2235.000000	53.416798
2234.000000	53.378758
2233.000000	53.330113
2232.000000	53.276663
2231.000000	53.226179
2230.000000	53.183700
2229.000000	53.151262
2228.000000	53.130756
2227.000000	53.123065
2226.000000	53.124603
2225.000000	53.128778
2224.000000	53.130952
2223.000000	53.128909
2222.000000	53.119616
2221.000000	53.099873
2220.000000	53.070134
2219.000000	53.033720
2218.000000	52.992729
2217.000000	52.948192
2216.000000	52.903667
2215.000000	52.864218
2214.000000	52.832184
2213.000000	52.807435
2212.000000	52.791279
2211.000000	52.786098
2210.000000	52.791301
2209.000000	52.803602
2208.000000	52.820707
2207.000000	52.841189
2206.000000	52.860977
2205.000000	52.874458
2204.000000	52.879002
2203.000000	52.875102
2202.000000	52.862797
2201.000000	52.842355
2200.000000	52.818103
2199.000000	52.797226
2198.000000	52.784693
2197.000000	52.782722
2196.000000	52.794423
2195.000000	52.822893
2194.000000	52.866590
2193.000000	52.919246
2192.000000	52.974655
2191.000000	53.027753
2190.000000	53.072050
2189.000000	53.101023
2188.000000	53.113096
2187.000000	53.111787
2186.000000	53.100932
2185.000000	53.083821
2184.000000	53.066156
2183.000000	53.055135
2182.000000	53.054549
2181.000000	53.064395
2180.000000	53.084553
2179.000000	53.114836
2178.000000	53.151519
2177.000000	53.188272
2176.000000	53.220975
2175.000000	53.248113
2174.000000	53.266993
2173.000000	53.274137
2172.000000	53.269818
2171.000000	53.257903
2170.000000	53.241288
2169.000000	53.221315
2168.000000	53.201505
2167.000000	53.187061
2166.000000	53.180477
2165.000000	53.181369
2164.000000	53.190555
2163.000000	53.210108
2162.000000	53.239108
2161.000000	53.273308
2160.000000	53.309004
2159.000000	53.343581
2158.000000	53.372463
2157.000000	53.390354
2156.000000	53.395852
2155.000000	53.391380
2154.000000	53.378931
2153.000000	53.360095
2152.000000	53.339730
2151.000000	53.324949
2150.000000	53.320097
2149.000000	53.326067
2148.000000	53.343891
2147.000000	53.374052
2146.000000	53.412463
2145.000000	53.451555
2144.000000	53.485925
2143.000000	53.513002
2142.000000	53.529470
2141.000000	53.531958
2140.000000	53.521682
2139.000000	53.504060
2138.000000	53.483631
2137.000000	53.463323
2136.000000	53.447757
2135.000000	53.442192
2134.000000	53.447654
2133.000000	53.461471
2132.000000	53.482125
2131.000000	53.509476
2130.000000	53.540561
2129.000000	53.570115
2128.000000	53.595383
2127.000000	53.616293
2126.000000	53.631322
2125.000000	53.637989
2124.000000	53.637494
2123.000000	53.634013
2122.000000	53.629601
2121.000000	53.624266
2120.000000	53.620715
2119.000000	53.623830
2118.000000	53.635636
2117.000000	53.655326
2116.000000	53.683784
2115.000000	53.722906
2114.000000	53.770343
2113.000000	53.819848
2112.000000	53.867252
2111.000000	53.911581
2110.000000	53.950722
2109.000000	53.981789
2108.000000	54.006123
2107.000000	54.029052
2106.000000	54.054335
2105.000000	54.083640
2104.000000	54.121011
2103.000000	54.172178
2102.000000	54.238540
2101.000000	54.316731
2100.000000	54.403912
2099.000000	54.498642
2098.000000	54.596349
2097.000000	54.689572
2096.000000	54.774350
2095.000000	54.851263
2094.000000	54.920268
2093.000000	54.980099
2092.000000	55.033410
2091.000000	55.086831
2090.000000	55.144669
2089.000000	55.206971
2088.000000	55.273816
2087.000000	55.346121
2086.000000	55.421647
2085.000000	55.495646
2084.000000	55.566001
2083.000000	55.633109
2082.000000	55.694474
2081.000000	55.745328
2080.000000	55.784576
2079.000000	55.814714
2078.000000	55.835952
2077.000000	55.845882
2076.000000	55.845753
2075.000000	55.840717
2074.000000	55.833777
2073.000000	55.825265
2072.000000	55.817804
2071.000000	55.816406
2070.000000	55.822599
2069.000000	55.833459
2068.000000	55.846822
2067.000000	55.862772
2066.000000	55.880089
2065.000000	55.895911
2064.000000	55.908853
2063.000000	55.918008
2062.000000	55.920235
2061.000000	55.914149
2060.000000	55.905960
2059.000000	55.905740
2058.000000	55.918478
2057.000000	55.944150
2056.000000	55.984693
2055.000000	56.043239
2054.000000	56.117200
2053.000000	56.199034
2052.000000	56.283419
2051.000000	56.368478
2050.000000	56.450528
2049.000000	56.524761
2048.000000	56.591743
2047.000000	56.657270
2046.000000	56.724988
2045.000000	56.794943
2044.000000	56.869980
2043.000000	56.956938
2042.000000	57.060093
2041.000000	57.178778
2040.000000	57.311476
2039.000000	57.456605
2038.000000	57.609152
2037.000000	57.762581
2036.000000	57.915262
2035.000000	58.069319
2034.000000	58.223231
2033.000000	58.372319
2032.000000	58.516256
2031.000000	58.658544
2030.000000	58.799125
2029.000000	58.934574
2028.000000	59.066094
2027.000000	59.199994
2026.000000	59.339488
2025.000000	59.484381
2024.000000	59.637116
2023.000000	59.802633
2022.000000	59.979809
2021.000000	60.160204
2020.000000	60.336581
2019.000000	60.506600
2018.000000	60.668219
2017.000000	60.818486
2016.000000	60.957053
2015.000000	61.084297
2014.000000	61.197148
2013.000000	61.294158
2012.000000	61.384216
2011.000000	61.481739
2010.000000	61.593716
2009.000000	61.718757
2008.000000	61.856523
2007.000000	62.007652
2006.000000	62.164646
2005.000000	62.314780
2004.000000	62.450924
2003.000000	62.573326
2002.000000	62.679800
2001.000000	62.765741
2000.000000	62.835120
1999.000000	62.898014
1998.000000	62.960904
1997.000000	63.025824
1996.000000	63.095659
1995.000000	63.170510
1994.000000	63.244343
1993.000000	63.315570
1992.000000	63.396252
1991.000000	63.496670
1990.000000	63.606683
1989.000000	63.707491
1988.000000	63.796052
1987.000000	63.882934
1986.000000	63.970018
1985.000000	64.047474
1984.000000	64.111268
1983.000000	64.167423
1982.000000	64.217305
1981.000000	64.255495
1980.000000	64.284636
1979.000000	64.314940
1978.000000	64.351620
1977.000000	64.393816
1976.000000	64.446532
1975.000000	64.518219
1974.000000	64.606737
1973.000000	64.700533
1972.000000	64.792847
1971.000000	64.880738
1970.000000	64.952388
1969.000000	64.992438
1968.000000	65.002760
1967.000000	65.003720
1966.000000	65.010309
1965.000000	65.021201
1964.000000	65.034866
1963.000000	65.059306
1962.000000	65.100730
1961.000000	65.156947
1960.000000	65.225085
1959.000000	65.303404
1958.000000	65.382509
1957.000000	65.447539
1956.000000	65.493814
1955.000000	65.528234
1954.000000	65.554591
1953.000000	65.570245
1952.000000	65.578297
1951.000000	65.592240
1950.000000	65.618014
1949.000000	65.648063
1948.000000	65.678620
1947.000000	65.714978
1946.000000	65.753797
1945.000000	65.777465
1944.000000	65.777437
1943.000000	65.773081
1942.000000	65.792444
1941.000000	65.840537
1940.000000	65.900969
1939.000000	65.958074
1938.000000	66.004712
1937.000000	66.039260
1936.000000	66.063777
1935.000000	66.079749
1934.000000	66.083955
1933.000000	66.072536
1932.000000	66.049805
1931.000000	66.030003
1930.000000	66.020036
1929.000000	66.019565
1928.000000	66.035372
1927.000000	66.075856
1926.000000	66.133265
1925.000000	66.178562
1924.000000	66.198256
1923.000000	66.212578
1922.000000	66.239391
1921.000000	66.259133
1920.000000	66.237316
1919.000000	66.170490
1918.000000	66.099133
1917.000000	66.063930
1916.000000	66.068904
1915.000000	66.093703
1914.000000	66.121552
1913.000000	66.147159
1912.000000	66.169130
1911.000000	66.183416
1910.000000	66.181956
1909.000000	66.163825
1908.000000	66.138924
1907.000000	66.114892
1906.000000	66.091579
1905.000000	66.062979
1904.000000	66.035039
1903.000000	66.021969
1902.000000	66.024677
1901.000000	66.031947
1900.000000	66.039538
1899.000000	66.049704
1898.000000	66.057302
1897.000000	66.046161
1896.000000	66.014671
1895.000000	65.987888
1894.000000	65.989918
1893.000000	66.016123
1892.000000	66.043106
1891.000000	66.055250
1890.000000	66.059320
1889.000000	66.074884
1888.000000	66.108842
1887.000000	66.144854
1886.000000	66.157563
1885.000000	66.137559
1884.000000	66.102401
1883.000000	66.077487
1882.000000	66.069028
1881.000000	66.071426
1880.000000	66.087852
1879.000000	66.123555
1878.000000	66.170901
1877.000000	66.211613
1876.000000	66.233792
1875.000000	66.240404
1874.000000	66.237746
1873.000000	66.226954
1872.000000	66.208253
1871.000000	66.178147
1870.000000	66.129477
1869.000000	66.074864
1868.000000	66.050872
1867.000000	66.074168
1866.000000	66.118773
1865.000000	66.148890
1864.000000	66.153883
1863.000000	66.142486
1862.000000	66.116925
1861.000000	66.072270
1860.000000	66.016018
1859.000000	65.965900
1858.000000	65.929726
1857.000000	65.904700
1856.000000	65.892344
1855.000000	65.897266
1854.000000	65.910984
1853.000000	65.917277
1852.000000	65.914126
1851.000000	65.898580
1850.000000	65.865446
1849.000000	65.818862
1848.000000	65.782529
1847.000000	65.750323
1846.000000	65.695487
1845.000000	65.653472
1844.000000	65.643729
1843.000000	65.614213
1842.000000	65.493686
1841.000000	65.550835
1840.000000	65.529036
1839.000000	65.473699
1838.000000	65.397509
1837.000000	65.315825
1836.000000	65.234126
1835.000000	65.184877
1834.000000	65.186676
1833.000000	65.222506
1832.000000	65.246686
1831.000000	65.213442
1830.000000	65.131247
1829.000000	65.048138
1828.000000	64.978424
1827.000000	64.889132
1826.000000	64.750678
1825.000000	64.590464
1824.000000	64.471994
1823.000000	64.417714
1822.000000	64.392743
1821.000000	64.362109
1820.000000	64.327099
1819.000000	64.304128
1818.000000	64.292593
1817.000000	64.273037
1816.000000	64.238002
1815.000000	64.192031
1814.000000	64.127270
1813.000000	64.028963
1812.000000	63.896884
1811.000000	63.759818
1810.000000	63.647028
1809.000000	63.563621
1808.000000	63.507695
1807.000000	63.476216
1806.000000	63.450163
1805.000000	63.403823
1804.000000	63.337725
1803.000000	63.275025
1802.000000	63.220668
1801.000000	63.165013
1800.000000	63.100660
1799.000000	63.042959
1798.000000	62.991885
1797.000000	62.943828
1796.000000	62.939071
1795.000000	62.909610
1794.000000	62.825285
1793.000000	62.650815
1792.000000	62.452229
1791.000000	62.327715
1790.000000	62.286888
1789.000000	62.265162
1788.000000	62.218499
1787.000000	62.154649
1786.000000	62.103569
1785.000000	62.088209
1784.000000	62.115658
1783.000000	62.157637
1782.000000	62.148698
1781.000000	62.060792
1780.000000	61.933155
1779.000000	61.823029
1778.000000	61.737398
1777.000000	61.663349
1776.000000	61.620145
1775.000000	61.620832
1774.000000	61.610396
1773.000000	61.521893
1772.000000	61.391675
1771.000000	61.296236
1770.000000	61.229813
1769.000000	61.142923
1768.000000	61.040102
1767.000000	60.973811
1766.000000	60.949375
1765.000000	60.910240
1764.000000	60.805113
1763.000000	60.641079
1762.000000	60.479803
1761.000000	60.381104
1760.000000	60.341115
1759.000000	60.315258
1758.000000	60.249343
1757.000000	60.143789
1756.000000	60.059822
1755.000000	60.024954
1754.000000	59.990506
1753.000000	59.899703
1752.000000	59.769807
1751.000000	59.674923
1750.000000	59.635715
1749.000000	59.582636
1748.000000	59.479729
1747.000000	59.353547
1746.000000	59.217684
1745.000000	59.060655
1744.000000	58.894858
1743.000000	58.764083
1742.000000	58.665393
1741.000000	58.531037
1740.000000	58.344956
1739.000000	58.203304
1738.000000	58.161706
1737.000000	58.149208
1736.000000	58.028292
1735.000000	57.721345
1734.000000	57.353265
1733.000000	57.095416
1732.000000	56.926869
1731.000000	56.749001
1730.000000	56.515935
1729.000000	56.257504
1728.000000	56.030588
1727.000000	55.853025
1726.000000	55.693885
1725.000000	55.516318
1724.000000	55.319065
1723.000000	55.145135
1722.000000	55.016692
1721.000000	54.898136
1720.000000	54.717969
1719.000000	54.407062
1718.000000	53.978649
1717.000000	53.537553
1716.000000	53.161780
1715.000000	52.857211
1714.000000	52.595270
1713.000000	52.344187
1712.000000	52.090816
1711.000000	51.839153
1710.000000	51.593399
1709.000000	51.354206
1708.000000	51.107560
1707.000000	50.809517
1706.000000	50.441313
1705.000000	50.071463
1704.000000	49.790868
1703.000000	49.592308
1702.000000	49.329209
1701.000000	48.864897
1700.000000	48.347283
1699.000000	48.010412
1698.000000	47.771747
1697.000000	47.384503
1696.000000	46.817087
1695.000000	46.312348
1694.000000	46.002628
1693.000000	45.788146
1692.000000	45.544155
1691.000000	45.238140
1690.000000	44.902098
1689.000000	44.586479
1688.000000	44.330091
1687.000000	44.115585
1686.000000	43.811956
1685.000000	43.239750
1684.000000	42.513368
1683.000000	41.952033
1682.000000	41.585736
1681.000000	41.260390
1680.000000	40.917068
1679.000000	40.601063
1678.000000	40.320854
1677.000000	39.996549
1676.000000	39.570665
1675.000000	39.123129
1674.000000	38.765425
1673.000000	38.485083
1672.000000	38.185693
1671.000000	37.791492
1670.000000	37.294551
1669.000000	36.770732
1668.000000	36.320698
1667.000000	35.984098
1666.000000	35.717047
1665.000000	35.430090
1664.000000	35.056770
1663.000000	34.620287
1662.000000	34.197794
1661.000000	33.826210
1660.000000	33.494255
1659.000000	33.192205
1658.000000	32.923958
1657.000000	32.694662
1656.000000	32.501495
1655.000000	32.262482
1654.000000	31.802095
1653.000000	31.186930
1652.000000	30.734100
1651.000000	30.519559
1650.000000	30.401795
1649.000000	30.221085
1648.000000	29.885095
1647.000000	29.438103
1646.000000	29.027734
1645.000000	28.714386
1644.000000	28.464415
1643.000000	28.243873
1642.000000	28.026468
1641.000000	27.799255
1640.000000	27.579617
1639.000000	27.393959
1638.000000	27.216906
1637.000000	26.954511
1636.000000	26.578862
1635.000000	26.216459
1634.000000	25.965780
1633.000000	25.788843
1632.000000	25.633133
1631.000000	25.488866
1630.000000	25.348314
1629.000000	25.186336
1628.000000	25.004511
1627.000000	24.842300
1626.000000	24.713399
1625.000000	24.578352
1624.000000	24.402328
1623.000000	24.218327
1622.000000	24.081243
1621.000000	23.997170
1620.000000	23.944020
1619.000000	23.901323
1618.000000	23.839096
1617.000000	23.739788
1616.000000	23.641954
1615.000000	23.591737
1614.000000	23.580423
1613.000000	23.569946
1612.000000	23.547413
1611.000000	23.531160
1610.000000	23.530105
1609.000000	23.529423
1608.000000	23.524635
1607.000000	23.534206
1606.000000	23.564352
1605.000000	23.600363
1604.000000	23.634332
1603.000000	23.677147
1602.000000	23.735544
1601.000000	23.799300
1600.000000	23.863495
1599.000000	23.937735
1598.000000	24.024473
1597.000000	24.109148
1596.000000	24.181788
1595.000000	24.250224
1594.000000	24.320040
1593.000000	24.382530
1592.000000	24.433634
1591.000000	24.484622
1590.000000	24.543270
1589.000000	24.604083
1588.000000	24.664893
1587.000000	24.736079
1586.000000	24.821745
1585.000000	24.911485
1584.000000	25.000338
1583.000000	25.093138
1582.000000	25.190672
1581.000000	25.286037
1580.000000	25.377764
1579.000000	25.467205
1578.000000	25.537215
1577.000000	25.559231
1576.000000	25.556631
1575.000000	25.588313
1574.000000	25.661804
1573.000000	25.748904
1572.000000	25.831040
1571.000000	25.905443
1570.000000	25.978928
1569.000000	26.062286
1568.000000	26.158424
1567.000000	26.260456
1566.000000	26.357283
1565.000000	26.439082
1564.000000	26.512080
1563.000000	26.591562
1562.000000	26.690559
1561.000000	26.806622
1560.000000	26.880771
1559.000000	26.921964
1558.000000	27.024608
1557.000000	27.146215
1556.000000	27.242725
1555.000000	27.339620
1554.000000	27.467557
1553.000000	27.625505
1552.000000	27.786963
1551.000000	27.951402
1550.000000	28.139465
1549.000000	28.349225
1548.000000	28.554844
1547.000000	28.747294
1546.000000	28.945682
1545.000000	29.172173
1544.000000	29.434310
1543.000000	29.728845
1542.000000	30.040803
1541.000000	30.327060
1540.000000	30.596928
1539.000000	30.908686
1538.000000	31.244168
1537.000000	31.560792
1536.000000	31.862621
1535.000000	32.176824
1534.000000	32.530465
1533.000000	32.926644
1532.000000	33.325543
1531.000000	33.697590
1530.000000	34.048155
1529.000000	34.388018
1528.000000	34.737455
1527.000000	35.133143
1526.000000	35.591211
1525.000000	36.075196
1524.000000	36.537140
1523.000000	36.970917
1522.000000	37.421931
1521.000000	37.931545
1520.000000	38.457949
1519.000000	38.935699
1518.000000	39.347820
1517.000000	39.715375
1516.000000	40.076535
1515.000000	40.439230
1514.000000	40.780687
1513.000000	41.091529
1512.000000	41.388589
1511.000000	41.701322
1510.000000	42.040603
1509.000000	42.401670
1508.000000	42.754370
1507.000000	43.141373
1506.000000	43.648464
1505.000000	44.184300
1504.000000	44.660824
1503.000000	45.115418
1502.000000	45.594863
1501.000000	46.112597
1500.000000	46.656606
1499.000000	47.212765
1498.000000	47.770309
1497.000000	48.322179
1496.000000	48.877322
1495.000000	49.442872
1494.000000	49.988018
1493.000000	50.476541
1492.000000	50.925905
1491.000000	51.402226
1490.000000	51.936262
1489.000000	52.468928
1488.000000	52.933450
1487.000000	53.340235
1486.000000	53.704063
1485.000000	53.998782
1484.000000	54.220793
1483.000000	54.392094
1482.000000	54.516682
1481.000000	54.574841
1480.000000	54.569404
1479.000000	54.514782
1478.000000	54.380474
1477.000000	54.115311
1476.000000	53.728874
1475.000000	53.245294
1474.000000	52.544040
1473.000000	51.452992
1472.000000	50.064331
1471.000000	48.638669
1470.000000	47.213450
1469.000000	45.644044
1468.000000	43.835988
1467.000000	41.726871
1466.000000	39.172370
1465.000000	36.128456
1464.000000	32.925188
1463.000000	29.986385
1462.000000	27.391341
1461.000000	24.996811
1460.000000	22.716036
1459.000000	20.492637
1458.000000	18.197938
1457.000000	15.915385
1456.000000	14.122108
1455.000000	13.044763
1454.000000	12.412732
1453.000000	11.968629
1452.000000	11.684204
1451.000000	11.605247
1450.000000	11.712386
1449.000000	11.975991
1448.000000	12.427874
1447.000000	13.067696
1446.000000	13.809916
1445.000000	14.598563
1444.000000	15.462829
1443.000000	16.426324
1442.000000	17.443214
1441.000000	18.450098
1440.000000	19.432169
1439.000000	20.432101
1438.000000	21.542454
1437.000000	22.855672
1436.000000	24.313009
1435.000000	25.706305
1434.000000	26.935640
1433.000000	28.076785
1432.000000	29.221890
1431.000000	30.374063
1430.000000	31.468494
1429.000000	32.447561
1428.000000	33.279684
1427.000000	33.952939
1426.000000	34.485027
1425.000000	34.921198
1424.000000	35.293961
1423.000000	35.600265
1422.000000	35.839109
1421.000000	36.047694
1420.000000	36.292929
1419.000000	36.633072
1418.000000	37.078757
1417.000000	37.599880
1416.000000	38.172566
1415.000000	38.793067
1414.000000	39.469374
1413.000000	40.216534
1412.000000	41.038664
1411.000000	41.915807
1410.000000	42.820330
1409.000000	43.731157
1408.000000	44.625783
1407.000000	45.485919
1406.000000	46.316618
1405.000000	47.140924
1404.000000	47.946534
1403.000000	48.679629
1402.000000	49.320792
1401.000000	49.912066
1400.000000	50.502159
1399.000000	51.096714
1398.000000	51.672871
1397.000000	52.213501
1396.000000	52.709504
1395.000000	53.157903
1394.000000	53.566773
1393.000000	53.930658
1392.000000	54.206147
1391.000000	54.350455
1390.000000	54.366944
1389.000000	54.282534
1388.000000	54.105570
1387.000000	53.857618
1386.000000	53.620883
1385.000000	53.489239
1384.000000	53.493797
1383.000000	53.606126
1382.000000	53.769669
1381.000000	53.906214
1380.000000	53.938811
1379.000000	53.842027
1378.000000	53.656591
1377.000000	53.429906
1376.000000	53.161934
1375.000000	52.841481
1374.000000	52.509255
1373.000000	52.222650
1372.000000	51.973008
1371.000000	51.705364
1370.000000	51.391236
1369.000000	51.042214
1368.000000	50.673489
1367.000000	50.286034
1366.000000	49.876517
1365.000000	49.432932
1364.000000	48.930868
1363.000000	48.368135
1362.000000	47.792887
1361.000000	47.254924
1360.000000	46.756423
1359.000000	46.289706
1358.000000	45.886719
1357.000000	45.600767
1356.000000	45.463692
1355.000000	45.478679
1354.000000	45.630047
1353.000000	45.870781
1352.000000	46.115883
1351.000000	46.273913
1350.000000	46.277151
1349.000000	46.080305
1348.000000	45.645998
1347.000000	44.955165
1346.000000	44.019857
1345.000000	42.870391
1344.000000	41.540176
1343.000000	40.057908
1342.000000	38.443065
1341.000000	36.701156
1340.000000	34.845223
1339.000000	32.927665
1338.000000	31.010960
1337.000000	29.109313
1336.000000	27.195895
1335.000000	25.259270
1334.000000	23.322024
1333.000000	21.414685
1332.000000	19.567996
1331.000000	17.828913
1330.000000	16.249102
1329.000000	14.850409
1328.000000	13.626382
1327.000000	12.565367
1326.000000	11.648626
1325.000000	10.842695
1324.000000	10.115378
1323.000000	9.458838
1322.000000	8.877106
1321.000000	8.364353
1320.000000	7.920230
1319.000000	7.567609
1318.000000	7.337371
1317.000000	7.242418
1316.000000	7.281772
1315.000000	7.459633
1314.000000	7.774638
1313.000000	8.207150
1312.000000	8.732831
1311.000000	9.337228
1310.000000	10.011497
1309.000000	10.740176
1308.000000	11.507080
1307.000000	12.303664
1306.000000	13.120231
1305.000000	13.940304
1304.000000	14.749688
1303.000000	15.544764
1302.000000	16.325990
1301.000000	17.088804
1300.000000	17.826037
1299.000000	18.533404
1298.000000	19.206050
1297.000000	19.835254
1296.000000	20.418215
1295.000000	20.969940
1294.000000	21.520874
1293.000000	22.104421
1292.000000	22.749157
1291.000000	23.476555
1290.000000	24.298544
1289.000000	25.213493
1288.000000	26.206754
1287.000000	27.256806
1286.000000	28.339021
1285.000000	29.426839
1284.000000	30.492702
1283.000000	31.512165
1282.000000	32.468186
1281.000000	33.349542
1280.000000	34.145560
1279.000000	34.849274
1278.000000	35.465461
1277.000000	36.007202
1276.000000	36.490273
1275.000000	36.936117
1274.000000	37.376828
1273.000000	37.848620
1272.000000	38.378406
1271.000000	38.981851
1270.000000	39.669071
1269.000000	40.441334
1268.000000	41.282740
1267.000000	42.166008
1266.000000	43.066491
1265.000000	43.963514
1264.000000	44.832065
1263.000000	45.648258
1262.000000	46.404711
1261.000000	47.108502
1260.000000	47.763729
1259.000000	48.368838
1258.000000	48.930408
1257.000000	49.457486
1256.000000	49.944413
1255.000000	50.374232
1254.000000	50.735197
1253.000000	51.023589
1252.000000	51.229125
1251.000000	51.339544
1250.000000	51.359245
1249.000000	51.303857
1248.000000	51.182930
1247.000000	50.997436
1246.000000	50.752719
1245.000000	50.456690
1244.000000	50.102739
1243.000000	49.676175
1242.000000	49.171178
1241.000000	48.590440
1240.000000	47.936140
1239.000000	47.213628
1238.000000	46.444349
1237.000000	45.658188
1236.000000	44.876743
1235.000000	44.114878
1234.000000	43.390078
1233.000000	42.717909
1232.000000	42.103473
1231.000000	41.547615
1230.000000	41.055617
1229.000000	40.635881
1228.000000	40.291422
1227.000000	40.023193
1226.000000	39.838432
1225.000000	39.743153
1224.000000	39.735553
1223.000000	39.807802
1222.000000	39.952527
1221.000000	40.163064
1220.000000	40.425659
1219.000000	40.724355
1218.000000	41.049014
1217.000000	41.393575
1216.000000	41.751553
1215.000000	42.118182
1214.000000	42.498116
1213.000000	42.900778
1212.000000	43.328338
1211.000000	43.775749
1210.000000	44.238661
1209.000000	44.712828
1208.000000	45.186652
1207.000000	45.644558
1206.000000	46.078660
1205.000000	46.489445
1204.000000	46.877323
1203.000000	47.244607
1202.000000	47.604649
1201.000000	47.976952
1200.000000	48.372688
1199.000000	48.793452
1198.000000	49.240714
1197.000000	49.713735
1196.000000	50.199059
1195.000000	50.675181
1194.000000	51.128849
1193.000000	51.557096
1192.000000	51.956443
1191.000000	52.324151
1190.000000	52.670577
1189.000000	53.015542
1188.000000	53.370702
1187.000000	53.737471
1186.000000	54.119071
1185.000000	54.519664
1184.000000	54.929635
1183.000000	55.324689
1182.000000	55.683632
1181.000000	55.998188
1180.000000	56.270141
1179.000000	56.512679
1178.000000	56.750839
1177.000000	57.005524
1176.000000	57.274888
1175.000000	57.542477
1174.000000	57.798296
1173.000000	58.037162
1172.000000	58.244852
1171.000000	58.404157
1170.000000	58.515327
1169.000000	58.595608
1168.000000	58.660361
1167.000000	58.721867
1166.000000	58.801048
1165.000000	58.920006
1164.000000	59.081385
1163.000000	59.268588
1162.000000	59.464310
1161.000000	59.653057
1160.000000	59.810403
1159.000000	59.911715
1158.000000	59.953844
1157.000000	59.954742
1156.000000	59.934384
1155.000000	59.912069
1154.000000	59.916284
1153.000000	59.974537
1152.000000	60.091628
1151.000000	60.252785
1150.000000	60.445330
1149.000000	60.659883
1148.000000	60.875266
1147.000000	61.063636
1146.000000	61.213566
1145.000000	61.332733
1144.000000	61.429682
1143.000000	61.510882
1142.000000	61.592853
1141.000000	61.695854
1140.000000	61.823197
1139.000000	61.962969
1138.000000	62.107782
1137.000000	62.256198
1136.000000	62.398552
1135.000000	62.522237
1134.000000	62.631624
1133.000000	62.745329
1132.000000	62.873836
1131.000000	63.015807
1130.000000	63.171998
1129.000000	63.342584
1128.000000	63.509660
1127.000000	63.641477
1126.000000	63.716506
1125.000000	63.726461
1124.000000	63.663848
1123.000000	63.527260
1122.000000	63.338642
1121.000000	63.136715
1120.000000	62.948796
1119.000000	62.784869
1118.000000	62.650439
1117.000000	62.542069
1116.000000	62.432807
1115.000000	62.278220
1114.000000	62.042631
1113.000000	61.706100
1112.000000	61.251286
1111.000000	60.670761
1110.000000	59.979387
1109.000000	59.205276
1108.000000	58.366661
1107.000000	57.466205
1106.000000	56.507878
1105.000000	55.491631
1104.000000	54.401099
1103.000000	53.213770
1102.000000	51.915197
1101.000000	50.501214
1100.000000	48.964476
1099.000000	47.298061
1098.000000	45.508021
1097.000000	43.601885
1096.000000	41.581358
1095.000000	39.447471
1094.000000	37.210370
1093.000000	34.889754
1092.000000	32.509456
1091.000000	30.103042
1090.000000	27.713441
1089.000000	25.384043
1088.000000	23.153383
1087.000000	21.059326
1086.000000	19.130597
1085.000000	17.380057
1084.000000	15.813403
1083.000000	14.428681
1082.000000	13.216642
1081.000000	12.157436
1080.000000	11.231548
1079.000000	10.429620
1078.000000	9.736183
1077.000000	9.131140
1076.000000	8.600201
1075.000000	8.136646
1074.000000	7.733402
1073.000000	7.376877
1072.000000	7.060766
1071.000000	6.787336
1070.000000	6.553528
1069.000000	6.350629
1068.000000	6.174775
1067.000000	6.029984
1066.000000	5.915837
1065.000000	5.824852
1064.000000	5.756309
1063.000000	5.716172
1062.000000	5.704783
1061.000000	5.715888
1060.000000	5.748610
1059.000000	5.809525
1058.000000	5.898839
1057.000000	6.009836
1056.000000	6.142394
1055.000000	6.303081
1054.000000	6.493014
1053.000000	6.705554
1052.000000	6.939297
1051.000000	7.200635
1050.000000	7.489977
1049.000000	7.801107
1048.000000	8.132824
1047.000000	8.490618
1046.000000	8.876590
1045.000000	9.287422
1044.000000	9.725406
1043.000000	10.197552
1042.000000	10.705295
1041.000000	11.245580
1040.000000	11.818533
1039.000000	12.428037
1038.000000	13.072821
1037.000000	13.746949
1036.000000	14.449390
1035.000000	15.181111
1034.000000	15.936794
1033.000000	16.706060
1032.000000	17.482949
1031.000000	18.268229
1030.000000	19.061532
1029.000000	19.859899
1028.000000	20.662782
1027.000000	21.472892
1026.000000	22.292528
1025.000000	23.122258
1024.000000	23.962983
1023.000000	24.815165
1022.000000	25.676252
1021.000000	26.541106
1020.000000	27.404143
1019.000000	28.259730
1018.000000	29.101888
1017.000000	29.925181
1016.000000	30.725200
1015.000000	31.500051
1014.000000	32.252080
1013.000000	32.987088
1012.000000	33.711650
1011.000000	34.431519
1010.000000	35.152899
1009.000000	35.880857
1008.000000	36.614684
1007.000000	37.348258
1006.000000	38.074892
1005.000000	38.789264
1004.000000	39.484668
1003.000000	40.153862
1002.000000	40.795184
1001.000000	41.412117
1000.000000	42.007523
999.000000	42.583459
998.000000	43.145876
997.000000	43.703764
996.000000	44.261476
995.000000	44.818412
994.000000	45.375850
993.000000	45.936097
992.000000	46.496022
991.000000	47.048463
990.000000	47.590922
989.000000	48.125262
988.000000	48.648202
987.000000	49.152286
986.000000	49.635151
985.000000	50.099435
984.000000	50.544365
983.000000	50.966524
982.000000	51.370400
981.000000	51.767482
980.000000	52.165442
979.000000	52.568538
978.000000	52.985827
977.000000	53.426921
976.000000	53.888120
975.000000	54.353206
974.000000	54.808513
973.000000	55.245041
972.000000	55.649075
971.000000	56.005500
970.000000	56.313000
969.000000	56.585408
968.000000	56.836792
967.000000	57.078852
966.000000	57.330412
965.000000	57.612805
964.000000	57.933391
963.000000	58.283719
962.000000	58.653158
961.000000	59.031696
960.000000	59.400357
959.000000	59.735896
958.000000	60.027527
957.000000	60.278509
956.000000	60.492335
955.000000	60.671081
954.000000	60.827898
953.000000	60.982831
952.000000	61.145059
951.000000	61.312519
950.000000	61.487087
949.000000	61.675803
948.000000	61.877717
947.000000	62.085417
946.000000	62.300109
945.000000	62.529540
944.000000	62.770689
943.000000	63.008888
942.000000	63.233736
941.000000	63.440584
940.000000	63.615932
939.000000	63.740925
938.000000	63.811002
937.000000	63.838263
936.000000	63.836770
935.000000	63.820866
934.000000	63.816832
933.000000	63.856498
932.000000	63.955237
931.000000	64.108266
930.000000	64.304776
929.000000	64.528423
928.000000	64.745238
927.000000	64.910941
926.000000	64.996899
925.000000	64.996343
924.000000	64.911343
923.000000	64.752594
922.000000	64.549829
921.000000	64.344245
920.000000	64.164506
919.000000	64.022018
918.000000	63.924323
917.000000	63.873352
916.000000	63.851657
915.000000	63.827149
914.000000	63.774629
913.000000	63.681431
912.000000	63.535049
911.000000	63.325672
910.000000	63.059380
909.000000	62.751628
908.000000	62.407653
907.000000	62.021558
906.000000	61.594923
905.000000	61.137198
904.000000	60.650583
903.000000	60.133660
902.000000	59.596956
901.000000	59.060746
900.000000	58.536497
899.000000	58.022216
898.000000	57.513993
897.000000	57.003262
896.000000	56.465274
895.000000	55.865392
894.000000	55.177934
893.000000	54.391848
892.000000	53.500326
891.000000	52.505612
890.000000	51.431808
889.000000	50.316093
888.000000	49.189138
887.000000	48.068611
886.000000	46.966313
885.000000	45.886038
884.000000	44.814023
883.000000	43.724708
882.000000	42.595441
881.000000	41.411075
880.000000	40.159726
879.000000	38.835536
878.000000	37.447381
877.000000	36.015012
876.000000	34.557607
875.000000	33.090821
874.000000	31.630440
873.000000	30.191599
872.000000	28.784445
871.000000	27.414396
870.000000	26.084659
869.000000	24.797668
868.000000	23.553298
867.000000	22.348924
866.000000	21.181301
865.000000	20.047091
864.000000	18.945598
863.000000	17.877742
862.000000	16.844424
861.000000	15.848384
860.000000	14.894935
859.000000	13.993344
858.000000	13.154268
857.000000	12.390813
856.000000	11.722096
855.000000	11.165608
854.000000	10.731312
853.000000	10.418906
852.000000	10.218269
851.000000	10.109518
850.000000	10.061290
849.000000	10.042264
848.000000	10.031126
847.000000	10.015527
846.000000	9.988907
845.000000	9.951393
844.000000	9.912799
843.000000	9.886691
842.000000	9.882755
841.000000	9.908563
840.000000	9.972411
839.000000	10.080589
838.000000	10.233943
837.000000	10.430766
836.000000	10.671106
835.000000	10.952236
834.000000	11.265619
833.000000	11.601973
832.000000	11.955822
831.000000	12.324727
830.000000	12.707395
829.000000	13.107050
828.000000	13.531650
827.000000	13.986764
826.000000	14.473687
825.000000	14.994601
824.000000	15.554988
823.000000	16.158279
822.000000	16.801373
821.000000	17.477146
820.000000	18.174585
819.000000	18.877599
818.000000	19.570054
817.000000	20.242252
816.000000	20.889713
815.000000	21.508898
814.000000	22.100117
813.000000	22.671247
812.000000	23.232678
811.000000	23.790350
810.000000	24.348448
809.000000	24.914233
808.000000	25.493634
807.000000	26.085852
806.000000	26.687765
805.000000	27.299620
804.000000	27.920598
803.000000	28.543732
802.000000	29.161861
801.000000	29.773942
800.000000	30.380104
799.000000	30.976509
798.000000	31.560833
797.000000	32.136731
796.000000	32.707452
795.000000	33.272397
794.000000	33.835174
793.000000	34.406910
792.000000	34.995726
791.000000	35.599827
790.000000	36.214561
789.000000	36.836851
788.000000	37.457599
787.000000	38.059690
786.000000	38.629725
785.000000	39.163726
784.000000	39.658859
783.000000	40.111188
782.000000	40.527703
781.000000	40.929388
780.000000	41.336450
779.000000	41.759561
778.000000	42.207267
777.000000	42.688284
776.000000	43.198988
775.000000	43.718999
774.000000	44.225830
773.000000	44.704978
772.000000	45.143733
771.000000	45.530289
770.000000	45.866709
769.000000	46.172301
768.000000	46.467843
767.000000	46.766442
766.000000	47.081379
765.000000	47.427443
764.000000	47.807351
763.000000	48.207650
762.000000	48.613387
761.000000	49.016071
760.000000	49.404690
759.000000	49.764193
758.000000	50.089298
757.000000	50.387432
756.000000	50.663882
755.000000	50.916434
754.000000	51.147909
753.000000	51.367665
752.000000	51.575850
751.000000	51.761568
750.000000	51.921489
749.000000	52.066729
748.000000	52.207596
747.000000	52.347757
746.000000	52.497494
745.000000	52.674667
744.000000	52.883951
743.000000	53.108256
742.000000	53.325545
741.000000	53.519543
740.000000	53.670018
739.000000	53.752848
738.000000	53.760610
737.000000	53.711024
736.000000	53.631126
735.000000	53.547763
734.000000	53.496403
733.000000	53.517959
732.000000	53.635517
731.000000	53.844338
730.000000	54.127931
729.000000	54.467027
728.000000	54.828324
727.000000	55.165862
726.000000	55.446980
725.000000	55.665931
724.000000	55.828914
723.000000	55.945955
722.000000	56.043692
721.000000	56.164927
720.000000	56.341757
719.000000	56.580480
718.000000	56.876645
717.000000	57.225918
716.000000	57.612186
715.000000	58.005217
714.000000	58.381986
713.000000	58.736940
712.000000	59.066503
711.000000	59.362764
710.000000	59.629744
709.000000	59.885017
708.000000	60.136571
707.000000	60.374877
706.000000	60.593220
705.000000	60.795751
704.000000	60.980061
703.000000	61.134884
702.000000	61.265300
701.000000	61.400819
700.000000	61.571066
699.000000	61.790773
698.000000	62.070896
697.000000	62.419113
696.000000	62.816214
695.000000	63.213435
694.000000	63.563768
693.000000	63.839209
692.000000	64.018186
691.000000	64.085346
690.000000	64.056173
689.000000	63.982847
688.000000	63.923744
687.000000	63.921019
686.000000	64.009230
685.000000	64.215181
684.000000	64.533198
683.000000	64.919706
682.000000	65.322897
681.000000	65.698504
680.000000	65.999304
679.000000	66.183743
678.000000	66.249058
677.000000	66.232496
676.000000	66.178618
675.000000	66.122244
674.000000	66.100488
673.000000	66.148986
672.000000	66.270047
671.000000	66.437315
670.000000	66.642721
669.000000	66.910179
668.000000	67.235578
667.000000	67.530698
666.000000	67.689046
665.000000	67.734473
664.000000	67.769582
663.000000	67.845980
662.000000	67.968450
661.000000	68.126238
660.000000	68.296426
659.000000	68.443466
658.000000	68.539842
657.000000	68.581046
656.000000	68.574391
655.000000	68.532016
654.000000	68.485251
653.000000	68.484773
652.000000	68.569467
651.000000	68.747806
650.000000	69.009460
649.000000	69.332031
648.000000	69.668575
647.000000	69.951788
646.000000	70.130702
645.000000	70.191403
644.000000	70.139265
643.000000	69.992409
642.000000	69.801937
641.000000	69.645663
640.000000	69.583409
639.000000	69.634628
638.000000	69.797541
637.000000	70.059798
636.000000	70.380062
635.000000	70.687065
634.000000	70.918667
633.000000	71.048418
632.000000	71.070008
631.000000	70.988741
630.000000	70.843514
629.000000	70.704145
628.000000	70.627015
627.000000	70.630490
626.000000	70.715471
625.000000	70.875740
624.000000	71.077713
623.000000	71.262237
622.000000	71.386323
621.000000	71.445766
620.000000	71.451018
619.000000	71.412975
618.000000	71.363010
617.000000	71.351904
616.000000	71.408095
615.000000	71.520025
614.000000	71.666494
613.000000	71.832913
612.000000	71.987908
611.000000	72.082349
610.000000	72.092508
609.000000	72.038570
608.000000	71.950660
607.000000	71.848581
606.000000	71.766244
605.000000	71.753106
604.000000	71.828151
603.000000	71.959613
602.000000	72.102053
601.000000	72.221301
600.000000	72.270222
599.000000	72.182803
598.000000	71.924763
597.000000	71.526950
596.000000	71.059215
595.000000	70.604396
594.000000	70.260732
593.000000	70.122522
592.000000	70.227464
591.000000	70.533163
590.000000	70.954157
589.000000	71.407071
588.000000	71.812331
587.000000	72.098184
586.000000	72.239407
585.000000	72.271651
584.000000	72.247446
583.000000	72.204355
582.000000	72.186471
581.000000	72.249163
580.000000	72.413548
579.000000	72.645061
578.000000	72.900039
577.000000	73.159507
576.000000	73.397324
575.000000	73.559387
574.000000	73.609274
573.000000	73.564168
572.000000	73.464274
571.000000	73.345054
570.000000	73.251052
569.000000	73.231041
568.000000	73.295011
567.000000	73.405156
566.000000	73.521876
565.000000	73.628491
564.000000	73.701780
563.000000	73.704680
562.000000	73.632351
561.000000	73.528339
560.000000	73.435882
559.000000	73.369637
558.000000	73.344787
557.000000	73.384849
556.000000	73.478914
555.000000	73.570083
554.000000	73.609389
553.000000	73.588250
552.000000	73.506986
551.000000	73.358843
550.000000	73.167339
549.000000	72.995798
548.000000	72.897346
547.000000	72.889114
546.000000	72.981665
545.000000	73.184998
544.000000	73.468218
543.000000	73.754389
542.000000	73.976425
541.000000	74.110566
540.000000	74.145127
539.000000	74.066389
538.000000	73.898440
537.000000	73.714553
536.000000	73.582623
535.000000	73.531340
534.000000	73.576703
533.000000	73.733289
532.000000	73.981218
531.000000	74.257653
530.000000	74.500815
529.000000	74.677542
528.000000	74.763413
527.000000	74.741411
526.000000	74.644054
525.000000	74.546078
524.000000	74.482670
523.000000	74.425980
522.000000	74.359330
521.000000	74.310617
520.000000	74.293350
519.000000	74.269788
518.000000	74.200043
517.000000	74.087360
516.000000	73.941590
515.000000	73.748695
514.000000	73.504612
513.000000	73.232391
512.000000	72.946564
511.000000	72.636715
510.000000	72.296973
509.000000	71.926837
508.000000	71.491109
507.000000	70.933226
506.000000	70.248321
505.000000	69.493852
504.000000	68.722267
503.000000	67.969949
502.000000	67.310353
501.000000	66.837328
500.000000	66.575461
499.000000	66.470167
498.000000	66.480134
497.000000	66.609923
496.000000	66.851814
495.000000	67.159409
494.000000	67.494660
493.000000	67.861625
492.000000	68.265951
491.000000	68.685139
490.000000	69.103271
489.000000	69.535972
488.000000	70.002134
487.000000	70.502877
486.000000	71.038920
485.000000	71.605883
484.000000	72.152687
483.000000	72.591203
482.000000	72.877307
481.000000	73.038017
480.000000	73.100291
479.000000	73.055713
478.000000	72.921962
477.000000	72.779263
476.000000	72.697046
475.000000	72.674005
474.000000	72.692353
473.000000	72.769139
472.000000	72.913759
471.000000	73.089662
470.000000	73.271692
469.000000	73.494577
468.000000	73.795768
467.000000	74.150429
466.000000	74.505240
465.000000	74.839467
464.000000	75.149796
463.000000	75.416557
462.000000	75.625345
461.000000	75.780640
460.000000	75.858975
459.000000	75.808450
458.000000	75.638694
457.000000	75.461164
456.000000	75.361979
455.000000	75.317267
454.000000	75.318405
453.000000	75.447586
452.000000	75.746250
451.000000	76.106007
450.000000	76.396703
449.000000	76.607768
448.000000	76.772909
447.000000	76.862791
446.000000	76.848400
445.000000	76.788716
444.000000	76.761521
443.000000	76.772497
442.000000	76.804695
441.000000	76.884582
440.000000	77.015700
439.000000	77.139849
438.000000	77.240430
437.000000	77.401707
436.000000	77.685005
435.000000	78.019650
434.000000	78.308278
433.000000	78.547132
432.000000	78.755755
431.000000	78.894830
430.000000	78.944957
429.000000	78.966531
428.000000	78.980476
427.000000	78.899326
426.000000	78.681991
425.000000	78.453245
424.000000	78.353027
423.000000	78.351855
422.000000	78.335778
421.000000	78.286267
420.000000	78.260439
419.000000	78.278536
418.000000	78.401188
417.000000	78.727796
416.000000	79.141979
415.000000	79.384588
414.000000	79.364561
413.000000	79.238674
412.000000	79.155196
411.000000	79.065108
410.000000	78.917698
409.000000	78.839942
408.000000	78.932273
407.000000	79.077219
406.000000	79.155296
405.000000	79.245236
404.000000	79.465298
403.000000	79.683831
402.000000	79.732064
401.000000	79.665477
400.000000	79.585028
