PE IR       SUBTECH     SPECTRUM    ASCII       PEDS        4.00        
   -1
23ms156_nitrito.asc
24/08/30
17:11:41.00
24/08/30
17:11:41.00
Administrator
Sample 1071 By Administrator Date Friday, August 30 2024
400.000000
#HDR
-1
-1
#GR
cm-1
%T
1.0
0.0
4000.000000
-1.000000
3601
8
90.183373
12.438804
#DATA
4000.000000	70.544052
3999.000000	70.582997
3998.000000	70.618651
3997.000000	70.653202
3996.000000	70.689294
3995.000000	70.728914
3994.000000	70.772469
3993.000000	70.819026
3992.000000	70.867212
3991.000000	70.915222
3990.000000	70.960326
3989.000000	70.999898
3988.000000	71.033944
3987.000000	71.065931
3986.000000	71.100437
3985.000000	71.140131
3984.000000	71.184951
3983.000000	71.233020
3982.000000	71.281518
3981.000000	71.327366
3980.000000	71.368057
3979.000000	71.402984
3978.000000	71.434140
3977.000000	71.464865
3976.000000	71.498015
3975.000000	71.534875
3974.000000	71.575529
3973.000000	71.619120
3972.000000	71.663598
3971.000000	71.706538
3970.000000	71.745884
3969.000000	71.780388
3968.000000	71.810185
3967.000000	71.837142
3966.000000	71.864376
3965.000000	71.895271
3964.000000	71.932201
3963.000000	71.975004
3962.000000	72.020691
3961.000000	72.064192
3960.000000	72.100994
3959.000000	72.131035
3958.000000	72.158277
3957.000000	72.186731
3956.000000	72.217993
3955.000000	72.252310
3954.000000	72.289982
3953.000000	72.330705
3952.000000	72.372727
3951.000000	72.413481
3950.000000	72.450455
3949.000000	72.482304
3948.000000	72.510223
3947.000000	72.536811
3946.000000	72.564767
3945.000000	72.598364
3944.000000	72.642845
3943.000000	72.697188
3942.000000	72.751144
3941.000000	72.793788
3940.000000	72.824198
3939.000000	72.852335
3938.000000	72.886881
3937.000000	72.925417
3936.000000	72.959588
3935.000000	72.988156
3934.000000	73.021037
3933.000000	73.066706
3932.000000	73.120990
3931.000000	73.171719
3930.000000	73.211440
3929.000000	73.243541
3928.000000	73.274915
3927.000000	73.309993
3926.000000	73.351749
3925.000000	73.399281
3924.000000	73.443877
3923.000000	73.475845
3922.000000	73.496387
3921.000000	73.517119
3920.000000	73.546180
3919.000000	73.580469
3918.000000	73.614735
3917.000000	73.650746
3916.000000	73.691764
3915.000000	73.734525
3914.000000	73.775911
3913.000000	73.819593
3912.000000	73.869111
3911.000000	73.921450
3910.000000	73.969197
3909.000000	74.009063
3908.000000	74.043530
3907.000000	74.074959
3906.000000	74.102920
3905.000000	74.126690
3904.000000	74.145361
3903.000000	74.158323
3902.000000	74.168551
3901.000000	74.186407
3900.000000	74.224114
3899.000000	74.279318
3898.000000	74.335226
3897.000000	74.381216
3896.000000	74.422629
3895.000000	74.470403
3894.000000	74.525720
3893.000000	74.579975
3892.000000	74.625896
3891.000000	74.664207
3890.000000	74.691084
3889.000000	74.697227
3888.000000	74.690298
3887.000000	74.704002
3886.000000	74.763252
3885.000000	74.844930
3884.000000	74.899859
3883.000000	74.914531
3882.000000	74.922279
3881.000000	74.956969
3880.000000	75.014023
3879.000000	75.062479
3878.000000	75.084496
3877.000000	75.094141
3876.000000	75.123356
3875.000000	75.191192
3874.000000	75.276969
3873.000000	75.332729
3872.000000	75.336423
3871.000000	75.323615
3870.000000	75.345260
3869.000000	75.398530
3868.000000	75.435459
3867.000000	75.439754
3866.000000	75.452845
3865.000000	75.509898
3864.000000	75.585494
3863.000000	75.633039
3862.000000	75.647919
3861.000000	75.661324
3860.000000	75.697412
3859.000000	75.760969
3858.000000	75.845086
3857.000000	75.934152
3856.000000	76.004615
3855.000000	76.044446
3854.000000	76.066465
3853.000000	76.081785
3852.000000	76.083139
3851.000000	76.070032
3850.000000	76.063307
3849.000000	76.084890
3848.000000	76.131866
3847.000000	76.185332
3846.000000	76.234683
3845.000000	76.281402
3844.000000	76.329798
3843.000000	76.380498
3842.000000	76.426432
3841.000000	76.462255
3840.000000	76.491607
3839.000000	76.521160
3838.000000	76.552805
3837.000000	76.585242
3836.000000	76.617294
3835.000000	76.648968
3834.000000	76.681099
3833.000000	76.717705
3832.000000	76.761984
3831.000000	76.808090
3830.000000	76.846137
3829.000000	76.874336
3828.000000	76.904043
3827.000000	76.952656
3826.000000	77.019929
3825.000000	77.079672
3824.000000	77.107442
3823.000000	77.116349
3822.000000	77.148055
3821.000000	77.216384
3820.000000	77.280475
3819.000000	77.299752
3818.000000	77.287535
3817.000000	77.297478
3816.000000	77.361582
3815.000000	77.446211
3814.000000	77.499806
3813.000000	77.521767
3812.000000	77.549860
3811.000000	77.602085
3810.000000	77.657718
3809.000000	77.690154
3808.000000	77.708727
3807.000000	77.746593
3806.000000	77.806751
3805.000000	77.856841
3804.000000	77.878808
3803.000000	77.898812
3802.000000	77.951148
3801.000000	78.022094
3800.000000	78.061994
3799.000000	78.057762
3798.000000	78.049903
3797.000000	78.080030
3796.000000	78.145906
3795.000000	78.211771
3794.000000	78.255758
3793.000000	78.288723
3792.000000	78.329340
3791.000000	78.378924
3790.000000	78.426372
3789.000000	78.465937
3788.000000	78.502294
3787.000000	78.541482
3786.000000	78.585387
3785.000000	78.632639
3784.000000	78.678420
3783.000000	78.714660
3782.000000	78.739497
3781.000000	78.763687
3780.000000	78.799760
3779.000000	78.846178
3778.000000	78.889324
3777.000000	78.922067
3776.000000	78.953683
3775.000000	78.998652
3774.000000	79.054994
3773.000000	79.102499
3772.000000	79.129371
3771.000000	79.151035
3770.000000	79.185688
3769.000000	79.226067
3768.000000	79.254829
3767.000000	79.275882
3766.000000	79.312671
3765.000000	79.374046
3764.000000	79.437499
3763.000000	79.476545
3762.000000	79.495820
3761.000000	79.524688
3760.000000	79.574004
3759.000000	79.624603
3758.000000	79.664794
3757.000000	79.705974
3756.000000	79.755116
3755.000000	79.803193
3754.000000	79.843878
3753.000000	79.883379
3752.000000	79.920642
3751.000000	79.942734
3750.000000	79.960002
3749.000000	80.000386
3748.000000	80.055635
3747.000000	80.089122
3746.000000	80.096082
3745.000000	80.121705
3744.000000	80.191109
3743.000000	80.260202
3742.000000	80.289896
3741.000000	80.304254
3740.000000	80.339051
3739.000000	80.388414
3738.000000	80.427003
3737.000000	80.460606
3736.000000	80.516229
3735.000000	80.584782
3734.000000	80.630665
3733.000000	80.654731
3732.000000	80.690145
3731.000000	80.747168
3730.000000	80.802281
3729.000000	80.837222
3728.000000	80.866623
3727.000000	80.916048
3726.000000	80.982250
3725.000000	81.036361
3724.000000	81.068589
3723.000000	81.097568
3722.000000	81.137551
3721.000000	81.184851
3720.000000	81.230400
3719.000000	81.274060
3718.000000	81.324150
3717.000000	81.382755
3716.000000	81.437496
3715.000000	81.475416
3714.000000	81.499703
3713.000000	81.525069
3712.000000	81.556824
3711.000000	81.587240
3710.000000	81.616366
3709.000000	81.655775
3708.000000	81.712644
3707.000000	81.781978
3706.000000	81.850070
3705.000000	81.904933
3704.000000	81.945127
3703.000000	81.979088
3702.000000	82.014772
3701.000000	82.053590
3700.000000	82.092051
3699.000000	82.127664
3698.000000	82.167185
3697.000000	82.220533
3696.000000	82.281442
3695.000000	82.329927
3694.000000	82.359624
3693.000000	82.387743
3692.000000	82.429959
3691.000000	82.477683
3690.000000	82.511005
3689.000000	82.531101
3688.000000	82.559401
3687.000000	82.601098
3686.000000	82.641805
3685.000000	82.677124
3684.000000	82.714552
3683.000000	82.754781
3682.000000	82.790649
3681.000000	82.824510
3680.000000	82.868982
3679.000000	82.915927
3678.000000	82.935350
3677.000000	82.927050
3676.000000	82.937981
3675.000000	82.993099
3674.000000	83.052688
3673.000000	83.072933
3672.000000	83.065822
3671.000000	83.084836
3670.000000	83.150190
3669.000000	83.220620
3668.000000	83.263275
3667.000000	83.290984
3666.000000	83.324646
3665.000000	83.367921
3664.000000	83.410365
3663.000000	83.444646
3662.000000	83.474742
3661.000000	83.506130
3660.000000	83.534939
3659.000000	83.550195
3658.000000	83.550086
3657.000000	83.550987
3656.000000	83.569757
3655.000000	83.598948
3654.000000	83.613510
3653.000000	83.603391
3652.000000	83.588096
3651.000000	83.590763
3650.000000	83.601326
3649.000000	83.592798
3648.000000	83.578744
3647.000000	83.593493
3646.000000	83.635482
3645.000000	83.677601
3644.000000	83.706414
3643.000000	83.729647
3642.000000	83.754817
3641.000000	83.776025
3640.000000	83.786373
3639.000000	83.791852
3638.000000	83.799518
3637.000000	83.802297
3636.000000	83.790793
3635.000000	83.774622
3634.000000	83.771134
3633.000000	83.773470
3632.000000	83.752377
3631.000000	83.697260
3630.000000	83.642893
3629.000000	83.629288
3628.000000	83.646881
3627.000000	83.663850
3626.000000	83.672062
3625.000000	83.683637
3624.000000	83.704585
3623.000000	83.722682
3622.000000	83.721607
3621.000000	83.703184
3620.000000	83.682661
3619.000000	83.666818
3618.000000	83.650885
3617.000000	83.629033
3616.000000	83.599919
3615.000000	83.570246
3614.000000	83.548021
3613.000000	83.530323
3612.000000	83.506502
3611.000000	83.474029
3610.000000	83.447476
3609.000000	83.446456
3608.000000	83.469740
3607.000000	83.495014
3606.000000	83.504767
3605.000000	83.499117
3604.000000	83.487508
3603.000000	83.475824
3602.000000	83.463727
3601.000000	83.451707
3600.000000	83.439944
3599.000000	83.424330
3598.000000	83.402498
3597.000000	83.376630
3596.000000	83.351026
3595.000000	83.329237
3594.000000	83.311604
3593.000000	83.295262
3592.000000	83.275925
3591.000000	83.249587
3590.000000	83.219888
3589.000000	83.200510
3588.000000	83.199296
3587.000000	83.205783
3586.000000	83.205745
3585.000000	83.197727
3584.000000	83.188950
3583.000000	83.184439
3582.000000	83.182821
3581.000000	83.179965
3580.000000	83.173908
3579.000000	83.164650
3578.000000	83.152082
3577.000000	83.135466
3576.000000	83.114530
3575.000000	83.090900
3574.000000	83.067304
3573.000000	83.044860
3572.000000	83.021448
3571.000000	82.991041
3570.000000	82.949249
3569.000000	82.904135
3568.000000	82.871444
3567.000000	82.855344
3566.000000	82.845661
3565.000000	82.835097
3564.000000	82.825451
3563.000000	82.821043
3562.000000	82.820469
3561.000000	82.816510
3560.000000	82.803670
3559.000000	82.782421
3558.000000	82.756488
3557.000000	82.728702
3556.000000	82.700066
3555.000000	82.670827
3554.000000	82.641585
3553.000000	82.612654
3552.000000	82.582786
3551.000000	82.548797
3550.000000	82.507765
3549.000000	82.462674
3548.000000	82.422131
3547.000000	82.391390
3546.000000	82.365883
3545.000000	82.337615
3544.000000	82.304574
3543.000000	82.270286
3542.000000	82.236933
3541.000000	82.203431
3540.000000	82.168540
3539.000000	82.132080
3538.000000	82.094113
3537.000000	82.054381
3536.000000	82.013256
3535.000000	81.972127
3534.000000	81.932640
3533.000000	81.896729
3532.000000	81.865267
3531.000000	81.835603
3530.000000	81.801779
3529.000000	81.760476
3528.000000	81.715494
3527.000000	81.673701
3526.000000	81.638852
3525.000000	81.611408
3524.000000	81.590490
3523.000000	81.572640
3522.000000	81.551640
3521.000000	81.523234
3520.000000	81.489064
3519.000000	81.453250
3518.000000	81.417144
3517.000000	81.379946
3516.000000	81.343201
3515.000000	81.310731
3514.000000	81.282800
3513.000000	81.254347
3512.000000	81.220448
3511.000000	81.180079
3510.000000	81.133704
3509.000000	81.081625
3508.000000	81.025800
3507.000000	80.970820
3506.000000	80.921804
3505.000000	80.881554
3504.000000	80.848140
3503.000000	80.814834
3502.000000	80.774257
3501.000000	80.723742
3500.000000	80.666083
3499.000000	80.604741
3498.000000	80.540557
3497.000000	80.473595
3496.000000	80.406293
3495.000000	80.342543
3494.000000	80.283970
3493.000000	80.228653
3492.000000	80.173107
3491.000000	80.113473
3490.000000	80.045708
3489.000000	79.968106
3488.000000	79.883516
3487.000000	79.797007
3486.000000	79.712387
3485.000000	79.632308
3484.000000	79.559562
3483.000000	79.494562
3482.000000	79.431603
3481.000000	79.361355
3480.000000	79.277558
3479.000000	79.180240
3478.000000	79.073890
3477.000000	78.965360
3476.000000	78.862046
3475.000000	78.768185
3474.000000	78.682849
3473.000000	78.602219
3472.000000	78.522591
3471.000000	78.439759
3470.000000	78.347300
3469.000000	78.239780
3468.000000	78.118114
3467.000000	77.989179
3466.000000	77.860700
3465.000000	77.738143
3464.000000	77.624663
3463.000000	77.519602
3462.000000	77.416552
3461.000000	77.306427
3460.000000	77.183643
3459.000000	77.048743
3458.000000	76.906158
3457.000000	76.761554
3456.000000	76.620896
3455.000000	76.487833
3454.000000	76.361247
3453.000000	76.236904
3452.000000	76.110456
3451.000000	75.977861
3450.000000	75.834904
3449.000000	75.679851
3448.000000	75.516354
3447.000000	75.350910
3446.000000	75.188066
3445.000000	75.029849
3444.000000	74.877322
3443.000000	74.729088
3442.000000	74.579211
3441.000000	74.420684
3440.000000	74.251553
3439.000000	74.075231
3438.000000	73.895174
3437.000000	73.712070
3436.000000	73.526418
3435.000000	73.339711
3434.000000	73.152269
3433.000000	72.962470
3432.000000	72.767538
3431.000000	72.564058
3430.000000	72.348609
3429.000000	72.120672
3428.000000	71.885006
3427.000000	71.648646
3426.000000	71.415995
3425.000000	71.187494
3424.000000	70.961090
3423.000000	70.732642
3422.000000	70.495863
3421.000000	70.245404
3420.000000	69.980755
3419.000000	69.705825
3418.000000	69.425765
3417.000000	69.145343
3416.000000	68.868183
3415.000000	68.594204
3414.000000	68.318111
3413.000000	68.033130
3412.000000	67.735521
3411.000000	67.424511
3410.000000	67.099935
3409.000000	66.762777
3408.000000	66.417325
3407.000000	66.069551
3406.000000	65.723538
3405.000000	65.380193
3404.000000	65.037495
3403.000000	64.690061
3402.000000	64.329666
3401.000000	63.949410
3400.000000	63.548200
3399.000000	63.130636
3398.000000	62.703844
3397.000000	62.274831
3396.000000	61.848231
3395.000000	61.423879
3394.000000	60.996222
3393.000000	60.557800
3392.000000	60.103351
3391.000000	59.630892
3390.000000	59.142065
3389.000000	58.642055
3388.000000	58.137237
3387.000000	57.630845
3386.000000	57.121743
3385.000000	56.608039
3384.000000	56.088759
3383.000000	55.561866
3382.000000	55.023700
3381.000000	54.472152
3380.000000	53.908654
3379.000000	53.335775
3378.000000	52.755380
3377.000000	52.169992
3376.000000	51.582488
3375.000000	50.993040
3374.000000	50.398463
3373.000000	49.795807
3372.000000	49.184487
3371.000000	48.563829
3370.000000	47.932631
3369.000000	47.292231
3368.000000	46.647067
3367.000000	46.000655
3366.000000	45.353141
3365.000000	44.703894
3364.000000	44.052867
3363.000000	43.398493
3362.000000	42.737970
3361.000000	42.071116
3360.000000	41.401308
3359.000000	40.731463
3358.000000	40.062022
3357.000000	39.393712
3356.000000	38.728281
3355.000000	38.065441
3354.000000	37.402517
3353.000000	36.738313
3352.000000	36.074485
3351.000000	35.412638
3350.000000	34.753382
3349.000000	34.098703
3348.000000	33.451620
3347.000000	32.812404
3346.000000	32.178843
3345.000000	31.550473
3344.000000	30.928962
3343.000000	30.314384
3342.000000	29.704873
3341.000000	29.100771
3340.000000	28.505166
3339.000000	27.919957
3338.000000	27.345340
3337.000000	26.782597
3336.000000	26.233540
3335.000000	25.696812
3334.000000	25.168833
3333.000000	24.649097
3332.000000	24.139948
3331.000000	23.641858
3330.000000	23.153066
3329.000000	22.673658
3328.000000	22.206444
3327.000000	21.752938
3326.000000	21.312983
3325.000000	20.887717
3324.000000	20.478156
3323.000000	20.081943
3322.000000	19.695219
3321.000000	19.317741
3320.000000	18.952394
3319.000000	18.599631
3318.000000	18.257950
3317.000000	17.928048
3316.000000	17.612031
3315.000000	17.309011
3314.000000	17.015461
3313.000000	16.730116
3312.000000	16.453925
3311.000000	16.186146
3310.000000	15.925710
3309.000000	15.675041
3308.000000	15.438713
3307.000000	15.218505
3306.000000	15.013641
3305.000000	14.824814
3304.000000	14.651991
3303.000000	14.490507
3302.000000	14.334134
3301.000000	14.181330
3300.000000	14.034538
3299.000000	13.894324
3298.000000	13.759674
3297.000000	13.632487
3296.000000	13.515813
3295.000000	13.408890
3294.000000	13.308610
3293.000000	13.215443
3292.000000	13.132848
3291.000000	13.060933
3290.000000	12.996448
3289.000000	12.937658
3288.000000	12.884831
3287.000000	12.836699
3286.000000	12.790997
3285.000000	12.748502
3284.000000	12.711471
3283.000000	12.679213
3282.000000	12.649440
3281.000000	12.622676
3280.000000	12.601096
3279.000000	12.583849
3278.000000	12.568331
3277.000000	12.554971
3276.000000	12.545873
3275.000000	12.539910
3274.000000	12.533912
3273.000000	12.528227
3272.000000	12.526691
3271.000000	12.531519
3270.000000	12.542307
3269.000000	12.558733
3268.000000	12.579881
3267.000000	12.602155
3266.000000	12.622048
3265.000000	12.640285
3264.000000	12.659558
3263.000000	12.679593
3262.000000	12.698643
3261.000000	12.717805
3260.000000	12.739462
3259.000000	12.762929
3258.000000	12.786121
3257.000000	12.810295
3256.000000	12.838355
3255.000000	12.869697
3254.000000	12.901009
3253.000000	12.931082
3252.000000	12.960626
3251.000000	12.988759
3250.000000	13.014267
3249.000000	13.039397
3248.000000	13.068073
3247.000000	13.100990
3246.000000	13.135961
3245.000000	13.171760
3244.000000	13.208012
3243.000000	13.242875
3242.000000	13.274939
3241.000000	13.306081
3240.000000	13.338780
3239.000000	13.371893
3238.000000	13.402646
3237.000000	13.431004
3236.000000	13.458660
3235.000000	13.485748
3234.000000	13.512372
3233.000000	13.541184
3232.000000	13.574063
3231.000000	13.608126
3230.000000	13.639226
3229.000000	13.667592
3228.000000	13.695916
3227.000000	13.723895
3226.000000	13.749074
3225.000000	13.771484
3224.000000	13.792808
3223.000000	13.812550
3222.000000	13.829254
3221.000000	13.844182
3220.000000	13.859690
3219.000000	13.875165
3218.000000	13.888528
3217.000000	13.900160
3216.000000	13.911443
3215.000000	13.921030
3214.000000	13.926535
3213.000000	13.928704
3212.000000	13.929970
3211.000000	13.930316
3210.000000	13.928238
3209.000000	13.924094
3208.000000	13.918928
3207.000000	13.911531
3206.000000	13.900285
3205.000000	13.886452
3204.000000	13.871978
3203.000000	13.855991
3202.000000	13.836922
3201.000000	13.816051
3200.000000	13.795336
3199.000000	13.773534
3198.000000	13.748330
3197.000000	13.720396
3196.000000	13.691623
3195.000000	13.661384
3194.000000	13.628215
3193.000000	13.593365
3192.000000	13.558940
3191.000000	13.524347
3190.000000	13.488224
3189.000000	13.451714
3188.000000	13.416161
3187.000000	13.379723
3186.000000	13.340067
3185.000000	13.298516
3184.000000	13.257806
3183.000000	13.217794
3182.000000	13.177077
3181.000000	13.136675
3180.000000	13.098247
3179.000000	13.060641
3178.000000	13.021963
3177.000000	12.983156
3176.000000	12.945941
3175.000000	12.909329
3174.000000	12.871860
3173.000000	12.835146
3172.000000	12.801524
3171.000000	12.770306
3170.000000	12.739779
3169.000000	12.710647
3168.000000	12.683971
3167.000000	12.658027
3166.000000	12.631034
3165.000000	12.604718
3164.000000	12.581620
3163.000000	12.561190
3162.000000	12.541924
3161.000000	12.524985
3160.000000	12.511850
3159.000000	12.500762
3158.000000	12.489200
3157.000000	12.477466
3156.000000	12.466645
3155.000000	12.455789
3154.000000	12.445030
3153.000000	12.438804
3152.000000	12.441494
3151.000000	12.451989
3150.000000	12.465995
3149.000000	12.481463
3148.000000	12.498253
3147.000000	12.515036
3146.000000	12.530803
3145.000000	12.547352
3144.000000	12.566504
3143.000000	12.587024
3142.000000	12.607621
3141.000000	12.630792
3140.000000	12.660049
3139.000000	12.695293
3138.000000	12.734300
3137.000000	12.776263
3136.000000	12.820657
3135.000000	12.865241
3134.000000	12.908643
3133.000000	12.953079
3132.000000	13.001185
3131.000000	13.052626
3130.000000	13.106601
3129.000000	13.164513
3128.000000	13.226911
3127.000000	13.290606
3126.000000	13.352470
3125.000000	13.413561
3124.000000	13.476116
3123.000000	13.539568
3122.000000	13.603110
3121.000000	13.669216
3120.000000	13.740677
3119.000000	13.816441
3118.000000	13.894204
3117.000000	13.974626
3116.000000	14.059414
3115.000000	14.147624
3114.000000	14.237159
3113.000000	14.327773
3112.000000	14.419474
3111.000000	14.510713
3110.000000	14.601429
3109.000000	14.695015
3108.000000	14.793885
3107.000000	14.895599
3106.000000	14.996565
3105.000000	15.096946
3104.000000	15.198569
3103.000000	15.301075
3102.000000	15.403880
3101.000000	15.509168
3100.000000	15.619176
3099.000000	15.732493
3098.000000	15.846520
3097.000000	15.961220
3096.000000	16.077151
3095.000000	16.192509
3094.000000	16.305680
3093.000000	16.418638
3092.000000	16.534559
3091.000000	16.653989
3090.000000	16.776096
3089.000000	16.900981
3088.000000	17.027763
3087.000000	17.153194
3086.000000	17.275599
3085.000000	17.397987
3084.000000	17.523975
3083.000000	17.652976
3082.000000	17.782607
3081.000000	17.913191
3080.000000	18.046566
3079.000000	18.182593
3078.000000	18.320156
3077.000000	18.459549
3076.000000	18.600712
3075.000000	18.741328
3074.000000	18.879702
3073.000000	19.017490
3072.000000	19.156721
3071.000000	19.296281
3070.000000	19.434379
3069.000000	19.572217
3068.000000	19.712099
3067.000000	19.853918
3066.000000	19.996403
3065.000000	20.139994
3064.000000	20.285533
3063.000000	20.431965
3062.000000	20.578004
3061.000000	20.724158
3060.000000	20.870742
3059.000000	21.016003
3058.000000	21.158701
3057.000000	21.300498
3056.000000	21.443280
3055.000000	21.586326
3054.000000	21.728591
3053.000000	21.871654
3052.000000	22.017694
3051.000000	22.166338
3050.000000	22.315690
3049.000000	22.464446
3048.000000	22.611057
3047.000000	22.753372
3046.000000	22.891639
3045.000000	23.029703
3044.000000	23.170999
3043.000000	23.315502
3042.000000	23.462341
3041.000000	23.612293
3040.000000	23.764957
3039.000000	23.916279
3038.000000	24.062226
3037.000000	24.203132
3036.000000	24.342136
3035.000000	24.481471
3034.000000	24.622541
3033.000000	24.767046
3032.000000	24.914975
3031.000000	25.063385
3030.000000	25.209627
3029.000000	25.353912
3028.000000	25.496865
3027.000000	25.637260
3026.000000	25.774791
3025.000000	25.912453
3024.000000	26.053152
3023.000000	26.195945
3022.000000	26.338185
3021.000000	26.479284
3020.000000	26.619671
3019.000000	26.758112
3018.000000	26.893149
3017.000000	27.025680
3016.000000	27.157766
3015.000000	27.290425
3014.000000	27.424702
3013.000000	27.562925
3012.000000	27.706285
3011.000000	27.852708
3010.000000	27.999061
3009.000000	28.143893
3008.000000	28.286415
3007.000000	28.425224
3006.000000	28.560320
3005.000000	28.694423
3004.000000	28.830064
3003.000000	28.966805
3002.000000	29.103058
3001.000000	29.238516
3000.000000	29.373130
2999.000000	29.505983
2998.000000	29.637231
2997.000000	29.768946
2996.000000	29.902055
2995.000000	30.034798
2994.000000	30.166293
2993.000000	30.299143
2992.000000	30.435935
2991.000000	30.575291
2990.000000	30.713908
2989.000000	30.850489
2988.000000	30.985283
2987.000000	31.117859
2986.000000	31.248081
2985.000000	31.377656
2984.000000	31.508240
2983.000000	31.639455
2982.000000	31.770839
2981.000000	31.903848
2980.000000	32.039498
2979.000000	32.175713
2978.000000	32.309572
2977.000000	32.440950
2976.000000	32.571893
2975.000000	32.703914
2974.000000	32.837917
2973.000000	32.974993
2972.000000	33.114941
2971.000000	33.255338
2970.000000	33.394147
2969.000000	33.531950
2968.000000	33.669877
2967.000000	33.807280
2966.000000	33.943535
2965.000000	34.080261
2964.000000	34.219314
2963.000000	34.360006
2962.000000	34.500442
2961.000000	34.639857
2960.000000	34.777447
2959.000000	34.910866
2958.000000	35.038206
2957.000000	35.160050
2956.000000	35.277488
2955.000000	35.390155
2954.000000	35.498481
2953.000000	35.605589
2952.000000	35.714234
2951.000000	35.823386
2950.000000	35.930607
2949.000000	36.036247
2948.000000	36.142972
2947.000000	36.252712
2946.000000	36.366482
2945.000000	36.485819
2944.000000	36.611479
2943.000000	36.741528
2942.000000	36.872859
2941.000000	37.003959
2940.000000	37.134660
2939.000000	37.264668
2938.000000	37.394460
2937.000000	37.526372
2936.000000	37.662689
2935.000000	37.803570
2934.000000	37.948403
2933.000000	38.097728
2932.000000	38.251911
2931.000000	38.409495
2930.000000	38.569235
2929.000000	38.732622
2928.000000	38.902544
2927.000000	39.080811
2926.000000	39.268745
2925.000000	39.468545
2924.000000	39.681390
2923.000000	39.905384
2922.000000	40.136913
2921.000000	40.372346
2920.000000	40.605329
2919.000000	40.822795
2918.000000	41.006073
2917.000000	41.136184
2916.000000	41.200281
2915.000000	41.197390
2914.000000	41.141832
2913.000000	41.059670
2912.000000	40.977807
2911.000000	40.913942
2910.000000	40.875146
2909.000000	40.862307
2908.000000	40.873026
2907.000000	40.902807
2906.000000	40.946854
2905.000000	41.001611
2904.000000	41.064041
2903.000000	41.130348
2902.000000	41.197938
2901.000000	41.266260
2900.000000	41.335621
2899.000000	41.405611
2898.000000	41.475552
2897.000000	41.545446
2896.000000	41.614862
2895.000000	41.682559
2894.000000	41.748408
2893.000000	41.814188
2892.000000	41.880857
2891.000000	41.946532
2890.000000	42.008800
2889.000000	42.067614
2888.000000	42.124294
2887.000000	42.179170
2886.000000	42.232054
2885.000000	42.283718
2884.000000	42.334884
2883.000000	42.384696
2882.000000	42.431793
2881.000000	42.475986
2880.000000	42.517541
2879.000000	42.556287
2878.000000	42.593180
2877.000000	42.631423
2876.000000	42.673935
2875.000000	42.720391
2874.000000	42.768568
2873.000000	42.817660
2872.000000	42.868813
2871.000000	42.923586
2870.000000	42.983746
2869.000000	43.051789
2868.000000	43.129639
2867.000000	43.217323
2866.000000	43.314348
2865.000000	43.421442
2864.000000	43.539529
2863.000000	43.667834
2862.000000	43.804450
2861.000000	43.947963
2860.000000	44.097395
2859.000000	44.252078
2858.000000	44.413472
2857.000000	44.586470
2856.000000	44.777629
2855.000000	44.992871
2854.000000	45.236594
2853.000000	45.508724
2852.000000	45.797178
2851.000000	46.071783
2850.000000	46.290789
2849.000000	46.419272
2848.000000	46.447248
2847.000000	46.394987
2846.000000	46.302095
2845.000000	46.208756
2844.000000	46.141275
2843.000000	46.108464
2842.000000	46.107662
2841.000000	46.132435
2840.000000	46.175391
2839.000000	46.228975
2838.000000	46.287782
2837.000000	46.350054
2836.000000	46.415993
2835.000000	46.485343
2834.000000	46.557371
2833.000000	46.631967
2832.000000	46.709132
2831.000000	46.787805
2830.000000	46.866626
2829.000000	46.945215
2828.000000	47.023601
2827.000000	47.101261
2826.000000	47.177851
2825.000000	47.254161
2824.000000	47.331107
2823.000000	47.408478
2822.000000	47.485807
2821.000000	47.563603
2820.000000	47.642417
2819.000000	47.721469
2818.000000	47.799517
2817.000000	47.876485
2816.000000	47.953042
2815.000000	48.029242
2814.000000	48.104860
2813.000000	48.180441
2812.000000	48.256764
2811.000000	48.333738
2810.000000	48.410914
2809.000000	48.488448
2808.000000	48.566475
2807.000000	48.644201
2806.000000	48.720788
2805.000000	48.796552
2804.000000	48.872156
2803.000000	48.947304
2802.000000	49.021465
2801.000000	49.095258
2800.000000	49.169839
2799.000000	49.245321
2798.000000	49.320908
2797.000000	49.396087
2796.000000	49.470593
2795.000000	49.543765
2794.000000	49.615136
2793.000000	49.685265
2792.000000	49.755006
2791.000000	49.824466
2790.000000	49.893635
2789.000000	49.963289
2788.000000	50.034025
2787.000000	50.104975
2786.000000	50.174690
2785.000000	50.242829
2784.000000	50.309877
2783.000000	50.375861
2782.000000	50.440581
2781.000000	50.504618
2780.000000	50.568740
2779.000000	50.632723
2778.000000	50.696009
2777.000000	50.759110
2776.000000	50.823095
2775.000000	50.887920
2774.000000	50.952452
2773.000000	51.015909
2772.000000	51.078170
2771.000000	51.139054
2770.000000	51.198528
2769.000000	51.257431
2768.000000	51.316896
2767.000000	51.377143
2766.000000	51.437700
2765.000000	51.498433
2764.000000	51.559339
2763.000000	51.619736
2762.000000	51.678785
2761.000000	51.736580
2760.000000	51.793754
2759.000000	51.850419
2758.000000	51.906514
2757.000000	51.962735
2756.000000	52.019920
2755.000000	52.077795
2754.000000	52.135369
2753.000000	52.192241
2752.000000	52.248388
2751.000000	52.303141
2750.000000	52.355749
2749.000000	52.406798
2748.000000	52.457868
2747.000000	52.509835
2746.000000	52.562548
2745.000000	52.615896
2744.000000	52.669916
2743.000000	52.723957
2742.000000	52.776879
2741.000000	52.828113
2740.000000	52.877666
2739.000000	52.925357
2738.000000	52.971213
2737.000000	53.016416
2736.000000	53.062641
2735.000000	53.110404
2734.000000	53.158908
2733.000000	53.207298
2732.000000	53.254952
2731.000000	53.300805
2730.000000	53.343803
2729.000000	53.384182
2728.000000	53.423367
2727.000000	53.462570
2726.000000	53.502355
2725.000000	53.543336
2724.000000	53.586024
2723.000000	53.629876
2722.000000	53.673488
2721.000000	53.715799
2720.000000	53.756382
2719.000000	53.794868
2718.000000	53.831289
2717.000000	53.867014
2716.000000	53.904187
2715.000000	53.944020
2714.000000	53.986252
2713.000000	54.029945
2712.000000	54.073702
2711.000000	54.115328
2710.000000	54.152750
2709.000000	54.185614
2708.000000	54.215280
2707.000000	54.243381
2706.000000	54.271175
2705.000000	54.299984
2704.000000	54.330698
2703.000000	54.362544
2702.000000	54.393356
2701.000000	54.421145
2700.000000	54.444827
2699.000000	54.463794
2698.000000	54.478123
2697.000000	54.489440
2696.000000	54.500234
2695.000000	54.512073
2694.000000	54.525091
2693.000000	54.538883
2692.000000	54.552721
2691.000000	54.564868
2690.000000	54.573192
2689.000000	54.576950
2688.000000	54.577147
2687.000000	54.575245
2686.000000	54.572483
2685.000000	54.570395
2684.000000	54.570540
2683.000000	54.573052
2682.000000	54.576311
2681.000000	54.578247
2680.000000	54.577408
2679.000000	54.573061
2678.000000	54.565507
2677.000000	54.556627
2676.000000	54.549189
2675.000000	54.545234
2674.000000	54.545528
2673.000000	54.550209
2672.000000	54.558776
2671.000000	54.569741
2670.000000	54.581576
2669.000000	54.594374
2668.000000	54.610048
2667.000000	54.630747
2666.000000	54.658077
2665.000000	54.693500
2664.000000	54.737825
2663.000000	54.790200
2662.000000	54.848158
2661.000000	54.909034
2660.000000	54.970898
2659.000000	55.032315
2658.000000	55.092783
2657.000000	55.153414
2656.000000	55.216226
2655.000000	55.282481
2654.000000	55.352003
2653.000000	55.423908
2652.000000	55.496849
2651.000000	55.568582
2650.000000	55.636597
2649.000000	55.699710
2648.000000	55.758524
2647.000000	55.814449
2646.000000	55.869073
2645.000000	55.924176
2644.000000	55.981062
2643.000000	56.039232
2642.000000	56.096521
2641.000000	56.150727
2640.000000	56.200407
2639.000000	56.244608
2638.000000	56.283097
2637.000000	56.317280
2636.000000	56.349947
2635.000000	56.383454
2634.000000	56.418707
2633.000000	56.455472
2632.000000	56.492529
2631.000000	56.527589
2630.000000	56.558268
2629.000000	56.583850
2628.000000	56.605406
2627.000000	56.624286
2626.000000	56.641619
2625.000000	56.658969
2624.000000	56.678002
2623.000000	56.698841
2622.000000	56.719737
2621.000000	56.738810
2620.000000	56.755130
2619.000000	56.768182
2618.000000	56.777683
2617.000000	56.784495
2616.000000	56.790718
2615.000000	56.798141
2614.000000	56.807256
2613.000000	56.817762
2612.000000	56.828772
2611.000000	56.838292
2610.000000	56.843589
2609.000000	56.842976
2608.000000	56.836742
2607.000000	56.826101
2606.000000	56.812279
2605.000000	56.796431
2604.000000	56.779253
2603.000000	56.760190
2602.000000	56.737762
2601.000000	56.711304
2600.000000	56.681422
2599.000000	56.648796
2598.000000	56.613831
2597.000000	56.577717
2596.000000	56.542800
2595.000000	56.511476
2594.000000	56.485571
2593.000000	56.466785
2592.000000	56.456759
2591.000000	56.456025
2590.000000	56.464155
2589.000000	56.481283
2588.000000	56.508177
2587.000000	56.545224
2586.000000	56.591788
2585.000000	56.647014
2584.000000	56.710332
2583.000000	56.780346
2582.000000	56.854932
2581.000000	56.932501
2580.000000	57.012550
2579.000000	57.094935
2578.000000	57.179123
2577.000000	57.264839
2576.000000	57.352220
2575.000000	57.440949
2574.000000	57.530152
2573.000000	57.619299
2572.000000	57.708520
2571.000000	57.797728
2570.000000	57.886440
2569.000000	57.974900
2568.000000	58.064303
2567.000000	58.155400
2566.000000	58.247656
2565.000000	58.340073
2564.000000	58.431828
2563.000000	58.521669
2562.000000	58.607884
2561.000000	58.689783
2560.000000	58.768623
2559.000000	58.846318
2558.000000	58.923988
2557.000000	59.001959
2556.000000	59.080097
2555.000000	59.157417
2554.000000	59.231964
2553.000000	59.302092
2552.000000	59.367356
2551.000000	59.427948
2550.000000	59.484456
2549.000000	59.538468
2548.000000	59.592479
2547.000000	59.648071
2546.000000	59.704611
2545.000000	59.760299
2544.000000	59.813232
2543.000000	59.861275
2542.000000	59.902194
2541.000000	59.935045
2540.000000	59.961197
2539.000000	59.982857
2538.000000	60.001481
2537.000000	60.017786
2536.000000	60.031717
2535.000000	60.041748
2534.000000	60.044491
2533.000000	60.036428
2532.000000	60.015835
2531.000000	59.982618
2530.000000	59.938243
2529.000000	59.886183
2528.000000	59.831579
2527.000000	59.779245
2526.000000	59.731976
2525.000000	59.691093
2524.000000	59.657198
2523.000000	59.629873
2522.000000	59.607954
2521.000000	59.591660
2520.000000	59.583489
2519.000000	59.586911
2518.000000	59.604758
2517.000000	59.638519
2516.000000	59.688416
2515.000000	59.752135
2514.000000	59.824847
2513.000000	59.901534
2512.000000	59.978632
2511.000000	60.054279
2510.000000	60.127797
2509.000000	60.200115
2508.000000	60.273704
2507.000000	60.350665
2506.000000	60.431344
2505.000000	60.514670
2504.000000	60.598668
2503.000000	60.680089
2502.000000	60.755064
2501.000000	60.821415
2500.000000	60.880085
2499.000000	60.933836
2498.000000	60.985438
2497.000000	61.037695
2496.000000	61.093198
2495.000000	61.152514
2494.000000	61.213131
2493.000000	61.271128
2492.000000	61.323660
2491.000000	61.369385
2490.000000	61.408153
2489.000000	61.441689
2488.000000	61.473586
2487.000000	61.507408
2486.000000	61.544793
2485.000000	61.585637
2484.000000	61.628846
2483.000000	61.671890
2482.000000	61.711131
2481.000000	61.744029
2480.000000	61.770797
2479.000000	61.793516
2478.000000	61.814624
2477.000000	61.836932
2476.000000	61.863257
2475.000000	61.894399
2474.000000	61.928195
2473.000000	61.961488
2472.000000	61.992227
2471.000000	62.019155
2470.000000	62.041174
2469.000000	62.058715
2468.000000	62.074741
2467.000000	62.092873
2466.000000	62.114965
2465.000000	62.141038
2464.000000	62.170214
2463.000000	62.200361
2462.000000	62.228133
2461.000000	62.251089
2460.000000	62.269454
2459.000000	62.285126
2458.000000	62.299990
2457.000000	62.316060
2456.000000	62.335657
2455.000000	62.359701
2454.000000	62.386514
2453.000000	62.413376
2452.000000	62.438512
2451.000000	62.460853
2450.000000	62.479415
2449.000000	62.494565
2448.000000	62.508942
2447.000000	62.525624
2446.000000	62.545894
2445.000000	62.569519
2444.000000	62.595821
2443.000000	62.623207
2442.000000	62.648868
2441.000000	62.670641
2440.000000	62.688656
2439.000000	62.704332
2438.000000	62.719002
2437.000000	62.734467
2436.000000	62.753304
2435.000000	62.776809
2434.000000	62.803369
2433.000000	62.830102
2432.000000	62.855229
2431.000000	62.877879
2430.000000	62.897128
2429.000000	62.913044
2428.000000	62.927836
2427.000000	62.944422
2426.000000	62.964357
2425.000000	62.987892
2424.000000	63.014651
2423.000000	63.042933
2422.000000	63.069552
2421.000000	63.092063
2420.000000	63.110601
2419.000000	63.126782
2418.000000	63.142083
2417.000000	63.158300
2416.000000	63.177887
2415.000000	63.202032
2414.000000	63.229215
2413.000000	63.256820
2412.000000	63.283078
2411.000000	63.306582
2410.000000	63.325765
2409.000000	63.340674
2408.000000	63.354112
2407.000000	63.369446
2406.000000	63.388146
2405.000000	63.410352
2404.000000	63.436085
2403.000000	63.464265
2402.000000	63.492009
2401.000000	63.516682
2400.000000	63.537883
2399.000000	63.556505
2398.000000	63.573433
2397.000000	63.590509
2396.000000	63.610931
2395.000000	63.636738
2394.000000	63.666876
2393.000000	63.699033
2392.000000	63.731693
2391.000000	63.763420
2390.000000	63.792366
2389.000000	63.818145
2388.000000	63.843516
2387.000000	63.871667
2386.000000	63.903902
2385.000000	63.941264
2384.000000	63.985007
2383.000000	64.035389
2382.000000	64.089553
2381.000000	64.144138
2380.000000	64.198488
2379.000000	64.252269
2378.000000	64.304212
2377.000000	64.354262
2376.000000	64.405176
2375.000000	64.459338
2374.000000	64.516352
2373.000000	64.575321
2372.000000	64.636954
2371.000000	64.700605
2370.000000	64.761107
2369.000000	64.815497
2368.000000	64.866168
2367.000000	64.915981
2366.000000	64.964528
2365.000000	65.012264
2364.000000	65.065983
2363.000000	65.124992
2362.000000	65.182158
2361.000000	65.238361
2360.000000	65.294315
2359.000000	65.352946
2358.000000	65.409826
2357.000000	65.460065
2356.000000	65.507083
2355.000000	65.548949
2354.000000	65.590633
2353.000000	65.637607
2352.000000	65.698683
2351.000000	65.773382
2350.000000	65.839951
2349.000000	65.888104
2348.000000	65.924045
2347.000000	65.976768
2346.000000	66.056931
2345.000000	66.140278
2344.000000	66.205267
2343.000000	66.245293
2342.000000	66.280603
2341.000000	66.321286
2340.000000	66.367257
2339.000000	66.416139
2338.000000	66.467467
2337.000000	66.521132
2336.000000	66.577281
2335.000000	66.634091
2334.000000	66.692756
2333.000000	66.750959
2332.000000	66.807306
2331.000000	66.864465
2330.000000	66.919159
2329.000000	66.977551
2328.000000	67.034752
2327.000000	67.092392
2326.000000	67.149095
2325.000000	67.202152
2324.000000	67.255509
2323.000000	67.304842
2322.000000	67.352369
2321.000000	67.394310
2320.000000	67.435416
2319.000000	67.479811
2318.000000	67.529612
2317.000000	67.583888
2316.000000	67.639893
2315.000000	67.697750
2314.000000	67.753833
2313.000000	67.805742
2312.000000	67.851565
2311.000000	67.895358
2310.000000	67.940412
2309.000000	67.989064
2308.000000	68.042142
2307.000000	68.099659
2306.000000	68.159709
2305.000000	68.217781
2304.000000	68.271811
2303.000000	68.321320
2302.000000	68.366719
2301.000000	68.409108
2300.000000	68.451882
2299.000000	68.500524
2298.000000	68.556301
2297.000000	68.617160
2296.000000	68.678800
2295.000000	68.738229
2294.000000	68.791695
2293.000000	68.836664
2292.000000	68.874540
2291.000000	68.910108
2290.000000	68.947977
2289.000000	68.990369
2288.000000	69.039141
2287.000000	69.094536
2286.000000	69.153660
2285.000000	69.210863
2284.000000	69.262563
2283.000000	69.307779
2282.000000	69.346779
2281.000000	69.380818
2280.000000	69.414411
2279.000000	69.453400
2278.000000	69.500529
2277.000000	69.554287
2276.000000	69.611330
2275.000000	69.667819
2274.000000	69.718255
2273.000000	69.758119
2272.000000	69.787684
2271.000000	69.811893
2270.000000	69.836163
2269.000000	69.864485
2268.000000	69.900451
2267.000000	69.945794
2266.000000	69.997198
2265.000000	70.047737
2264.000000	70.091324
2263.000000	70.124996
2262.000000	70.147761
2261.000000	70.161233
2260.000000	70.171718
2259.000000	70.187039
2258.000000	70.211570
2257.000000	70.244571
2256.000000	70.283225
2255.000000	70.323216
2254.000000	70.357669
2253.000000	70.380045
2252.000000	70.389071
2251.000000	70.389145
2250.000000	70.386161
2249.000000	70.385084
2248.000000	70.390821
2247.000000	70.406537
2246.000000	70.429448
2245.000000	70.452161
2244.000000	70.467705
2243.000000	70.472043
2242.000000	70.463197
2241.000000	70.442291
2240.000000	70.415521
2239.000000	70.391486
2238.000000	70.375618
2237.000000	70.368495
2236.000000	70.368116
2235.000000	70.370218
2234.000000	70.367424
2233.000000	70.352495
2232.000000	70.323686
2231.000000	70.285087
2230.000000	70.242440
2229.000000	70.201307
2228.000000	70.167637
2227.000000	70.145370
2226.000000	70.132578
2225.000000	70.122491
2224.000000	70.108489
2223.000000	70.086329
2222.000000	70.053393
2221.000000	70.010141
2220.000000	69.962368
2219.000000	69.918632
2218.000000	69.884688
2217.000000	69.861933
2216.000000	69.849467
2215.000000	69.843975
2214.000000	69.838403
2213.000000	69.825112
2212.000000	69.801492
2211.000000	69.770597
2210.000000	69.737285
2209.000000	69.706631
2208.000000	69.684581
2207.000000	69.675585
2206.000000	69.678598
2205.000000	69.687816
2204.000000	69.697203
2203.000000	69.702231
2202.000000	69.699164
2201.000000	69.687075
2200.000000	69.670775
2199.000000	69.658343
2198.000000	69.655188
2197.000000	69.662413
2196.000000	69.679217
2195.000000	69.702983
2194.000000	69.727583
2193.000000	69.745801
2192.000000	69.754583
2191.000000	69.755815
2190.000000	69.752961
2189.000000	69.749956
2188.000000	69.752121
2187.000000	69.763684
2186.000000	69.783612
2185.000000	69.806524
2184.000000	69.827362
2183.000000	69.842804
2182.000000	69.849723
2181.000000	69.846762
2180.000000	69.837548
2179.000000	69.828831
2178.000000	69.825059
2177.000000	69.827059
2176.000000	69.834560
2175.000000	69.846136
2174.000000	69.857223
2173.000000	69.862256
2172.000000	69.859503
2171.000000	69.851284
2170.000000	69.840355
2169.000000	69.829304
2168.000000	69.822247
2167.000000	69.822798
2166.000000	69.830035
2165.000000	69.839483
2164.000000	69.847744
2163.000000	69.853436
2162.000000	69.854888
2161.000000	69.851138
2160.000000	69.844996
2159.000000	69.841386
2158.000000	69.842568
2157.000000	69.847817
2156.000000	69.856653
2155.000000	69.868579
2154.000000	69.880267
2153.000000	69.887263
2152.000000	69.888753
2151.000000	69.887399
2150.000000	69.885144
2149.000000	69.882708
2148.000000	69.882216
2147.000000	69.886166
2146.000000	69.893743
2145.000000	69.901245
2144.000000	69.906452
2143.000000	69.909306
2142.000000	69.908950
2141.000000	69.904353
2140.000000	69.897685
2139.000000	69.893207
2138.000000	69.892589
2137.000000	69.894485
2136.000000	69.898021
2135.000000	69.902996
2134.000000	69.907108
2133.000000	69.907268
2132.000000	69.903914
2131.000000	69.900647
2130.000000	69.899805
2129.000000	69.901729
2128.000000	69.907397
2127.000000	69.917693
2126.000000	69.930239
2125.000000	69.940691
2124.000000	69.947343
2123.000000	69.951511
2122.000000	69.954116
2121.000000	69.955626
2120.000000	69.958872
2119.000000	69.967514
2118.000000	69.981540
2117.000000	69.997694
2116.000000	70.014019
2115.000000	70.030506
2114.000000	70.046077
2113.000000	70.059276
2112.000000	70.072029
2111.000000	70.088755
2110.000000	70.111736
2109.000000	70.140704
2108.000000	70.176022
2107.000000	70.218183
2106.000000	70.264319
2105.000000	70.309970
2104.000000	70.354085
2103.000000	70.398963
2102.000000	70.446062
2101.000000	70.495413
2100.000000	70.549372
2099.000000	70.610987
2098.000000	70.679338
2097.000000	70.750579
2096.000000	70.822355
2095.000000	70.894071
2094.000000	70.963264
2093.000000	71.026683
2092.000000	71.085040
2091.000000	71.142511
2090.000000	71.201533
2089.000000	71.261804
2088.000000	71.323397
2087.000000	71.386104
2086.000000	71.446006
2085.000000	71.497667
2084.000000	71.539913
2083.000000	71.575417
2082.000000	71.605579
2081.000000	71.630123
2080.000000	71.651564
2079.000000	71.673402
2078.000000	71.694704
2077.000000	71.711309
2076.000000	71.720727
2075.000000	71.724139
2074.000000	71.721475
2073.000000	71.711754
2072.000000	71.698746
2071.000000	71.688759
2070.000000	71.683616
2069.000000	71.679644
2068.000000	71.674012
2067.000000	71.666607
2066.000000	71.656586
2065.000000	71.643125
2064.000000	71.629693
2063.000000	71.622133
2062.000000	71.622266
2061.000000	71.627745
2060.000000	71.637871
2059.000000	71.654652
2058.000000	71.677632
2057.000000	71.703022
2056.000000	71.728535
2055.000000	71.755576
2054.000000	71.785148
2053.000000	71.816838
2052.000000	71.853223
2051.000000	71.898818
2050.000000	71.953564
2049.000000	72.013686
2048.000000	72.078301
2047.000000	72.148576
2046.000000	72.222279
2045.000000	72.294696
2044.000000	72.365410
2043.000000	72.438724
2042.000000	72.517879
2041.000000	72.603967
2040.000000	72.699057
2039.000000	72.804599
2038.000000	72.916592
2037.000000	73.027838
2036.000000	73.135721
2035.000000	73.242786
2034.000000	73.351173
2033.000000	73.461453
2032.000000	73.576065
2031.000000	73.698927
2030.000000	73.828564
2029.000000	73.959820
2028.000000	74.089366
2027.000000	74.217056
2026.000000	74.340852
2025.000000	74.457559
2024.000000	74.571699
2023.000000	74.691257
2022.000000	74.817465
2021.000000	74.943953
2020.000000	75.066114
2019.000000	75.183607
2018.000000	75.295247
2017.000000	75.399459
2016.000000	75.499228
2015.000000	75.600089
2014.000000	75.702982
2013.000000	75.804653
2012.000000	75.904545
2011.000000	76.005675
2010.000000	76.107878
2009.000000	76.207785
2008.000000	76.302905
2007.000000	76.393772
2006.000000	76.479584
2005.000000	76.557473
2004.000000	76.630869
2003.000000	76.704118
2002.000000	76.779815
2001.000000	76.855502
2000.000000	76.929098
1999.000000	77.006606
1998.000000	77.090403
1997.000000	77.172262
1996.000000	77.241779
1995.000000	77.297776
1994.000000	77.345046
1993.000000	77.388659
1992.000000	77.434405
1991.000000	77.486903
1990.000000	77.544324
1989.000000	77.601986
1988.000000	77.658305
1987.000000	77.713000
1986.000000	77.763832
1985.000000	77.809194
1984.000000	77.853181
1983.000000	77.898890
1982.000000	77.946331
1981.000000	77.992562
1980.000000	78.036735
1979.000000	78.082118
1978.000000	78.126325
1977.000000	78.164027
1976.000000	78.195873
1975.000000	78.229707
1974.000000	78.269872
1973.000000	78.314555
1972.000000	78.362121
1971.000000	78.411327
1970.000000	78.454687
1969.000000	78.482625
1968.000000	78.496341
1967.000000	78.508020
1966.000000	78.525792
1965.000000	78.549689
1964.000000	78.580958
1963.000000	78.620917
1962.000000	78.662866
1961.000000	78.697264
1960.000000	78.724742
1959.000000	78.751157
1958.000000	78.774340
1957.000000	78.789130
1956.000000	78.799403
1955.000000	78.816668
1954.000000	78.842033
1953.000000	78.870484
1952.000000	78.903618
1951.000000	78.940299
1950.000000	78.975253
1949.000000	79.005521
1948.000000	79.032891
1947.000000	79.055015
1946.000000	79.062239
1945.000000	79.053459
1944.000000	79.043374
1943.000000	79.047571
1942.000000	79.066266
1941.000000	79.087433
1940.000000	79.107260
1939.000000	79.130744
1938.000000	79.151805
1937.000000	79.158087
1936.000000	79.154034
1935.000000	79.158727
1934.000000	79.174901
1933.000000	79.193937
1932.000000	79.214699
1931.000000	79.234615
1930.000000	79.253034
1929.000000	79.264084
1928.000000	79.272121
1927.000000	79.279754
1926.000000	79.277857
1925.000000	79.271853
1924.000000	79.272693
1923.000000	79.280908
1922.000000	79.278468
1921.000000	79.253023
1920.000000	79.227466
1919.000000	79.223777
1918.000000	79.224761
1917.000000	79.208586
1916.000000	79.183426
1915.000000	79.178999
1914.000000	79.202119
1913.000000	79.230264
1912.000000	79.244053
1911.000000	79.240880
1910.000000	79.226227
1909.000000	79.193694
1908.000000	79.150705
1907.000000	79.115801
1906.000000	79.092185
1905.000000	79.079840
1904.000000	79.075361
1903.000000	79.078374
1902.000000	79.091315
1901.000000	79.106271
1900.000000	79.116040
1899.000000	79.118020
1898.000000	79.104503
1897.000000	79.078454
1896.000000	79.056801
1895.000000	79.055916
1894.000000	79.069880
1893.000000	79.079491
1892.000000	79.081730
1891.000000	79.086155
1890.000000	79.091240
1889.000000	79.088501
1888.000000	79.076715
1887.000000	79.066393
1886.000000	79.066598
1885.000000	79.074886
1884.000000	79.085859
1883.000000	79.100636
1882.000000	79.122984
1881.000000	79.140971
1880.000000	79.142674
1879.000000	79.134757
1878.000000	79.120472
1877.000000	79.100875
1876.000000	79.093971
1875.000000	79.116290
1874.000000	79.154398
1873.000000	79.176079
1872.000000	79.172832
1871.000000	79.165272
1870.000000	79.151405
1869.000000	79.107964
1868.000000	79.044364
1867.000000	78.992857
1866.000000	78.971642
1865.000000	78.977619
1864.000000	78.995585
1863.000000	79.012136
1862.000000	79.020423
1861.000000	79.015046
1860.000000	78.993240
1859.000000	78.961098
1858.000000	78.927230
1857.000000	78.894417
1856.000000	78.867786
1855.000000	78.851342
1854.000000	78.854854
1853.000000	78.866971
1852.000000	78.866828
1851.000000	78.869114
1850.000000	78.881809
1849.000000	78.876867
1848.000000	78.816341
1847.000000	78.716844
1846.000000	78.645882
1845.000000	78.631872
1844.000000	78.633042
1843.000000	78.610712
1842.000000	78.567616
1841.000000	78.523605
1840.000000	78.494982
1839.000000	78.464099
1838.000000	78.405598
1837.000000	78.340888
1836.000000	78.306107
1835.000000	78.300979
1834.000000	78.291781
1833.000000	78.248788
1832.000000	78.193167
1831.000000	78.156256
1830.000000	78.114577
1829.000000	78.032702
1828.000000	77.911017
1827.000000	77.804080
1826.000000	77.751642
1825.000000	77.730067
1824.000000	77.708249
1823.000000	77.684207
1822.000000	77.662781
1821.000000	77.627713
1820.000000	77.568256
1819.000000	77.492232
1818.000000	77.413177
1817.000000	77.352776
1816.000000	77.316347
1815.000000	77.297255
1814.000000	77.274303
1813.000000	77.225989
1812.000000	77.161148
1811.000000	77.087932
1810.000000	77.006235
1809.000000	76.922798
1808.000000	76.852656
1807.000000	76.807102
1806.000000	76.777056
1805.000000	76.747427
1804.000000	76.699293
1803.000000	76.632266
1802.000000	76.554905
1801.000000	76.474370
1800.000000	76.415764
1799.000000	76.386164
1798.000000	76.369749
1797.000000	76.341919
1796.000000	76.283872
1795.000000	76.210967
1794.000000	76.149445
1793.000000	76.081959
1792.000000	75.996846
1791.000000	75.917492
1790.000000	75.854524
1789.000000	75.793983
1788.000000	75.730024
1787.000000	75.672321
1786.000000	75.633430
1785.000000	75.620441
1784.000000	75.602385
1783.000000	75.565424
1782.000000	75.521512
1781.000000	75.461876
1780.000000	75.395134
1779.000000	75.339535
1778.000000	75.324174
1777.000000	75.341202
1776.000000	75.343957
1775.000000	75.322231
1774.000000	75.303288
1773.000000	75.249563
1772.000000	75.122064
1771.000000	74.956471
1770.000000	74.790077
1769.000000	74.670275
1768.000000	74.622167
1767.000000	74.614182
1766.000000	74.586916
1765.000000	74.516761
1764.000000	74.441901
1763.000000	74.404494
1762.000000	74.380763
1761.000000	74.321058
1760.000000	74.209227
1759.000000	74.069816
1758.000000	73.974849
1757.000000	73.941607
1756.000000	73.940013
1755.000000	73.939945
1754.000000	73.924336
1753.000000	73.886881
1752.000000	73.816085
1751.000000	73.689423
1750.000000	73.520394
1749.000000	73.366468
1748.000000	73.253805
1747.000000	73.187065
1746.000000	73.135158
1745.000000	73.059293
1744.000000	72.957085
1743.000000	72.834038
1742.000000	72.694424
1741.000000	72.580691
1740.000000	72.530035
1739.000000	72.510228
1738.000000	72.456383
1737.000000	72.340956
1736.000000	72.264759
1735.000000	72.240003
1734.000000	72.100214
1733.000000	71.801729
1732.000000	71.443456
1731.000000	71.134081
1730.000000	70.922343
1729.000000	70.763684
1728.000000	70.607712
1727.000000	70.461325
1726.000000	70.318196
1725.000000	70.152024
1724.000000	69.979929
1723.000000	69.819729
1722.000000	69.669117
1721.000000	69.524705
1720.000000	69.429652
1719.000000	69.348434
1718.000000	69.116741
1717.000000	68.710722
1716.000000	68.277472
1715.000000	67.929506
1714.000000	67.672095
1713.000000	67.446728
1712.000000	67.213908
1711.000000	66.981416
1710.000000	66.756817
1709.000000	66.504319
1708.000000	66.219336
1707.000000	65.959322
1706.000000	65.747299
1705.000000	65.547103
1704.000000	65.284445
1703.000000	64.938438
1702.000000	64.686763
1701.000000	64.591553
1700.000000	64.451378
1699.000000	64.187071
1698.000000	63.823061
1697.000000	63.437641
1696.000000	63.081825
1695.000000	62.703135
1694.000000	62.297163
1693.000000	61.911660
1692.000000	61.583226
1691.000000	61.295785
1690.000000	61.041452
1689.000000	60.833101
1688.000000	60.656417
1687.000000	60.461455
1686.000000	60.205534
1685.000000	59.780120
1684.000000	59.187695
1683.000000	58.650005
1682.000000	58.230940
1681.000000	57.879522
1680.000000	57.556599
1679.000000	57.227467
1678.000000	56.881487
1677.000000	56.547067
1676.000000	56.242459
1675.000000	55.945663
1674.000000	55.625591
1673.000000	55.256369
1672.000000	54.866575
1671.000000	54.480253
1670.000000	54.091947
1669.000000	53.712654
1668.000000	53.370735
1667.000000	53.069947
1666.000000	52.773515
1665.000000	52.457531
1664.000000	52.116121
1663.000000	51.747074
1662.000000	51.380462
1661.000000	51.027970
1660.000000	50.706010
1659.000000	50.449842
1658.000000	50.267867
1657.000000	50.105372
1656.000000	49.920128
1655.000000	49.753776
1654.000000	49.508904
1653.000000	49.099890
1652.000000	48.635332
1651.000000	48.176912
1650.000000	47.777524
1649.000000	47.458649
1648.000000	47.144510
1647.000000	46.803625
1646.000000	46.485932
1645.000000	46.191847
1644.000000	45.890196
1643.000000	45.601192
1642.000000	45.353763
1641.000000	45.128864
1640.000000	44.909888
1639.000000	44.692975
1638.000000	44.472518
1637.000000	44.208751
1636.000000	43.893835
1635.000000	43.610276
1634.000000	43.372779
1633.000000	43.145736
1632.000000	42.920827
1631.000000	42.710051
1630.000000	42.516205
1629.000000	42.331448
1628.000000	42.150845
1627.000000	41.981996
1626.000000	41.821544
1625.000000	41.656000
1624.000000	41.486172
1623.000000	41.336206
1622.000000	41.231196
1621.000000	41.155814
1620.000000	41.097537
1619.000000	41.064804
1618.000000	41.038463
1617.000000	40.958326
1616.000000	40.812090
1615.000000	40.659130
1614.000000	40.544512
1613.000000	40.475995
1612.000000	40.436884
1611.000000	40.414498
1610.000000	40.408165
1609.000000	40.412307
1608.000000	40.420089
1607.000000	40.438640
1606.000000	40.475750
1605.000000	40.510871
1604.000000	40.531992
1603.000000	40.555252
1602.000000	40.594814
1601.000000	40.644622
1600.000000	40.700100
1599.000000	40.771961
1598.000000	40.858681
1597.000000	40.938484
1596.000000	40.999930
1595.000000	41.055507
1594.000000	41.116020
1593.000000	41.173501
1592.000000	41.224206
1591.000000	41.282342
1590.000000	41.358007
1589.000000	41.439611
1588.000000	41.517617
1587.000000	41.594305
1586.000000	41.674090
1585.000000	41.744420
1584.000000	41.793070
1583.000000	41.846622
1582.000000	41.936255
1581.000000	42.059344
1580.000000	42.197206
1579.000000	42.348419
1578.000000	42.498496
1577.000000	42.597053
1576.000000	42.612220
1575.000000	42.576360
1574.000000	42.526758
1573.000000	42.477064
1572.000000	42.456559
1571.000000	42.484556
1570.000000	42.551730
1569.000000	42.629504
1568.000000	42.687975
1567.000000	42.735217
1566.000000	42.812549
1565.000000	42.938933
1564.000000	43.088044
1563.000000	43.230842
1562.000000	43.326485
1561.000000	43.451279
1560.000000	43.550414
1559.000000	43.580482
1558.000000	43.706957
1557.000000	43.824236
1556.000000	43.871705
1555.000000	43.949982
1554.000000	44.078565
1553.000000	44.190900
1552.000000	44.275192
1551.000000	44.395483
1550.000000	44.590074
1549.000000	44.835310
1548.000000	45.081879
1547.000000	45.338091
1546.000000	45.637033
1545.000000	45.958158
1544.000000	46.271809
1543.000000	46.594593
1542.000000	46.931589
1541.000000	47.238694
1540.000000	47.555021
1539.000000	47.923353
1538.000000	48.215950
1537.000000	48.386945
1536.000000	48.532109
1535.000000	48.765781
1534.000000	49.111671
1533.000000	49.505279
1532.000000	49.897645
1531.000000	50.272908
1530.000000	50.651142
1529.000000	51.055234
1528.000000	51.488998
1527.000000	51.966279
1526.000000	52.485708
1525.000000	52.987895
1524.000000	53.436316
1523.000000	53.871987
1522.000000	54.342909
1521.000000	54.823344
1520.000000	55.230334
1519.000000	55.569802
1518.000000	55.937568
1517.000000	56.382376
1516.000000	56.866148
1515.000000	57.331665
1514.000000	57.773590
1513.000000	58.231413
1512.000000	58.724516
1511.000000	59.233778
1510.000000	59.727243
1509.000000	60.190491
1508.000000	60.571298
1507.000000	60.973435
1506.000000	61.561380
1505.000000	62.092875
1504.000000	62.412713
1503.000000	62.660233
1502.000000	62.955441
1501.000000	63.315836
1500.000000	63.721406
1499.000000	64.168285
1498.000000	64.626074
1497.000000	65.065130
1496.000000	65.481537
1495.000000	65.848302
1494.000000	66.135686
1493.000000	66.362469
1492.000000	66.600409
1491.000000	66.875224
1490.000000	67.136832
1489.000000	67.364901
1488.000000	67.603610
1487.000000	67.867232
1486.000000	68.124262
1485.000000	68.316151
1484.000000	68.416154
1483.000000	68.467377
1482.000000	68.481978
1481.000000	68.431548
1480.000000	68.305508
1479.000000	68.136900
1478.000000	67.926199
1477.000000	67.635951
1476.000000	67.237377
1475.000000	66.699618
1474.000000	65.915762
1473.000000	64.756080
1472.000000	63.328841
1471.000000	61.855895
1470.000000	60.358838
1469.000000	58.731862
1468.000000	56.909006
1467.000000	54.827013
1466.000000	52.366393
1465.000000	49.488381
1464.000000	46.453425
1463.000000	43.588421
1462.000000	40.950089
1461.000000	38.451273
1460.000000	36.043845
1459.000000	33.657343
1458.000000	31.118272
1457.000000	28.521995
1456.000000	26.397752
1455.000000	25.020837
1454.000000	24.174706
1453.000000	23.638289
1452.000000	23.384576
1451.000000	23.438805
1450.000000	23.769980
1449.000000	24.360609
1448.000000	25.231470
1447.000000	26.324977
1446.000000	27.509500
1445.000000	28.713802
1444.000000	29.974066
1443.000000	31.317811
1442.000000	32.696925
1441.000000	34.041688
1440.000000	35.331435
1439.000000	36.621452
1438.000000	38.030572
1437.000000	39.645276
1436.000000	41.348034
1435.000000	42.891717
1434.000000	44.198399
1433.000000	45.392000
1432.000000	46.578737
1431.000000	47.749682
1430.000000	48.845776
1429.000000	49.848128
1428.000000	50.738682
1427.000000	51.487779
1426.000000	52.130301
1425.000000	52.727733
1424.000000	53.304318
1423.000000	53.832781
1422.000000	54.295595
1421.000000	54.743119
1420.000000	55.231362
1419.000000	55.749523
1418.000000	56.269514
1417.000000	56.808244
1416.000000	57.405785
1415.000000	58.079155
1414.000000	58.812051
1413.000000	59.583505
1412.000000	60.384177
1411.000000	61.205339
1410.000000	62.025876
1409.000000	62.832147
1408.000000	63.610411
1407.000000	64.337972
1406.000000	65.030502
1405.000000	65.726016
1404.000000	66.422512
1403.000000	67.059429
1402.000000	67.606623
1401.000000	68.113857
1400.000000	68.623543
1399.000000	69.110336
1398.000000	69.529265
1397.000000	69.882092
1396.000000	70.197863
1395.000000	70.505650
1394.000000	70.826052
1393.000000	71.141187
1392.000000	71.414965
1391.000000	71.630174
1390.000000	71.793572
1389.000000	71.912055
1388.000000	71.974188
1387.000000	71.974637
1386.000000	71.947461
1385.000000	71.925770
1384.000000	71.910957
1383.000000	71.886306
1382.000000	71.837917
1381.000000	71.763559
1380.000000	71.650952
1379.000000	71.487669
1378.000000	71.283214
1377.000000	71.054342
1376.000000	70.791446
1375.000000	70.488565
1374.000000	70.196694
1373.000000	69.973477
1372.000000	69.796919
1371.000000	69.603080
1370.000000	69.372905
1369.000000	69.116298
1368.000000	68.837618
1367.000000	68.533429
1366.000000	68.203906
1365.000000	67.840829
1364.000000	67.409963
1363.000000	66.897022
1362.000000	66.356009
1361.000000	65.847143
1360.000000	65.369877
1359.000000	64.907213
1358.000000	64.482965
1357.000000	64.143598
1356.000000	63.919778
1355.000000	63.830223
1354.000000	63.886480
1353.000000	64.071761
1352.000000	64.322701
1351.000000	64.554394
1350.000000	64.707561
1349.000000	64.736208
1348.000000	64.591192
1347.000000	64.237066
1346.000000	63.671416
1345.000000	62.907365
1344.000000	61.951594
1343.000000	60.803399
1342.000000	59.459384
1341.000000	57.903551
1340.000000	56.127790
1339.000000	54.179481
1338.000000	52.130881
1337.000000	50.005597
1336.000000	47.776888
1335.000000	45.426295
1334.000000	42.973421
1333.000000	40.454193
1332.000000	37.913926
1331.000000	35.426445
1330.000000	33.080993
1329.000000	30.938813
1328.000000	29.022294
1327.000000	27.329788
1326.000000	25.833287
1325.000000	24.475949
1324.000000	23.202604
1323.000000	21.994886
1322.000000	20.858618
1321.000000	19.798577
1320.000000	18.837251
1319.000000	18.032950
1318.000000	17.455789
1317.000000	17.149381
1316.000000	17.128334
1315.000000	17.397798
1314.000000	17.939965
1313.000000	18.705749
1312.000000	19.638336
1311.000000	20.692449
1310.000000	21.833017
1309.000000	23.024194
1308.000000	24.236436
1307.000000	25.453798
1306.000000	26.663181
1305.000000	27.847226
1304.000000	28.993492
1303.000000	30.101801
1302.000000	31.176277
1301.000000	32.215864
1300.000000	33.215292
1299.000000	34.169280
1298.000000	35.068281
1297.000000	35.896494
1296.000000	36.646455
1295.000000	37.336354
1294.000000	38.009577
1293.000000	38.718278
1292.000000	39.508352
1291.000000	40.411007
1290.000000	41.437376
1289.000000	42.575744
1288.000000	43.797442
1287.000000	45.070287
1286.000000	46.366218
1285.000000	47.660715
1284.000000	48.930451
1283.000000	50.156393
1282.000000	51.327673
1281.000000	52.437041
1280.000000	53.473391
1279.000000	54.427954
1278.000000	55.305419
1277.000000	56.118661
1276.000000	56.878990
1275.000000	57.598644
1274.000000	58.297496
1273.000000	58.996020
1272.000000	59.700992
1271.000000	60.409680
1270.000000	61.121709
1269.000000	61.834600
1268.000000	62.534433
1267.000000	63.204607
1266.000000	63.842897
1265.000000	64.456057
1264.000000	65.041479
1263.000000	65.589646
1262.000000	66.098135
1261.000000	66.568556
1260.000000	66.992051
1259.000000	67.355074
1258.000000	67.658319
1257.000000	67.910614
1256.000000	68.112029
1255.000000	68.259014
1254.000000	68.357628
1253.000000	68.417801
1252.000000	68.435117
1251.000000	68.396341
1250.000000	68.297461
1249.000000	68.138998
1248.000000	67.914498
1247.000000	67.616222
1246.000000	67.248628
1245.000000	66.822848
1244.000000	66.340163
1243.000000	65.798002
1242.000000	65.201242
1241.000000	64.555848
1240.000000	63.860692
1239.000000	63.116308
1238.000000	62.338710
1237.000000	61.551582
1236.000000	60.772589
1235.000000	60.017015
1234.000000	59.305103
1233.000000	58.653543
1232.000000	58.066705
1231.000000	57.544627
1230.000000	57.091081
1229.000000	56.711511
1228.000000	56.406367
1227.000000	56.176520
1226.000000	56.030704
1225.000000	55.975782
1224.000000	56.009447
1223.000000	56.122312
1222.000000	56.303771
1221.000000	56.542370
1220.000000	56.821607
1219.000000	57.128883
1218.000000	57.463199
1217.000000	57.829480
1216.000000	58.230377
1215.000000	58.665379
1214.000000	59.135328
1213.000000	59.637179
1212.000000	60.156762
1211.000000	60.675348
1210.000000	61.181409
1209.000000	61.671498
1208.000000	62.144314
1207.000000	62.603544
1206.000000	63.062656
1205.000000	63.535599
1204.000000	64.022864
1203.000000	64.513725
1202.000000	64.997991
1201.000000	65.465716
1200.000000	65.902250
1199.000000	66.297058
1198.000000	66.656950
1197.000000	67.001109
1196.000000	67.344054
1195.000000	67.692981
1194.000000	68.054278
1193.000000	68.427765
1192.000000	68.797701
1191.000000	69.141472
1190.000000	69.448308
1189.000000	69.720527
1188.000000	69.962658
1187.000000	70.184253
1186.000000	70.407277
1185.000000	70.654662
1184.000000	70.929773
1183.000000	71.215682
1182.000000	71.492013
1181.000000	71.742271
1180.000000	71.953288
1179.000000	72.124529
1178.000000	72.275483
1177.000000	72.431050
1176.000000	72.601988
1175.000000	72.788712
1174.000000	72.994334
1173.000000	73.217768
1172.000000	73.440900
1171.000000	73.638809
1170.000000	73.801400
1169.000000	73.933819
1168.000000	74.042345
1167.000000	74.135962
1166.000000	74.234751
1165.000000	74.358070
1164.000000	74.505434
1163.000000	74.660633
1162.000000	74.810512
1161.000000	74.946137
1160.000000	75.053708
1159.000000	75.124451
1158.000000	75.170864
1157.000000	75.217789
1156.000000	75.279886
1155.000000	75.359877
1154.000000	75.460277
1153.000000	75.577800
1152.000000	75.691788
1151.000000	75.776908
1150.000000	75.827159
1149.000000	75.854717
1148.000000	75.870957
1147.000000	75.884973
1146.000000	75.913401
1145.000000	75.970818
1144.000000	76.051567
1143.000000	76.135444
1142.000000	76.208425
1141.000000	76.264868
1140.000000	76.297214
1139.000000	76.302848
1138.000000	76.297584
1137.000000	76.305210
1136.000000	76.335323
1135.000000	76.383368
1134.000000	76.445022
1133.000000	76.513402
1132.000000	76.568384
1131.000000	76.588547
1130.000000	76.572638
1129.000000	76.535720
1128.000000	76.488776
1127.000000	76.437199
1126.000000	76.392205
1125.000000	76.362199
1124.000000	76.335984
1123.000000	76.289575
1122.000000	76.207642
1121.000000	76.086522
1120.000000	75.921681
1119.000000	75.712046
1118.000000	75.471414
1117.000000	75.217219
1116.000000	74.951595
1115.000000	74.663041
1114.000000	74.342377
1113.000000	73.980854
1112.000000	73.558005
1111.000000	73.054115
1110.000000	72.468595
1109.000000	71.815617
1108.000000	71.106311
1107.000000	70.344250
1106.000000	69.535006
1105.000000	68.676993
1104.000000	67.749781
1103.000000	66.725867
1102.000000	65.585274
1101.000000	64.320162
1100.000000	62.926177
1099.000000	61.403753
1098.000000	59.767350
1097.000000	58.029568
1096.000000	56.193153
1095.000000	54.253755
1094.000000	52.206173
1093.000000	50.046383
1092.000000	47.771128
1091.000000	45.391458
1090.000000	42.936400
1089.000000	40.445153
1088.000000	37.963394
1087.000000	35.542124
1086.000000	33.226287
1085.000000	31.045001
1084.000000	29.018304
1083.000000	27.158328
1082.000000	25.468071
1081.000000	23.939434
1080.000000	22.565460
1079.000000	21.348300
1078.000000	20.279622
1077.000000	19.341931
1076.000000	18.520586
1075.000000	17.805278
1074.000000	17.181950
1073.000000	16.628670
1072.000000	16.133942
1071.000000	15.697902
1070.000000	15.316147
1069.000000	14.981766
1068.000000	14.696906
1067.000000	14.472782
1066.000000	14.312435
1065.000000	14.207715
1064.000000	14.156779
1063.000000	14.162619
1062.000000	14.220038
1061.000000	14.318103
1060.000000	14.455000
1059.000000	14.638871
1058.000000	14.869957
1057.000000	15.141254
1056.000000	15.454125
1055.000000	15.815441
1054.000000	16.223095
1053.000000	16.665517
1052.000000	17.137924
1051.000000	17.644374
1050.000000	18.182394
1049.000000	18.745028
1048.000000	19.333904
1047.000000	19.957760
1046.000000	20.618914
1045.000000	21.311827
1044.000000	22.035654
1043.000000	22.792841
1042.000000	23.578631
1041.000000	24.384264
1040.000000	25.207384
1039.000000	26.052626
1038.000000	26.921470
1037.000000	27.810976
1036.000000	28.721238
1035.000000	29.652911
1034.000000	30.600426
1033.000000	31.553959
1032.000000	32.507760
1031.000000	33.461705
1030.000000	34.416138
1029.000000	35.371525
1028.000000	36.330793
1027.000000	37.296746
1026.000000	38.267135
1025.000000	39.235435
1024.000000	40.194749
1023.000000	41.139518
1022.000000	42.066327
1021.000000	42.975139
1020.000000	43.870186
1019.000000	44.757641
1018.000000	45.641961
1017.000000	46.523387
1016.000000	47.395937
1015.000000	48.249888
1014.000000	49.076675
1013.000000	49.871656
1012.000000	50.634899
1011.000000	51.372080
1010.000000	52.095630
1009.000000	52.819001
1008.000000	53.546854
1007.000000	54.273648
1006.000000	54.988732
1005.000000	55.680196
1004.000000	56.336028
1003.000000	56.949672
1002.000000	57.527829
1001.000000	58.086750
1000.000000	58.641678
999.000000	59.202837
998.000000	59.776392
997.000000	60.360663
996.000000	60.939651
995.000000	61.489907
994.000000	61.996780
993.000000	62.459431
992.000000	62.885521
991.000000	63.289668
990.000000	63.695010
989.000000	64.123611
988.000000	64.580125
987.000000	65.051161
986.000000	65.516825
985.000000	65.957082
984.000000	66.352991
983.000000	66.695516
982.000000	66.997028
981.000000	67.285087
980.000000	67.584139
979.000000	67.908683
978.000000	68.265665
977.000000	68.649816
976.000000	69.036677
975.000000	69.393658
974.000000	69.702471
973.000000	69.963981
972.000000	70.188477
971.000000	70.393779
970.000000	70.608256
969.000000	70.858471
968.000000	71.148831
967.000000	71.461321
966.000000	71.772408
965.000000	72.060884
964.000000	72.306392
963.000000	72.498093
962.000000	72.648530
961.000000	72.787367
960.000000	72.939680
959.000000	73.118822
958.000000	73.331534
957.000000	73.573407
956.000000	73.820205
955.000000	74.039227
954.000000	74.213414
953.000000	74.346059
952.000000	74.448092
951.000000	74.535010
950.000000	74.631594
949.000000	74.761128
948.000000	74.925860
947.000000	75.107967
946.000000	75.288471
945.000000	75.453317
944.000000	75.587675
943.000000	75.682675
942.000000	75.749316
941.000000	75.811753
940.000000	75.886118
939.000000	75.976634
938.000000	76.085717
937.000000	76.211391
936.000000	76.337104
935.000000	76.440243
934.000000	76.512586
933.000000	76.561235
932.000000	76.592724
931.000000	76.611586
930.000000	76.629738
929.000000	76.659911
928.000000	76.699041
927.000000	76.731704
926.000000	76.749731
925.000000	76.754269
924.000000	76.743351
923.000000	76.713268
922.000000	76.670269
921.000000	76.625753
920.000000	76.579914
919.000000	76.523587
918.000000	76.453665
917.000000	76.371607
916.000000	76.271759
915.000000	76.146595
914.000000	76.002195
913.000000	75.853326
912.000000	75.703287
911.000000	75.543874
910.000000	75.370158
909.000000	75.180312
908.000000	74.964426
907.000000	74.709652
906.000000	74.417914
905.000000	74.103822
904.000000	73.776659
903.000000	73.438204
902.000000	73.091735
901.000000	72.738182
900.000000	72.363572
899.000000	71.945098
898.000000	71.472236
897.000000	70.947641
896.000000	70.375511
895.000000	69.761931
894.000000	69.121792
893.000000	68.470448
892.000000	67.805291
891.000000	67.108590
890.000000	66.365056
889.000000	65.564741
888.000000	64.696987
887.000000	63.754498
886.000000	62.745444
885.000000	61.689499
884.000000	60.600221
883.000000	59.482402
882.000000	58.337937
881.000000	57.163836
880.000000	55.946751
879.000000	54.669366
878.000000	53.326248
877.000000	51.925559
876.000000	50.480277
875.000000	49.005218
874.000000	47.517410
873.000000	46.031420
872.000000	44.551659
871.000000	43.073589
870.000000	41.591962
869.000000	40.105176
868.000000	38.614882
867.000000	37.125788
866.000000	35.646915
865.000000	34.190407
864.000000	32.768925
863.000000	31.391151
862.000000	30.059721
861.000000	28.775559
860.000000	27.541899
859.000000	26.368074
858.000000	25.268959
857.000000	24.266376
856.000000	23.391196
855.000000	22.670910
854.000000	22.120908
853.000000	21.739833
852.000000	21.509082
851.000000	21.394884
850.000000	21.350632
849.000000	21.334321
848.000000	21.320338
847.000000	21.298005
846.000000	21.268329
845.000000	21.242562
844.000000	21.240425
843.000000	21.280164
842.000000	21.371669
841.000000	21.521714
840.000000	21.736233
839.000000	22.016182
838.000000	22.356411
837.000000	22.752161
836.000000	23.204402
835.000000	23.712679
834.000000	24.271620
833.000000	24.875485
832.000000	25.519483
831.000000	26.197108
830.000000	26.900397
829.000000	27.626612
828.000000	28.379075
827.000000	29.160689
826.000000	29.973709
825.000000	30.822040
824.000000	31.706476
823.000000	32.618393
822.000000	33.544599
821.000000	34.475722
820.000000	35.402812
819.000000	36.312170
818.000000	37.192178
817.000000	38.041521
816.000000	38.863544
815.000000	39.658567
814.000000	40.427711
813.000000	41.176744
812.000000	41.909874
811.000000	42.625011
810.000000	43.322394
809.000000	44.010504
808.000000	44.697022
807.000000	45.382747
806.000000	46.069396
805.000000	46.764024
804.000000	47.468472
803.000000	48.173364
802.000000	48.869563
801.000000	49.555572
800.000000	50.228938
799.000000	50.882992
798.000000	51.519051
797.000000	52.150225
796.000000	52.785495
795.000000	53.420799
794.000000	54.050624
793.000000	54.674245
792.000000	55.285359
791.000000	55.869878
790.000000	56.421980
789.000000	56.950695
788.000000	57.465725
787.000000	57.970514
786.000000	58.472092
785.000000	58.980641
784.000000	59.492840
783.000000	59.989155
782.000000	60.454376
781.000000	60.888027
780.000000	61.292208
779.000000	61.667123
778.000000	62.024052
777.000000	62.386141
776.000000	62.767702
775.000000	63.164377
774.000000	63.566712
773.000000	63.966890
772.000000	64.349220
771.000000	64.693854
770.000000	64.998878
769.000000	65.284947
768.000000	65.573031
767.000000	65.872274
766.000000	66.190274
765.000000	66.533025
764.000000	66.887316
763.000000	67.221735
762.000000	67.514690
761.000000	67.767307
760.000000	67.986724
759.000000	68.178336
758.000000	68.360038
757.000000	68.561260
756.000000	68.796377
755.000000	69.052954
754.000000	69.311159
753.000000	69.556479
752.000000	69.770321
751.000000	69.932484
750.000000	70.044265
749.000000	70.132582
748.000000	70.223442
747.000000	70.326918
746.000000	70.449729
745.000000	70.597794
744.000000	70.757100
743.000000	70.893766
742.000000	70.984732
741.000000	71.033170
740.000000	71.050913
739.000000	71.049206
738.000000	71.052558
737.000000	71.095420
736.000000	71.191669
735.000000	71.324616
734.000000	71.474354
733.000000	71.633220
732.000000	71.789189
731.000000	71.921976
730.000000	72.030002
729.000000	72.138996
728.000000	72.275460
727.000000	72.450102
726.000000	72.668925
725.000000	72.935764
724.000000	73.233791
723.000000	73.528438
722.000000	73.799428
721.000000	74.050126
720.000000	74.281482
719.000000	74.486150
718.000000	74.676596
717.000000	74.887580
716.000000	75.135846
715.000000	75.401023
714.000000	75.656599
713.000000	75.894148
712.000000	76.109049
711.000000	76.292957
710.000000	76.456619
709.000000	76.632015
708.000000	76.836908
707.000000	77.059696
706.000000	77.285379
705.000000	77.511006
704.000000	77.726334
703.000000	77.907517
702.000000	78.050135
701.000000	78.182528
700.000000	78.329460
699.000000	78.492134
698.000000	78.670030
697.000000	78.871096
696.000000	79.084222
695.000000	79.270678
694.000000	79.408739
693.000000	79.517436
692.000000	79.618749
691.000000	79.715879
690.000000	79.821025
689.000000	79.967108
688.000000	80.163343
687.000000	80.368808
686.000000	80.543137
685.000000	80.683544
684.000000	80.790363
683.000000	80.848659
682.000000	80.872989
681.000000	80.922095
680.000000	81.034924
679.000000	81.192893
678.000000	81.371058
677.000000	81.561163
676.000000	81.731323
675.000000	81.838184
674.000000	81.880754
673.000000	81.909461
672.000000	81.978253
671.000000	82.118884
670.000000	82.362617
669.000000	82.725570
668.000000	83.075690
667.000000	83.223193
666.000000	83.192681
665.000000	83.084170
664.000000	82.959295
663.000000	82.858171
662.000000	82.812524
661.000000	82.846665
660.000000	82.964679
659.000000	83.151140
658.000000	83.375202
657.000000	83.585555
656.000000	83.725909
655.000000	83.778051
654.000000	83.760484
653.000000	83.703809
652.000000	83.653137
651.000000	83.665306
650.000000	83.774838
649.000000	83.963720
648.000000	84.180437
647.000000	84.373167
646.000000	84.498336
645.000000	84.529242
644.000000	84.473921
643.000000	84.380435
642.000000	84.315752
641.000000	84.328830
640.000000	84.434030
639.000000	84.616143
638.000000	84.831316
637.000000	85.014457
636.000000	85.110354
635.000000	85.104158
634.000000	85.025514
633.000000	84.927055
632.000000	84.861188
631.000000	84.870706
630.000000	84.977115
629.000000	85.162207
628.000000	85.369527
627.000000	85.533482
626.000000	85.611168
625.000000	85.597918
624.000000	85.520978
623.000000	85.429272
622.000000	85.381350
621.000000	85.420620
620.000000	85.550530
619.000000	85.733345
618.000000	85.911803
617.000000	86.033015
616.000000	86.064245
615.000000	86.007713
614.000000	85.905712
613.000000	85.820650
612.000000	85.800804
611.000000	85.862249
610.000000	85.994027
609.000000	86.162628
608.000000	86.315095
607.000000	86.399199
606.000000	86.393931
605.000000	86.320474
604.000000	86.220952
603.000000	86.136415
602.000000	86.101006
601.000000	86.128951
600.000000	86.195127
599.000000	86.241886
598.000000	86.214562
597.000000	86.089524
596.000000	85.877935
595.000000	85.625921
594.000000	85.410884
593.000000	85.310288
592.000000	85.360740
591.000000	85.546042
590.000000	85.814560
589.000000	86.099020
588.000000	86.330812
587.000000	86.464842
586.000000	86.507633
585.000000	86.512338
584.000000	86.536211
583.000000	86.611026
582.000000	86.746396
581.000000	86.931953
580.000000	87.127998
579.000000	87.275174
578.000000	87.332049
577.000000	87.299821
576.000000	87.213679
575.000000	87.125908
574.000000	87.090006
573.000000	87.137012
572.000000	87.256703
571.000000	87.403634
570.000000	87.525274
569.000000	87.582859
568.000000	87.555582
567.000000	87.449220
566.000000	87.308526
565.000000	87.199820
564.000000	87.170150
563.000000	87.229054
562.000000	87.357244
561.000000	87.514732
560.000000	87.644081
559.000000	87.692177
558.000000	87.646777
557.000000	87.544275
556.000000	87.439454
555.000000	87.380871
554.000000	87.406519
553.000000	87.529147
552.000000	87.715648
551.000000	87.897990
550.000000	88.017284
549.000000	88.050578
548.000000	88.002142
547.000000	87.898508
546.000000	87.797222
545.000000	87.765398
544.000000	87.832318
543.000000	87.973682
542.000000	88.138517
541.000000	88.273682
540.000000	88.329481
539.000000	88.277747
538.000000	88.141574
537.000000	87.988032
536.000000	87.881758
535.000000	87.857986
534.000000	87.928040
533.000000	88.079461
532.000000	88.260186
531.000000	88.393190
530.000000	88.429578
529.000000	88.371668
528.000000	88.248001
527.000000	88.100922
526.000000	87.995005
525.000000	87.987871
524.000000	88.073204
523.000000	88.177792
522.000000	88.228462
521.000000	88.192671
520.000000	88.059605
519.000000	87.829439
518.000000	87.537374
517.000000	87.254941
516.000000	87.037206
515.000000	86.883092
514.000000	86.753793
513.000000	86.599769
512.000000	86.364638
511.000000	86.003839
510.000000	85.526229
509.000000	84.991272
508.000000	84.454189
507.000000	83.946899
506.000000	83.495408
505.000000	83.107129
504.000000	82.744535
503.000000	82.351266
502.000000	81.917822
501.000000	81.494036
500.000000	81.130346
499.000000	80.853271
498.000000	80.706585
497.000000	80.748476
496.000000	80.990771
495.000000	81.372493
494.000000	81.803324
493.000000	82.211466
492.000000	82.549593
491.000000	82.808780
490.000000	83.037568
489.000000	83.316650
488.000000	83.694655
487.000000	84.162681
486.000000	84.680507
485.000000	85.187230
484.000000	85.593735
483.000000	85.819125
482.000000	85.861394
481.000000	85.799085
480.000000	85.722005
479.000000	85.690227
478.000000	85.742984
477.000000	85.897691
476.000000	86.119841
475.000000	86.325444
474.000000	86.441080
473.000000	86.448020
472.000000	86.386825
471.000000	86.340328
470.000000	86.386635
469.000000	86.571444
468.000000	86.893110
467.000000	87.289564
466.000000	87.663460
465.000000	87.930936
464.000000	88.038394
463.000000	87.971834
462.000000	87.794907
461.000000	87.632483
460.000000	87.585616
459.000000	87.686895
458.000000	87.920484
457.000000	88.240125
456.000000	88.542398
455.000000	88.688035
454.000000	88.614446
453.000000	88.386011
452.000000	88.141420
451.000000	88.002648
450.000000	88.026466
449.000000	88.222275
448.000000	88.542782
447.000000	88.871575
446.000000	89.091436
445.000000	89.163114
444.000000	89.098423
443.000000	88.920916
442.000000	88.714493
441.000000	88.627787
440.000000	88.750293
439.000000	89.030763
438.000000	89.355217
437.000000	89.639266
436.000000	89.814060
435.000000	89.807953
434.000000	89.626069
433.000000	89.390406
432.000000	89.240445
431.000000	89.235370
430.000000	89.377191
429.000000	89.648890
428.000000	89.969298
427.000000	90.183373
426.000000	90.182297
425.000000	89.999008
424.000000	89.742610
423.000000	89.515184
422.000000	89.402154
421.000000	89.460841
420.000000	89.660451
419.000000	89.851372
418.000000	89.937463
417.000000	89.956065
416.000000	89.898190
415.000000	89.709825
414.000000	89.428687
413.000000	89.228985
412.000000	89.244790
411.000000	89.426540
410.000000	89.662798
409.000000	89.901264
408.000000	90.066438
407.000000	90.017306
406.000000	89.731548
405.000000	89.392729
404.000000	89.183809
403.000000	89.133486
402.000000	89.230947
401.000000	89.513994
400.000000	89.859506
