PE IR       SUBTECH     SPECTRUM    ASCII       PEDS        4.00        
   -1
23ms041_nitro.asc
24/09/10
16:41:40.00
24/09/10
16:41:40.00
Administrator
Sample 1162 By Administrator Date Tuesday, September 10 2024
400.000000
#HDR
-1
-1
#GR
cm-1
%T
1.0
0.0
4000.000000
-1.000000
3601
8
86.411091
6.041710
#DATA
4000.000000	56.863108
3999.000000	56.898814
3998.000000	56.933455
3997.000000	56.967035
3996.000000	56.999717
3995.000000	57.031921
3994.000000	57.064432
3993.000000	57.098260
3992.000000	57.134113
3991.000000	57.171922
3990.000000	57.210885
3989.000000	57.250086
3988.000000	57.289170
3987.000000	57.328177
3986.000000	57.366812
3985.000000	57.404075
3984.000000	57.438850
3983.000000	57.470731
3982.000000	57.500247
3981.000000	57.528555
3980.000000	57.557011
3979.000000	57.586803
3978.000000	57.618699
3977.000000	57.652825
3976.000000	57.688494
3975.000000	57.724432
3974.000000	57.759470
3973.000000	57.793244
3972.000000	57.826160
3971.000000	57.858876
3970.000000	57.891687
3969.000000	57.924169
3968.000000	57.955729
3967.000000	57.986422
3966.000000	58.016935
3965.000000	58.047972
3964.000000	58.079647
3963.000000	58.111250
3962.000000	58.141675
3961.000000	58.170137
3960.000000	58.196657
3959.000000	58.222398
3958.000000	58.249220
3957.000000	58.278379
3956.000000	58.310008
3955.000000	58.343747
3954.000000	58.379323
3953.000000	58.416475
3952.000000	58.454424
3951.000000	58.491974
3950.000000	58.527547
3949.000000	58.559028
3948.000000	58.585319
3947.000000	58.607868
3946.000000	58.630422
3945.000000	58.657236
3944.000000	58.690503
3943.000000	58.728449
3942.000000	58.766571
3941.000000	58.802079
3940.000000	58.836217
3939.000000	58.871973
3938.000000	58.910089
3937.000000	58.947816
3936.000000	58.981761
3935.000000	59.011499
3934.000000	59.040028
3933.000000	59.070098
3932.000000	59.100756
3931.000000	59.128978
3930.000000	59.153763
3929.000000	59.178041
3928.000000	59.206215
3927.000000	59.240570
3926.000000	59.279731
3925.000000	59.319191
3924.000000	59.353393
3923.000000	59.379865
3922.000000	59.401644
3921.000000	59.424686
3920.000000	59.453394
3919.000000	59.488088
3918.000000	59.526494
3917.000000	59.566506
3916.000000	59.606368
3915.000000	59.644598
3914.000000	59.681023
3913.000000	59.716940
3912.000000	59.752892
3911.000000	59.786942
3910.000000	59.816532
3909.000000	59.841442
3908.000000	59.864416
3907.000000	59.888693
3906.000000	59.914544
3905.000000	59.939014
3904.000000	59.958333
3903.000000	59.972661
3902.000000	59.988359
3901.000000	60.012747
3900.000000	60.047730
3899.000000	60.088594
3898.000000	60.127627
3897.000000	60.161694
3896.000000	60.193585
3895.000000	60.228136
3894.000000	60.268125
3893.000000	60.311786
3892.000000	60.352781
3891.000000	60.385380
3890.000000	60.408923
3889.000000	60.427124
3888.000000	60.445205
3887.000000	60.469679
3886.000000	60.503851
3885.000000	60.541119
3884.000000	60.571453
3883.000000	60.595419
3882.000000	60.622926
3881.000000	60.660046
3880.000000	60.700411
3879.000000	60.733565
3878.000000	60.757986
3877.000000	60.780604
3876.000000	60.808809
3875.000000	60.844872
3874.000000	60.882397
3873.000000	60.911249
3872.000000	60.928182
3871.000000	60.942077
3870.000000	60.964860
3869.000000	60.996760
3868.000000	61.029319
3867.000000	61.059029
3866.000000	61.091727
3865.000000	61.134567
3864.000000	61.182977
3863.000000	61.224312
3862.000000	61.254127
3861.000000	61.277615
3860.000000	61.302443
3859.000000	61.334881
3858.000000	61.376935
3857.000000	61.424286
3856.000000	61.466369
3855.000000	61.495659
3854.000000	61.513451
3853.000000	61.521897
3852.000000	61.528411
3851.000000	61.546397
3850.000000	61.580672
3849.000000	61.626990
3848.000000	61.679692
3847.000000	61.733471
3846.000000	61.784294
3845.000000	61.829510
3844.000000	61.866645
3843.000000	61.895561
3842.000000	61.918715
3841.000000	61.938333
3840.000000	61.956292
3839.000000	61.974315
3838.000000	61.994080
3837.000000	62.019056
3836.000000	62.051669
3835.000000	62.090531
3834.000000	62.131721
3833.000000	62.173227
3832.000000	62.216363
3831.000000	62.261232
3830.000000	62.305201
3829.000000	62.346828
3828.000000	62.386577
3827.000000	62.424642
3826.000000	62.459053
3825.000000	62.485963
3824.000000	62.503464
3823.000000	62.517495
3822.000000	62.539290
3821.000000	62.571263
3820.000000	62.603123
3819.000000	62.628402
3818.000000	62.651127
3817.000000	62.680918
3816.000000	62.725534
3815.000000	62.780443
3814.000000	62.833773
3813.000000	62.880085
3812.000000	62.922341
3811.000000	62.963748
3810.000000	63.002723
3809.000000	63.034909
3808.000000	63.059043
3807.000000	63.078865
3806.000000	63.098172
3805.000000	63.117227
3804.000000	63.136183
3803.000000	63.158874
3802.000000	63.191521
3801.000000	63.232497
3800.000000	63.272162
3799.000000	63.307720
3798.000000	63.344276
3797.000000	63.386834
3796.000000	63.434756
3795.000000	63.482576
3794.000000	63.526050
3793.000000	63.566099
3792.000000	63.606111
3791.000000	63.647123
3790.000000	63.686979
3789.000000	63.723671
3788.000000	63.757731
3787.000000	63.791090
3786.000000	63.824807
3785.000000	63.858078
3784.000000	63.889496
3783.000000	63.918441
3782.000000	63.946955
3781.000000	63.979860
3780.000000	64.020434
3779.000000	64.065183
3778.000000	64.107384
3777.000000	64.144341
3776.000000	64.178417
3775.000000	64.213057
3774.000000	64.248764
3773.000000	64.282693
3772.000000	64.312110
3771.000000	64.338374
3770.000000	64.364225
3769.000000	64.389732
3768.000000	64.414939
3767.000000	64.443026
3766.000000	64.477848
3765.000000	64.519849
3764.000000	64.564213
3763.000000	64.604946
3762.000000	64.641304
3761.000000	64.678249
3760.000000	64.718888
3759.000000	64.757156
3758.000000	64.786602
3757.000000	64.809785
3756.000000	64.831480
3755.000000	64.851752
3754.000000	64.868803
3753.000000	64.885475
3752.000000	64.906632
3751.000000	64.929542
3750.000000	64.949959
3749.000000	64.973969
3748.000000	65.007975
3747.000000	65.046811
3746.000000	65.083415
3745.000000	65.122592
3744.000000	65.169260
3743.000000	65.217487
3742.000000	65.262630
3741.000000	65.304474
3740.000000	65.343856
3739.000000	65.380647
3738.000000	65.415022
3737.000000	65.451813
3736.000000	65.495228
3735.000000	65.540583
3734.000000	65.578284
3733.000000	65.608979
3732.000000	65.643997
3731.000000	65.691099
3730.000000	65.747917
3729.000000	65.806572
3728.000000	65.863251
3727.000000	65.921030
3726.000000	65.980587
3725.000000	66.035327
3724.000000	66.080587
3723.000000	66.120289
3722.000000	66.160099
3721.000000	66.200940
3720.000000	66.242041
3719.000000	66.283083
3718.000000	66.324436
3717.000000	66.366534
3716.000000	66.407165
3715.000000	66.443185
3714.000000	66.473817
3713.000000	66.502653
3712.000000	66.534451
3711.000000	66.569767
3710.000000	66.608297
3709.000000	66.650678
3708.000000	66.696769
3707.000000	66.745964
3706.000000	66.796477
3705.000000	66.845945
3704.000000	66.894136
3703.000000	66.943627
3702.000000	66.995032
3701.000000	67.043992
3700.000000	67.086826
3699.000000	67.124610
3698.000000	67.160628
3697.000000	67.197979
3696.000000	67.236424
3695.000000	67.272467
3694.000000	67.304156
3693.000000	67.334753
3692.000000	67.369620
3691.000000	67.409932
3690.000000	67.451056
3689.000000	67.488520
3688.000000	67.524982
3687.000000	67.566181
3686.000000	67.611457
3685.000000	67.655019
3684.000000	67.694078
3683.000000	67.730159
3682.000000	67.765431
3681.000000	67.800935
3680.000000	67.836607
3679.000000	67.869910
3678.000000	67.894647
3677.000000	67.911172
3676.000000	67.932282
3675.000000	67.964174
3674.000000	67.998305
3673.000000	68.025790
3672.000000	68.045679
3671.000000	68.071670
3670.000000	68.119438
3669.000000	68.182863
3668.000000	68.246524
3667.000000	68.306229
3666.000000	68.363577
3665.000000	68.419490
3664.000000	68.473226
3663.000000	68.522934
3662.000000	68.567646
3661.000000	68.607074
3660.000000	68.639979
3659.000000	68.665656
3658.000000	68.686061
3657.000000	68.706078
3656.000000	68.728645
3655.000000	68.752161
3654.000000	68.772609
3653.000000	68.785297
3652.000000	68.788588
3651.000000	68.786632
3650.000000	68.783712
3649.000000	68.779787
3648.000000	68.782304
3647.000000	68.803598
3646.000000	68.845007
3645.000000	68.897271
3644.000000	68.953140
3643.000000	69.010841
3642.000000	69.069506
3641.000000	69.124253
3640.000000	69.168553
3639.000000	69.200948
3638.000000	69.223801
3637.000000	69.238403
3636.000000	69.244103
3635.000000	69.243195
3634.000000	69.240981
3633.000000	69.238277
3632.000000	69.229498
3631.000000	69.211425
3630.000000	69.194843
3629.000000	69.195198
3628.000000	69.212352
3627.000000	69.239485
3626.000000	69.272435
3625.000000	69.305646
3624.000000	69.334572
3623.000000	69.358225
3622.000000	69.376149
3621.000000	69.388695
3620.000000	69.398101
3619.000000	69.405711
3618.000000	69.411201
3617.000000	69.415322
3616.000000	69.417861
3615.000000	69.418761
3614.000000	69.419138
3613.000000	69.417946
3612.000000	69.412416
3611.000000	69.403461
3610.000000	69.398533
3609.000000	69.408323
3608.000000	69.437487
3607.000000	69.479660
3606.000000	69.524155
3605.000000	69.563207
3604.000000	69.593900
3603.000000	69.616624
3602.000000	69.630822
3601.000000	69.635180
3600.000000	69.630154
3599.000000	69.618379
3598.000000	69.603560
3597.000000	69.590332
3596.000000	69.583367
3595.000000	69.586651
3594.000000	69.599839
3593.000000	69.616962
3592.000000	69.631271
3591.000000	69.638939
3590.000000	69.641395
3589.000000	69.645924
3588.000000	69.660332
3587.000000	69.684154
3586.000000	69.711014
3585.000000	69.736143
3584.000000	69.758207
3583.000000	69.777664
3582.000000	69.794745
3581.000000	69.808443
3580.000000	69.817595
3579.000000	69.822767
3578.000000	69.825556
3577.000000	69.827525
3576.000000	69.830598
3575.000000	69.836908
3574.000000	69.847498
3573.000000	69.860557
3572.000000	69.872706
3571.000000	69.880563
3570.000000	69.881348
3569.000000	69.876236
3568.000000	69.871624
3567.000000	69.873357
3566.000000	69.881076
3565.000000	69.892221
3564.000000	69.905433
3563.000000	69.921151
3562.000000	69.939838
3561.000000	69.960275
3560.000000	69.980610
3559.000000	70.000529
3558.000000	70.021085
3557.000000	70.042481
3556.000000	70.064026
3555.000000	70.085026
3554.000000	70.104836
3553.000000	70.121878
3552.000000	70.133871
3551.000000	70.139526
3550.000000	70.139204
3549.000000	70.135573
3548.000000	70.134074
3547.000000	70.140145
3546.000000	70.154066
3545.000000	70.170568
3544.000000	70.184850
3543.000000	70.196566
3542.000000	70.207710
3541.000000	70.219380
3540.000000	70.232733
3539.000000	70.250255
3538.000000	70.273765
3537.000000	70.301377
3536.000000	70.327712
3535.000000	70.348084
3534.000000	70.360453
3533.000000	70.365151
3532.000000	70.363509
3531.000000	70.357085
3530.000000	70.346739
3529.000000	70.333443
3528.000000	70.320486
3527.000000	70.313422
3526.000000	70.316819
3525.000000	70.331420
3524.000000	70.354475
3523.000000	70.381155
3522.000000	70.406299
3521.000000	70.426619
3520.000000	70.442251
3519.000000	70.455008
3518.000000	70.464967
3517.000000	70.470207
3516.000000	70.469735
3515.000000	70.465160
3514.000000	70.458117
3513.000000	70.448396
3512.000000	70.436151
3511.000000	70.424066
3510.000000	70.414878
3509.000000	70.408607
3508.000000	70.403484
3507.000000	70.398657
3506.000000	70.394742
3505.000000	70.393021
3504.000000	70.394549
3503.000000	70.398745
3502.000000	70.402689
3501.000000	70.402999
3500.000000	70.399092
3499.000000	70.392657
3498.000000	70.383887
3497.000000	70.369788
3496.000000	70.347263
3495.000000	70.316612
3494.000000	70.280992
3493.000000	70.243899
3492.000000	70.208646
3491.000000	70.178680
3490.000000	70.156337
3489.000000	70.141865
3488.000000	70.134010
3487.000000	70.129916
3486.000000	70.124237
3485.000000	70.110693
3484.000000	70.086088
3483.000000	70.052231
3482.000000	70.012606
3481.000000	69.968588
3480.000000	69.919560
3479.000000	69.865431
3478.000000	69.807802
3477.000000	69.749807
3476.000000	69.695634
3475.000000	69.648481
3474.000000	69.608302
3473.000000	69.572485
3472.000000	69.538762
3471.000000	69.505978
3470.000000	69.471622
3469.000000	69.430912
3468.000000	69.379842
3467.000000	69.317951
3466.000000	69.247601
3465.000000	69.172162
3464.000000	69.095530
3463.000000	69.021207
3462.000000	68.949795
3461.000000	68.878337
3460.000000	68.802935
3459.000000	68.721638
3458.000000	68.635064
3457.000000	68.545768
3456.000000	68.457675
3455.000000	68.374462
3454.000000	68.297025
3453.000000	68.223551
3452.000000	68.151684
3451.000000	68.079459
3450.000000	68.003980
3449.000000	67.921243
3448.000000	67.828500
3447.000000	67.725767
3446.000000	67.614760
3445.000000	67.497610
3444.000000	67.376983
3443.000000	67.256173
3442.000000	67.138196
3441.000000	67.025394
3440.000000	66.919800
3439.000000	66.822035
3438.000000	66.729047
3437.000000	66.634172
3436.000000	66.530450
3435.000000	66.413676
3434.000000	66.282800
3433.000000	66.139933
3432.000000	65.989602
3431.000000	65.836272
3430.000000	65.681293
3429.000000	65.522993
3428.000000	65.360321
3427.000000	65.194523
3426.000000	65.027397
3425.000000	64.859376
3424.000000	64.689795
3423.000000	64.517855
3422.000000	64.342499
3421.000000	64.162777
3420.000000	63.979086
3419.000000	63.793092
3418.000000	63.606052
3417.000000	63.417809
3416.000000	63.227310
3415.000000	63.032686
3414.000000	62.830515
3413.000000	62.616871
3412.000000	62.389526
3411.000000	62.148847
3410.000000	61.896668
3409.000000	61.635225
3408.000000	61.367614
3407.000000	61.097592
3406.000000	60.828618
3405.000000	60.563396
3404.000000	60.303254
3403.000000	60.046536
3402.000000	59.787019
3401.000000	59.515525
3400.000000	59.224263
3399.000000	58.910343
3398.000000	58.576725
3397.000000	58.230681
3396.000000	57.880170
3395.000000	57.530073
3394.000000	57.180563
3393.000000	56.828929
3392.000000	56.472013
3391.000000	56.106577
3390.000000	55.730104
3389.000000	55.342243
3388.000000	54.944908
3387.000000	54.539728
3386.000000	54.126270
3385.000000	53.704267
3384.000000	53.275411
3383.000000	52.842004
3382.000000	52.404656
3381.000000	51.962537
3380.000000	51.514829
3379.000000	51.060231
3378.000000	50.596427
3377.000000	50.121593
3376.000000	49.635561
3375.000000	49.139179
3374.000000	48.633767
3373.000000	48.122058
3372.000000	47.608205
3371.000000	47.094592
3370.000000	46.580187
3369.000000	46.062255
3368.000000	45.538565
3367.000000	45.007510
3366.000000	44.467806
3365.000000	43.919698
3364.000000	43.364691
3363.000000	42.803426
3362.000000	42.235509
3361.000000	41.661701
3360.000000	41.084528
3359.000000	40.506090
3358.000000	39.927147
3357.000000	39.349121
3356.000000	38.774154
3355.000000	38.202597
3354.000000	37.632527
3353.000000	37.062330
3352.000000	36.491595
3351.000000	35.919092
3350.000000	35.342722
3349.000000	34.762454
3348.000000	34.181106
3347.000000	33.601544
3346.000000	33.025273
3345.000000	32.453848
3344.000000	31.888628
3343.000000	31.328552
3342.000000	30.770739
3341.000000	30.214078
3340.000000	29.659907
3339.000000	29.108979
3338.000000	28.560586
3337.000000	28.014906
3336.000000	27.473722
3335.000000	26.938461
3334.000000	26.409981
3333.000000	25.890350
3332.000000	25.381467
3331.000000	24.881982
3330.000000	24.388228
3329.000000	23.898192
3328.000000	23.412615
3327.000000	22.932246
3326.000000	22.457393
3325.000000	21.989722
3324.000000	21.531176
3323.000000	21.081746
3322.000000	20.640643
3321.000000	20.209121
3320.000000	19.789392
3319.000000	19.380819
3318.000000	18.981257
3317.000000	18.590480
3316.000000	18.209470
3315.000000	17.837298
3314.000000	17.471888
3313.000000	17.113656
3312.000000	16.764726
3311.000000	16.425396
3310.000000	16.095423
3309.000000	15.777104
3308.000000	15.474318
3307.000000	15.188733
3306.000000	14.919892
3305.000000	14.668221
3304.000000	14.433001
3303.000000	14.209997
3302.000000	13.994455
3301.000000	13.785832
3300.000000	13.586773
3299.000000	13.398326
3298.000000	13.220414
3297.000000	13.055150
3296.000000	12.904763
3295.000000	12.768020
3294.000000	12.641961
3293.000000	12.526562
3292.000000	12.423778
3291.000000	12.332265
3290.000000	12.248383
3289.000000	12.170542
3288.000000	12.099534
3287.000000	12.035407
3286.000000	11.977288
3285.000000	11.926078
3284.000000	11.882890
3283.000000	11.846210
3282.000000	11.813719
3281.000000	11.785493
3280.000000	11.762415
3279.000000	11.742632
3278.000000	11.723470
3277.000000	11.705526
3276.000000	11.690940
3275.000000	11.679168
3274.000000	11.668173
3273.000000	11.658905
3272.000000	11.654797
3271.000000	11.657287
3270.000000	11.665044
3269.000000	11.676413
3268.000000	11.689474
3267.000000	11.701215
3266.000000	11.709889
3265.000000	11.717395
3264.000000	11.726563
3263.000000	11.737355
3262.000000	11.748676
3261.000000	11.761616
3260.000000	11.777621
3259.000000	11.795251
3258.000000	11.812261
3257.000000	11.829518
3256.000000	11.849212
3255.000000	11.870832
3254.000000	11.892184
3253.000000	11.912987
3252.000000	11.934085
3251.000000	11.954694
3250.000000	11.973932
3249.000000	11.993774
3248.000000	12.017075
3247.000000	12.043781
3246.000000	12.071935
3245.000000	12.100838
3244.000000	12.130293
3243.000000	12.158348
3242.000000	12.183302
3241.000000	12.206508
3240.000000	12.230265
3239.000000	12.254196
3238.000000	12.276626
3237.000000	12.297883
3236.000000	12.319518
3235.000000	12.341920
3234.000000	12.365375
3233.000000	12.391460
3232.000000	12.420270
3231.000000	12.448210
3230.000000	12.471800
3229.000000	12.491923
3228.000000	12.511468
3227.000000	12.530907
3226.000000	12.549320
3225.000000	12.567734
3224.000000	12.587645
3223.000000	12.607826
3222.000000	12.625875
3221.000000	12.641615
3220.000000	12.655993
3219.000000	12.668206
3218.000000	12.677068
3217.000000	12.683666
3216.000000	12.689737
3215.000000	12.694983
3214.000000	12.698623
3213.000000	12.701949
3212.000000	12.706365
3211.000000	12.710608
3210.000000	12.712738
3209.000000	12.712961
3208.000000	12.711896
3207.000000	12.708014
3206.000000	12.699738
3205.000000	12.688370
3204.000000	12.675959
3203.000000	12.662248
3202.000000	12.646465
3201.000000	12.629982
3200.000000	12.614325
3199.000000	12.598231
3198.000000	12.579718
3197.000000	12.559143
3196.000000	12.537448
3195.000000	12.513505
3194.000000	12.486084
3193.000000	12.456577
3192.000000	12.426980
3191.000000	12.397000
3190.000000	12.366025
3189.000000	12.335659
3188.000000	12.307399
3187.000000	12.279768
3186.000000	12.250620
3185.000000	12.220391
3184.000000	12.190290
3183.000000	12.159441
3182.000000	12.126703
3181.000000	12.093324
3180.000000	12.060964
3179.000000	12.029102
3178.000000	11.997085
3177.000000	11.966597
3176.000000	11.939313
3175.000000	11.914153
3174.000000	11.889544
3173.000000	11.866124
3172.000000	11.844565
3171.000000	11.823211
3170.000000	11.800677
3169.000000	11.778542
3168.000000	11.758749
3167.000000	11.740583
3166.000000	11.723133
3165.000000	11.708114
3164.000000	11.697302
3163.000000	11.689502
3162.000000	11.682848
3161.000000	11.677937
3160.000000	11.675708
3159.000000	11.674605
3158.000000	11.672824
3157.000000	11.671071
3156.000000	11.670655
3155.000000	11.671284
3154.000000	11.673558
3153.000000	11.681002
3152.000000	11.696127
3151.000000	11.716754
3150.000000	11.738960
3149.000000	11.761519
3148.000000	11.784863
3147.000000	11.808194
3146.000000	11.830874
3145.000000	11.854438
3144.000000	11.880181
3143.000000	11.906937
3142.000000	11.933859
3141.000000	11.963356
3140.000000	11.998392
3139.000000	12.038729
3138.000000	12.082394
3137.000000	12.128523
3136.000000	12.176352
3135.000000	12.223843
3134.000000	12.269870
3133.000000	12.316121
3132.000000	12.364453
3131.000000	12.414688
3130.000000	12.466897
3129.000000	12.522936
3128.000000	12.583432
3127.000000	12.645785
3126.000000	12.707567
3125.000000	12.769223
3124.000000	12.831256
3123.000000	12.892001
3122.000000	12.950973
3121.000000	13.011417
3120.000000	13.076641
3119.000000	13.146259
3118.000000	13.218864
3117.000000	13.295456
3116.000000	13.377151
3115.000000	13.462032
3114.000000	13.547128
3113.000000	13.631531
3112.000000	13.715119
3111.000000	13.796907
3110.000000	13.877387
3109.000000	13.959943
3108.000000	14.047141
3107.000000	14.137738
3106.000000	14.229601
3105.000000	14.323073
3104.000000	14.418948
3103.000000	14.515895
3102.000000	14.612747
3101.000000	14.710868
3100.000000	14.811662
3099.000000	14.913741
3098.000000	15.015183
3097.000000	15.116351
3096.000000	15.218123
3095.000000	15.319755
3094.000000	15.420918
3093.000000	15.523630
3092.000000	15.629744
3091.000000	15.738418
3090.000000	15.847991
3089.000000	15.958053
3088.000000	16.067872
3087.000000	16.175572
3086.000000	16.281111
3085.000000	16.387597
3084.000000	16.497369
3083.000000	16.609270
3082.000000	16.721994
3081.000000	16.837238
3080.000000	16.957080
3079.000000	17.080579
3078.000000	17.205442
3077.000000	17.330733
3076.000000	17.455503
3075.000000	17.577340
3074.000000	17.694860
3073.000000	17.809722
3072.000000	17.923973
3071.000000	18.037606
3070.000000	18.150869
3069.000000	18.266486
3068.000000	18.386887
3067.000000	18.511077
3066.000000	18.636389
3065.000000	18.761476
3064.000000	18.885565
3063.000000	19.007049
3062.000000	19.125232
3061.000000	19.241776
3060.000000	19.358538
3059.000000	19.475748
3058.000000	19.593823
3057.000000	19.714572
3056.000000	19.838531
3055.000000	19.963181
3054.000000	20.085854
3053.000000	20.206597
3052.000000	20.326420
3051.000000	20.444824
3050.000000	20.560989
3049.000000	20.675497
3048.000000	20.789222
3047.000000	20.902304
3046.000000	21.015764
3045.000000	21.132021
3044.000000	21.252169
3043.000000	21.374548
3042.000000	21.497255
3041.000000	21.619729
3040.000000	21.740591
3039.000000	21.856612
3038.000000	21.966107
3037.000000	22.071418
3036.000000	22.176413
3035.000000	22.283350
3034.000000	22.393368
3033.000000	22.507610
3032.000000	22.625743
3031.000000	22.745361
3030.000000	22.864399
3029.000000	22.982413
3028.000000	23.098515
3027.000000	23.210672
3026.000000	23.318725
3025.000000	23.425613
3024.000000	23.533856
3023.000000	23.643004
3022.000000	23.752162
3021.000000	23.862508
3020.000000	23.975332
3019.000000	24.089608
3018.000000	24.203454
3017.000000	24.316103
3016.000000	24.426946
3015.000000	24.534789
3014.000000	24.639902
3013.000000	24.744979
3012.000000	24.852375
3011.000000	24.962047
3010.000000	25.073297
3009.000000	25.186392
3008.000000	25.300999
3007.000000	25.415172
3006.000000	25.527355
3005.000000	25.637585
3004.000000	25.745485
3003.000000	25.849241
3002.000000	25.948068
3001.000000	26.043850
3000.000000	26.139281
2999.000000	26.236200
2998.000000	26.336585
2997.000000	26.442394
2996.000000	26.552992
2995.000000	26.665040
2994.000000	26.776402
2993.000000	26.887821
2992.000000	26.999437
2991.000000	27.108367
2990.000000	27.211796
2989.000000	27.310293
2988.000000	27.406229
2987.000000	27.501022
2986.000000	27.595681
2985.000000	27.691917
2984.000000	27.790583
2983.000000	27.890540
2982.000000	27.990734
2981.000000	28.091624
2980.000000	28.193042
2979.000000	28.292578
2978.000000	28.388066
2977.000000	28.480265
2976.000000	28.571650
2975.000000	28.664129
2974.000000	28.759231
2973.000000	28.858424
2972.000000	28.961445
2971.000000	29.065723
2970.000000	29.168915
2969.000000	29.270514
2968.000000	29.369831
2967.000000	29.464601
2966.000000	29.553391
2965.000000	29.637847
2964.000000	29.721114
2963.000000	29.805555
2962.000000	29.893238
2961.000000	29.986300
2960.000000	30.084950
2959.000000	30.186606
2958.000000	30.288324
2957.000000	30.388391
2956.000000	30.484814
2955.000000	30.574972
2954.000000	30.658641
2953.000000	30.739043
2952.000000	30.819153
2951.000000	30.898897
2950.000000	30.977734
2949.000000	31.057640
2948.000000	31.141381
2947.000000	31.229565
2946.000000	31.321245
2945.000000	31.415763
2944.000000	31.511872
2943.000000	31.606593
2942.000000	31.697109
2941.000000	31.783233
2940.000000	31.866614
2939.000000	31.948805
2938.000000	32.031331
2937.000000	32.116151
2936.000000	32.204165
2935.000000	32.293939
2934.000000	32.383156
2933.000000	32.470418
2932.000000	32.555004
2931.000000	32.636330
2930.000000	32.714762
2929.000000	32.791622
2928.000000	32.867535
2927.000000	32.942342
2926.000000	33.017385
2925.000000	33.095850
2924.000000	33.179580
2923.000000	33.267156
2922.000000	33.356037
2921.000000	33.444662
2920.000000	33.531550
2919.000000	33.614443
2918.000000	33.691906
2917.000000	33.764426
2916.000000	33.833255
2915.000000	33.899813
2914.000000	33.966807
2913.000000	34.037750
2912.000000	34.114178
2911.000000	34.194751
2910.000000	34.277661
2909.000000	34.362135
2908.000000	34.446857
2907.000000	34.529325
2906.000000	34.608050
2905.000000	34.683879
2904.000000	34.758069
2903.000000	34.830838
2902.000000	34.902673
2901.000000	34.975586
2900.000000	35.050908
2899.000000	35.128261
2898.000000	35.206806
2897.000000	35.286168
2896.000000	35.365116
2895.000000	35.441131
2894.000000	35.512794
2893.000000	35.581390
2892.000000	35.649191
2891.000000	35.717556
2890.000000	35.787499
2889.000000	35.860413
2888.000000	35.936831
2887.000000	36.015575
2886.000000	36.095060
2885.000000	36.174245
2884.000000	36.251582
2883.000000	36.324782
2882.000000	36.392850
2881.000000	36.457201
2880.000000	36.519923
2879.000000	36.582381
2878.000000	36.646432
2877.000000	36.715200
2876.000000	36.790699
2875.000000	36.871254
2874.000000	36.952431
2873.000000	37.030072
2872.000000	37.102170
2871.000000	37.169186
2870.000000	37.233556
2869.000000	37.297968
2868.000000	37.363244
2867.000000	37.428421
2866.000000	37.493133
2865.000000	37.558628
2864.000000	37.626155
2863.000000	37.695581
2862.000000	37.765983
2861.000000	37.836020
2860.000000	37.903388
2859.000000	37.965858
2858.000000	38.023903
2857.000000	38.080970
2856.000000	38.140428
2855.000000	38.203499
2854.000000	38.270488
2853.000000	38.342022
2852.000000	38.417935
2851.000000	38.496395
2850.000000	38.575020
2849.000000	38.651701
2848.000000	38.724053
2847.000000	38.790053
2846.000000	38.850298
2845.000000	38.908351
2844.000000	38.968201
2843.000000	39.032487
2842.000000	39.103118
2841.000000	39.181101
2840.000000	39.264451
2839.000000	39.348179
2838.000000	39.428152
2837.000000	39.503985
2836.000000	39.577238
2835.000000	39.648343
2834.000000	39.716644
2833.000000	39.782239
2832.000000	39.846289
2831.000000	39.910131
2830.000000	39.975206
2829.000000	40.043088
2828.000000	40.114434
2827.000000	40.188289
2826.000000	40.263072
2825.000000	40.337586
2824.000000	40.410681
2823.000000	40.481067
2822.000000	40.548405
2821.000000	40.613893
2820.000000	40.679163
2819.000000	40.745349
2818.000000	40.813572
2817.000000	40.885088
2816.000000	40.960013
2815.000000	41.036739
2814.000000	41.113248
2813.000000	41.188074
2812.000000	41.259487
2811.000000	41.325073
2810.000000	41.383404
2809.000000	41.435581
2808.000000	41.484421
2807.000000	41.532797
2806.000000	41.583278
2805.000000	41.638127
2804.000000	41.698380
2803.000000	41.763283
2802.000000	41.831210
2801.000000	41.900506
2800.000000	41.969026
2799.000000	42.033979
2798.000000	42.093362
2797.000000	42.147315
2796.000000	42.197579
2795.000000	42.246232
2794.000000	42.295345
2793.000000	42.346869
2792.000000	42.401793
2791.000000	42.459649
2790.000000	42.519273
2789.000000	42.579513
2788.000000	42.639047
2787.000000	42.696526
2786.000000	42.751615
2785.000000	42.805349
2784.000000	42.859024
2783.000000	42.913382
2782.000000	42.969126
2781.000000	43.027129
2780.000000	43.087312
2779.000000	43.148032
2778.000000	43.207196
2777.000000	43.263329
2776.000000	43.315202
2775.000000	43.361253
2774.000000	43.400325
2773.000000	43.432657
2772.000000	43.459560
2771.000000	43.482753
2770.000000	43.504344
2769.000000	43.526524
2768.000000	43.550515
2767.000000	43.575935
2766.000000	43.601543
2765.000000	43.625949
2764.000000	43.647325
2763.000000	43.663566
2762.000000	43.673534
2761.000000	43.677783
2760.000000	43.677637
2759.000000	43.674176
2758.000000	43.668706
2757.000000	43.663205
2756.000000	43.659389
2755.000000	43.657703
2754.000000	43.657597
2753.000000	43.658286
2752.000000	43.658674
2751.000000	43.657200
2750.000000	43.652442
2749.000000	43.643493
2748.000000	43.629577
2747.000000	43.609889
2746.000000	43.584282
2745.000000	43.553438
2744.000000	43.517723
2743.000000	43.476794
2742.000000	43.430800
2741.000000	43.381276
2740.000000	43.330520
2739.000000	43.280794
2738.000000	43.234755
2737.000000	43.196039
2736.000000	43.168514
2735.000000	43.155322
2734.000000	43.159222
2733.000000	43.182352
2732.000000	43.225126
2731.000000	43.285933
2730.000000	43.362003
2729.000000	43.450640
2728.000000	43.548726
2727.000000	43.652173
2726.000000	43.757186
2725.000000	43.861477
2724.000000	43.964461
2723.000000	44.066489
2722.000000	44.167964
2721.000000	44.268732
2720.000000	44.367822
2719.000000	44.464148
2718.000000	44.557505
2717.000000	44.648264
2716.000000	44.736015
2715.000000	44.819460
2714.000000	44.897592
2713.000000	44.970241
2712.000000	45.037331
2711.000000	45.098230
2710.000000	45.152516
2709.000000	45.200303
2708.000000	45.241490
2707.000000	45.275603
2706.000000	45.302527
2705.000000	45.323146
2704.000000	45.338611
2703.000000	45.349701
2702.000000	45.357618
2701.000000	45.364461
2700.000000	45.372442
2699.000000	45.382923
2698.000000	45.396468
2697.000000	45.413178
2696.000000	45.432257
2695.000000	45.451772
2694.000000	45.469445
2693.000000	45.483510
2692.000000	45.492767
2691.000000	45.496469
2690.000000	45.494791
2689.000000	45.488973
2688.000000	45.480587
2687.000000	45.471116
2686.000000	45.462290
2685.000000	45.456068
2684.000000	45.453741
2683.000000	45.455352
2682.000000	45.460310
2681.000000	45.468027
2680.000000	45.477701
2679.000000	45.488173
2678.000000	45.498692
2677.000000	45.509313
2676.000000	45.520390
2675.000000	45.532135
2674.000000	45.544831
2673.000000	45.558935
2672.000000	45.574574
2671.000000	45.591516
2670.000000	45.609819
2669.000000	45.629851
2668.000000	45.651623
2667.000000	45.674724
2666.000000	45.699187
2665.000000	45.725612
2664.000000	45.754103
2663.000000	45.783933
2662.000000	45.814420
2661.000000	45.845251
2660.000000	45.875571
2659.000000	45.903537
2658.000000	45.927266
2657.000000	45.945715
2656.000000	45.958446
2655.000000	45.965447
2654.000000	45.967957
2653.000000	45.968551
2652.000000	45.969951
2651.000000	45.974243
2650.000000	45.983527
2649.000000	46.000337
2648.000000	46.026771
2647.000000	46.063598
2646.000000	46.110612
2645.000000	46.167445
2644.000000	46.232954
2643.000000	46.304956
2642.000000	46.381007
2641.000000	46.459080
2640.000000	46.537520
2639.000000	46.614602
2638.000000	46.688931
2637.000000	46.759830
2636.000000	46.826970
2635.000000	46.890035
2634.000000	46.949138
2633.000000	47.005032
2632.000000	47.058462
2631.000000	47.109771
2630.000000	47.159151
2629.000000	47.207029
2628.000000	47.253677
2627.000000	47.298781
2626.000000	47.341861
2625.000000	47.382449
2624.000000	47.419821
2623.000000	47.452839
2622.000000	47.480415
2621.000000	47.502046
2620.000000	47.517415
2619.000000	47.526280
2618.000000	47.529033
2617.000000	47.526851
2616.000000	47.521231
2615.000000	47.513312
2614.000000	47.504051
2613.000000	47.494404
2612.000000	47.484741
2611.000000	47.474713
2610.000000	47.463982
2609.000000	47.452833
2608.000000	47.441812
2607.000000	47.431258
2606.000000	47.421635
2605.000000	47.413988
2604.000000	47.409699
2603.000000	47.410087
2602.000000	47.416689
2601.000000	47.431001
2600.000000	47.453807
2599.000000	47.485076
2598.000000	47.524579
2597.000000	47.572600
2596.000000	47.629072
2595.000000	47.692989
2594.000000	47.763034
2593.000000	47.837970
2592.000000	47.916561
2591.000000	47.997064
2590.000000	48.077521
2589.000000	48.156336
2588.000000	48.232222
2587.000000	48.304212
2586.000000	48.372091
2585.000000	48.436640
2584.000000	48.499156
2583.000000	48.561040
2582.000000	48.623963
2581.000000	48.689930
2580.000000	48.760588
2579.000000	48.836510
2578.000000	48.917253
2577.000000	49.001930
2576.000000	49.089310
2575.000000	49.177667
2574.000000	49.265054
2573.000000	49.349759
2572.000000	49.430497
2571.000000	49.506337
2570.000000	49.576717
2569.000000	49.641300
2568.000000	49.699978
2567.000000	49.752730
2566.000000	49.799662
2565.000000	49.841122
2564.000000	49.877173
2563.000000	49.907602
2562.000000	49.932055
2561.000000	49.950139
2560.000000	49.961487
2559.000000	49.965471
2558.000000	49.961809
2557.000000	49.950900
2556.000000	49.933713
2555.000000	49.911952
2554.000000	49.888393
2553.000000	49.867158
2552.000000	49.852939
2551.000000	49.849814
2550.000000	49.860394
2549.000000	49.885937
2548.000000	49.926260
2547.000000	49.980009
2546.000000	50.045615
2545.000000	50.121290
2544.000000	50.205073
2543.000000	50.294470
2542.000000	50.386750
2541.000000	50.479644
2540.000000	50.571091
2539.000000	50.659059
2538.000000	50.741806
2537.000000	50.818544
2536.000000	50.889433
2535.000000	50.954996
2534.000000	51.015460
2533.000000	51.070842
2532.000000	51.121467
2531.000000	51.167940
2530.000000	51.211173
2529.000000	51.252169
2528.000000	51.291884
2527.000000	51.331258
2526.000000	51.371256
2525.000000	51.412997
2524.000000	51.457459
2523.000000	51.504996
2522.000000	51.555122
2521.000000	51.606721
2520.000000	51.658242
2519.000000	51.707803
2518.000000	51.753397
2517.000000	51.793370
2516.000000	51.826640
2515.000000	51.852934
2514.000000	51.873132
2513.000000	51.889451
2512.000000	51.905119
2511.000000	51.923244
2510.000000	51.946081
2509.000000	51.974842
2508.000000	52.009665
2507.000000	52.049373
2506.000000	52.091749
2505.000000	52.134269
2504.000000	52.174721
2503.000000	52.211352
2502.000000	52.243034
2501.000000	52.269696
2500.000000	52.292344
2499.000000	52.312366
2498.000000	52.330727
2497.000000	52.348108
2496.000000	52.365147
2495.000000	52.382269
2494.000000	52.399446
2493.000000	52.416363
2492.000000	52.432916
2491.000000	52.449401
2490.000000	52.466611
2489.000000	52.485895
2488.000000	52.508842
2487.000000	52.536307
2486.000000	52.567829
2485.000000	52.601877
2484.000000	52.636344
2483.000000	52.668581
2482.000000	52.695572
2481.000000	52.714830
2480.000000	52.725390
2479.000000	52.728105
2478.000000	52.725144
2477.000000	52.719754
2476.000000	52.715908
2475.000000	52.717421
2474.000000	52.726978
2473.000000	52.745729
2472.000000	52.773141
2471.000000	52.806876
2470.000000	52.843205
2469.000000	52.878075
2468.000000	52.908244
2467.000000	52.931561
2466.000000	52.946980
2465.000000	52.954894
2464.000000	52.957453
2463.000000	52.957779
2462.000000	52.958798
2461.000000	52.962651
2460.000000	52.970571
2459.000000	52.982721
2458.000000	52.998100
2457.000000	53.015131
2456.000000	53.032467
2455.000000	53.049419
2454.000000	53.065899
2453.000000	53.082564
2452.000000	53.100693
2451.000000	53.121393
2450.000000	53.144894
2449.000000	53.170505
2448.000000	53.196920
2447.000000	53.222102
2446.000000	53.243309
2445.000000	53.257898
2444.000000	53.264598
2443.000000	53.264044
2442.000000	53.258581
2441.000000	53.251974
2440.000000	53.248757
2439.000000	53.253046
2438.000000	53.267393
2437.000000	53.292578
2436.000000	53.327582
2435.000000	53.369533
2434.000000	53.413758
2433.000000	53.454825
2432.000000	53.488010
2431.000000	53.510247
2430.000000	53.520642
2429.000000	53.520961
2428.000000	53.515367
2427.000000	53.508737
2426.000000	53.505159
2425.000000	53.507510
2424.000000	53.517701
2423.000000	53.536150
2422.000000	53.561292
2421.000000	53.590236
2420.000000	53.620215
2419.000000	53.649197
2418.000000	53.675703
2417.000000	53.699100
2416.000000	53.720040
2415.000000	53.740135
2414.000000	53.760802
2413.000000	53.782578
2412.000000	53.805069
2411.000000	53.827050
2410.000000	53.846605
2409.000000	53.861866
2408.000000	53.871960
2407.000000	53.877209
2406.000000	53.879160
2405.000000	53.880893
2404.000000	53.886905
2403.000000	53.901500
2402.000000	53.927076
2401.000000	53.963606
2400.000000	54.009081
2399.000000	54.059727
2398.000000	54.110096
2397.000000	54.154401
2396.000000	54.188244
2395.000000	54.209539
2394.000000	54.218322
2393.000000	54.217016
2392.000000	54.210531
2391.000000	54.205253
2390.000000	54.207030
2389.000000	54.219726
2388.000000	54.244748
2387.000000	54.280732
2386.000000	54.323780
2385.000000	54.368868
2384.000000	54.411542
2383.000000	54.448649
2382.000000	54.478357
2381.000000	54.500810
2380.000000	54.518958
2379.000000	54.537547
2378.000000	54.561377
2377.000000	54.593791
2376.000000	54.636164
2375.000000	54.687359
2374.000000	54.743245
2373.000000	54.798453
2372.000000	54.848203
2371.000000	54.889767
2370.000000	54.922601
2369.000000	54.949104
2368.000000	54.974206
2367.000000	55.003796
2366.000000	55.041962
2365.000000	55.089423
2364.000000	55.144879
2363.000000	55.206568
2362.000000	55.269215
2361.000000	55.325597
2360.000000	55.372410
2359.000000	55.408507
2358.000000	55.436017
2357.000000	55.459273
2356.000000	55.483033
2355.000000	55.514765
2354.000000	55.556415
2353.000000	55.606887
2352.000000	55.662561
2351.000000	55.721613
2350.000000	55.782468
2349.000000	55.837229
2348.000000	55.883093
2347.000000	55.923675
2346.000000	55.966994
2345.000000	56.020249
2344.000000	56.079071
2343.000000	56.136827
2342.000000	56.183061
2341.000000	56.220959
2340.000000	56.259363
2339.000000	56.302524
2338.000000	56.350690
2337.000000	56.399813
2336.000000	56.449650
2335.000000	56.497852
2334.000000	56.544825
2333.000000	56.588423
2332.000000	56.633523
2331.000000	56.682654
2330.000000	56.743220
2329.000000	56.809709
2328.000000	56.881721
2327.000000	56.951794
2326.000000	57.017113
2325.000000	57.073420
2324.000000	57.118574
2323.000000	57.154972
2322.000000	57.183376
2321.000000	57.206852
2320.000000	57.229633
2319.000000	57.256640
2318.000000	57.293598
2317.000000	57.340143
2316.000000	57.398328
2315.000000	57.464339
2314.000000	57.537467
2313.000000	57.609751
2312.000000	57.678145
2311.000000	57.735581
2310.000000	57.780995
2309.000000	57.811266
2308.000000	57.831169
2307.000000	57.845331
2306.000000	57.861658
2305.000000	57.883474
2304.000000	57.914761
2303.000000	57.955622
2302.000000	58.006080
2301.000000	58.061926
2300.000000	58.120771
2299.000000	58.178302
2298.000000	58.232509
2297.000000	58.280462
2296.000000	58.323579
2295.000000	58.363571
2294.000000	58.403058
2293.000000	58.442539
2292.000000	58.482923
2291.000000	58.524357
2290.000000	58.565318
2289.000000	58.602843
2288.000000	58.634549
2287.000000	58.660242
2286.000000	58.680727
2285.000000	58.698143
2284.000000	58.715989
2283.000000	58.738869
2282.000000	58.770028
2281.000000	58.811123
2280.000000	58.862400
2279.000000	58.922240
2278.000000	58.985834
2277.000000	59.046367
2276.000000	59.098233
2275.000000	59.138144
2274.000000	59.164874
2273.000000	59.179153
2272.000000	59.185013
2271.000000	59.188521
2270.000000	59.195208
2269.000000	59.209067
2268.000000	59.233186
2267.000000	59.268909
2266.000000	59.314021
2265.000000	59.363499
2264.000000	59.412690
2263.000000	59.458552
2262.000000	59.498578
2261.000000	59.530996
2260.000000	59.556219
2259.000000	59.576865
2258.000000	59.595039
2257.000000	59.611432
2256.000000	59.626348
2255.000000	59.639757
2254.000000	59.650108
2253.000000	59.654579
2252.000000	59.651635
2251.000000	59.641805
2250.000000	59.626692
2249.000000	59.608217
2248.000000	59.589666
2247.000000	59.573965
2246.000000	59.562103
2245.000000	59.552746
2244.000000	59.543570
2243.000000	59.531245
2242.000000	59.510595
2241.000000	59.476255
2240.000000	59.425600
2239.000000	59.359499
2238.000000	59.281011
2237.000000	59.195477
2236.000000	59.111349
2235.000000	59.038103
2234.000000	58.982513
2233.000000	58.947247
2232.000000	58.932269
2231.000000	58.935094
2230.000000	58.949899
2229.000000	58.968731
2228.000000	58.984850
2227.000000	58.994511
2226.000000	58.996120
2225.000000	58.990060
2224.000000	58.979307
2223.000000	58.968292
2222.000000	58.960309
2221.000000	58.956795
2220.000000	58.958413
2219.000000	58.964684
2218.000000	58.972524
2217.000000	58.977237
2216.000000	58.975820
2215.000000	58.968293
2214.000000	58.956400
2213.000000	58.942999
2212.000000	58.932711
2211.000000	58.930765
2210.000000	58.940051
2209.000000	58.960093
2208.000000	58.988321
2207.000000	59.020646
2206.000000	59.050863
2205.000000	59.072108
2204.000000	59.080027
2203.000000	59.073987
2202.000000	59.055781
2201.000000	59.029332
2200.000000	59.001481
2199.000000	58.980468
2198.000000	58.972270
2197.000000	58.978814
2196.000000	58.999017
2195.000000	59.029311
2194.000000	59.063124
2193.000000	59.092156
2192.000000	59.109713
2191.000000	59.112358
2190.000000	59.099437
2189.000000	59.073199
2188.000000	59.039589
2187.000000	59.006525
2186.000000	58.980360
2185.000000	58.964526
2184.000000	58.960523
2183.000000	58.967869
2182.000000	58.982731
2181.000000	58.998972
2180.000000	59.011470
2179.000000	59.017890
2178.000000	59.018005
2177.000000	59.013740
2176.000000	59.010159
2175.000000	59.014039
2174.000000	59.030329
2173.000000	59.060462
2172.000000	59.103324
2171.000000	59.155520
2170.000000	59.210610
2169.000000	59.260613
2168.000000	59.299547
2167.000000	59.325024
2166.000000	59.337234
2165.000000	59.339024
2164.000000	59.337057
2163.000000	59.340306
2162.000000	59.355887
2161.000000	59.386964
2160.000000	59.433632
2159.000000	59.493330
2158.000000	59.560032
2157.000000	59.625538
2156.000000	59.682883
2155.000000	59.727938
2154.000000	59.758655
2153.000000	59.775433
2152.000000	59.782714
2151.000000	59.787742
2150.000000	59.796886
2149.000000	59.814049
2148.000000	59.841664
2147.000000	59.880137
2146.000000	59.926056
2145.000000	59.973191
2144.000000	60.016399
2143.000000	60.053286
2142.000000	60.082789
2141.000000	60.105161
2140.000000	60.123999
2139.000000	60.145683
2138.000000	60.175596
2137.000000	60.216027
2136.000000	60.267027
2135.000000	60.326485
2134.000000	60.388899
2133.000000	60.446749
2132.000000	60.494393
2131.000000	60.529632
2130.000000	60.552143
2129.000000	60.563505
2128.000000	60.568979
2127.000000	60.576389
2126.000000	60.592080
2125.000000	60.619241
2124.000000	60.659278
2123.000000	60.711714
2122.000000	60.772149
2121.000000	60.832995
2120.000000	60.887399
2119.000000	60.931274
2118.000000	60.962393
2117.000000	60.980951
2116.000000	60.991610
2115.000000	61.001809
2114.000000	61.017052
2113.000000	61.039333
2112.000000	61.069509
2111.000000	61.107863
2110.000000	61.151862
2109.000000	61.196398
2108.000000	61.237275
2107.000000	61.272552
2106.000000	61.300638
2105.000000	61.320572
2104.000000	61.334687
2103.000000	61.348033
2102.000000	61.364124
2101.000000	61.383224
2100.000000	61.404585
2099.000000	61.426781
2098.000000	61.445582
2097.000000	61.454822
2096.000000	61.450256
2095.000000	61.431043
2094.000000	61.398133
2093.000000	61.354856
2092.000000	61.309337
2091.000000	61.272469
2090.000000	61.251915
2089.000000	61.249601
2088.000000	61.264305
2087.000000	61.293429
2086.000000	61.331520
2085.000000	61.370732
2084.000000	61.404759
2083.000000	61.430721
2082.000000	61.447426
2081.000000	61.455196
2080.000000	61.458122
2079.000000	61.463401
2078.000000	61.476995
2077.000000	61.501897
2076.000000	61.539587
2075.000000	61.590313
2074.000000	61.650842
2073.000000	61.715086
2072.000000	61.778486
2071.000000	61.838718
2070.000000	61.892716
2069.000000	61.937702
2068.000000	61.976939
2067.000000	62.020497
2066.000000	62.077573
2065.000000	62.149620
2064.000000	62.231789
2063.000000	62.317785
2062.000000	62.401635
2061.000000	62.478205
2060.000000	62.544962
2059.000000	62.602307
2058.000000	62.651755
2057.000000	62.696046
2056.000000	62.740897
2055.000000	62.793699
2054.000000	62.858981
2053.000000	62.937021
2052.000000	63.026609
2051.000000	63.125010
2050.000000	63.224937
2049.000000	63.316418
2048.000000	63.392973
2047.000000	63.452678
2046.000000	63.494414
2045.000000	63.518739
2044.000000	63.533176
2043.000000	63.551270
2042.000000	63.584195
2041.000000	63.635660
2040.000000	63.704532
2039.000000	63.787816
2038.000000	63.879962
2037.000000	63.973753
2036.000000	64.064285
2035.000000	64.149662
2034.000000	64.228101
2033.000000	64.298229
2032.000000	64.362223
2031.000000	64.425157
2030.000000	64.489889
2029.000000	64.556543
2028.000000	64.625888
2027.000000	64.699054
2026.000000	64.773566
2025.000000	64.844036
2024.000000	64.907948
2023.000000	64.965046
2022.000000	65.012961
2021.000000	65.050084
2020.000000	65.083918
2019.000000	65.130501
2018.000000	65.202428
2017.000000	65.299853
2016.000000	65.413828
2015.000000	65.533159
2014.000000	65.646590
2013.000000	65.745073
2012.000000	65.825530
2011.000000	65.890256
2010.000000	65.942486
2009.000000	65.986158
2008.000000	66.028441
2007.000000	66.077948
2006.000000	66.139639
2005.000000	66.214134
2004.000000	66.302310
2003.000000	66.403905
2002.000000	66.513868
2001.000000	66.623834
2000.000000	66.728319
1999.000000	66.826340
1998.000000	66.913547
1997.000000	66.980918
1996.000000	67.024590
1995.000000	67.052895
1994.000000	67.081808
1993.000000	67.125095
1992.000000	67.187698
1991.000000	67.266081
1990.000000	67.351734
1989.000000	67.436552
1988.000000	67.517401
1987.000000	67.593515
1986.000000	67.662335
1985.000000	67.722426
1984.000000	67.779319
1983.000000	67.841567
1982.000000	67.912197
1981.000000	67.987722
1980.000000	68.064744
1979.000000	68.142061
1978.000000	68.214079
1977.000000	68.271955
1976.000000	68.312615
1975.000000	68.340599
1974.000000	68.359827
1973.000000	68.370306
1972.000000	68.373542
1971.000000	68.374673
1970.000000	68.379652
1969.000000	68.398293
1968.000000	68.445732
1967.000000	68.528392
1966.000000	68.630797
1965.000000	68.726553
1964.000000	68.800682
1963.000000	68.854505
1962.000000	68.892725
1961.000000	68.916644
1960.000000	68.930384
1959.000000	68.942320
1958.000000	68.957806
1957.000000	68.978961
1956.000000	69.010719
1955.000000	69.057681
1954.000000	69.113695
1953.000000	69.165585
1952.000000	69.207182
1951.000000	69.239483
1950.000000	69.262574
1949.000000	69.275558
1948.000000	69.283108
1947.000000	69.291957
1946.000000	69.301226
1945.000000	69.308856
1944.000000	69.326993
1943.000000	69.372791
1942.000000	69.443094
1941.000000	69.515669
1940.000000	69.572722
1939.000000	69.610535
1938.000000	69.631004
1937.000000	69.637395
1936.000000	69.639943
1935.000000	69.653971
1934.000000	69.686445
1933.000000	69.733879
1932.000000	69.792356
1931.000000	69.857953
1930.000000	69.923669
1929.000000	69.977366
1928.000000	70.008331
1927.000000	70.009548
1926.000000	69.977766
1925.000000	69.927388
1924.000000	69.891215
1923.000000	69.895036
1922.000000	69.934399
1921.000000	69.984581
1920.000000	70.028149
1919.000000	70.066633
1918.000000	70.106800
1917.000000	70.150782
1916.000000	70.196520
1915.000000	70.237775
1914.000000	70.261839
1913.000000	70.259141
1912.000000	70.238978
1911.000000	70.226253
1910.000000	70.241307
1909.000000	70.284022
1908.000000	70.343046
1907.000000	70.406875
1906.000000	70.462913
1905.000000	70.503253
1904.000000	70.527621
1903.000000	70.541699
1902.000000	70.550465
1901.000000	70.553360
1900.000000	70.549853
1899.000000	70.542528
1898.000000	70.533970
1897.000000	70.531992
1896.000000	70.548708
1895.000000	70.586509
1894.000000	70.628016
1893.000000	70.648223
1892.000000	70.638111
1891.000000	70.614653
1890.000000	70.599997
1889.000000	70.599988
1888.000000	70.610899
1887.000000	70.629629
1886.000000	70.652568
1885.000000	70.675907
1884.000000	70.698332
1883.000000	70.719325
1882.000000	70.735853
1881.000000	70.743204
1880.000000	70.742662
1879.000000	70.741507
1878.000000	70.742409
1877.000000	70.743972
1876.000000	70.748341
1875.000000	70.757703
1874.000000	70.766397
1873.000000	70.761447
1872.000000	70.729336
1871.000000	70.666527
1870.000000	70.594203
1869.000000	70.551026
1868.000000	70.560529
1867.000000	70.614382
1866.000000	70.681422
1865.000000	70.730785
1864.000000	70.753715
1863.000000	70.762331
1862.000000	70.770127
1861.000000	70.782375
1860.000000	70.801603
1859.000000	70.828769
1858.000000	70.856943
1857.000000	70.874433
1856.000000	70.877641
1855.000000	70.871908
1854.000000	70.861686
1853.000000	70.843878
1852.000000	70.814301
1851.000000	70.776350
1850.000000	70.733258
1849.000000	70.691040
1848.000000	70.661111
1847.000000	70.648190
1846.000000	70.633195
1845.000000	70.589150
1844.000000	70.527411
1843.000000	70.493892
1842.000000	70.503847
1841.000000	70.528399
1840.000000	70.542902
1839.000000	70.550405
1838.000000	70.565332
1837.000000	70.590779
1836.000000	70.615187
1835.000000	70.625646
1834.000000	70.608797
1833.000000	70.543153
1832.000000	70.420480
1831.000000	70.275107
1830.000000	70.152519
1829.000000	70.070639
1828.000000	70.026314
1827.000000	70.007902
1826.000000	70.004905
1825.000000	70.016374
1824.000000	70.050044
1823.000000	70.104384
1822.000000	70.152277
1821.000000	70.160227
1820.000000	70.122018
1819.000000	70.057515
1818.000000	69.984217
1817.000000	69.908845
1816.000000	69.832746
1815.000000	69.754711
1814.000000	69.668896
1813.000000	69.576799
1812.000000	69.499885
1811.000000	69.452921
1810.000000	69.426093
1809.000000	69.404632
1808.000000	69.384865
1807.000000	69.364474
1806.000000	69.330847
1805.000000	69.274034
1804.000000	69.202997
1803.000000	69.144189
1802.000000	69.119531
1801.000000	69.126051
1800.000000	69.144627
1799.000000	69.150696
1798.000000	69.128205
1797.000000	69.078304
1796.000000	69.013888
1795.000000	68.937000
1794.000000	68.831744
1793.000000	68.706641
1792.000000	68.622177
1791.000000	68.628012
1790.000000	68.708793
1789.000000	68.809356
1788.000000	68.885536
1787.000000	68.919008
1786.000000	68.906540
1785.000000	68.852811
1784.000000	68.765820
1783.000000	68.656269
1782.000000	68.535042
1781.000000	68.411193
1780.000000	68.301796
1779.000000	68.214699
1778.000000	68.133511
1777.000000	68.033467
1776.000000	67.919042
1775.000000	67.816118
1774.000000	67.728145
1773.000000	67.639797
1772.000000	67.561072
1771.000000	67.517593
1770.000000	67.506033
1769.000000	67.504511
1768.000000	67.506000
1767.000000	67.516952
1766.000000	67.528678
1765.000000	67.512181
1764.000000	67.447653
1763.000000	67.340376
1762.000000	67.207378
1761.000000	67.066460
1760.000000	66.939005
1759.000000	66.832963
1758.000000	66.743637
1757.000000	66.657665
1756.000000	66.580644
1755.000000	66.526853
1754.000000	66.476572
1753.000000	66.387866
1752.000000	66.247938
1751.000000	66.101433
1750.000000	65.994718
1749.000000	65.920595
1748.000000	65.846263
1747.000000	65.757482
1746.000000	65.646973
1745.000000	65.513853
1744.000000	65.390952
1743.000000	65.314759
1742.000000	65.269636
1741.000000	65.201425
1740.000000	65.094755
1739.000000	64.988848
1738.000000	64.903785
1737.000000	64.806044
1736.000000	64.640150
1735.000000	64.376001
1734.000000	64.085330
1733.000000	63.887857
1732.000000	63.805711
1731.000000	63.778874
1730.000000	63.754343
1729.000000	63.689731
1728.000000	63.571614
1727.000000	63.412543
1726.000000	63.211898
1725.000000	62.964479
1724.000000	62.701224
1723.000000	62.465078
1722.000000	62.252629
1721.000000	62.006532
1720.000000	61.682142
1719.000000	61.319789
1718.000000	61.019038
1717.000000	60.834693
1716.000000	60.742857
1715.000000	60.674074
1714.000000	60.564098
1713.000000	60.387731
1712.000000	60.152853
1711.000000	59.879178
1710.000000	59.581149
1709.000000	59.264828
1708.000000	58.936567
1707.000000	58.614715
1706.000000	58.324212
1705.000000	58.095788
1704.000000	57.959275
1703.000000	57.907212
1702.000000	57.798923
1701.000000	57.415613
1700.000000	56.827949
1699.000000	56.332239
1698.000000	56.031721
1697.000000	55.854898
1696.000000	55.677280
1695.000000	55.463489
1694.000000	55.265282
1693.000000	55.061105
1692.000000	54.811374
1691.000000	54.506586
1690.000000	54.160369
1689.000000	53.798149
1688.000000	53.457656
1687.000000	53.164226
1686.000000	52.872186
1685.000000	52.534533
1684.000000	52.193672
1683.000000	51.944032
1682.000000	51.799943
1681.000000	51.687603
1680.000000	51.567379
1679.000000	51.432771
1678.000000	51.269751
1677.000000	51.018317
1676.000000	50.626093
1675.000000	50.158593
1674.000000	49.749397
1673.000000	49.430812
1672.000000	49.159030
1671.000000	48.906295
1670.000000	48.673620
1669.000000	48.462909
1668.000000	48.284501
1667.000000	48.143620
1666.000000	48.004316
1665.000000	47.802654
1664.000000	47.502033
1663.000000	47.138069
1662.000000	46.783755
1661.000000	46.469946
1660.000000	46.186174
1659.000000	45.921856
1658.000000	45.661151
1657.000000	45.386173
1656.000000	45.093342
1655.000000	44.786734
1654.000000	44.439888
1653.000000	44.025388
1652.000000	43.693246
1651.000000	43.516091
1650.000000	43.350327
1649.000000	43.120555
1648.000000	42.852610
1647.000000	42.608091
1646.000000	42.407549
1645.000000	42.243461
1644.000000	42.082911
1643.000000	41.900510
1642.000000	41.685657
1641.000000	41.422423
1640.000000	41.115607
1639.000000	40.801565
1638.000000	40.510752
1637.000000	40.247374
1636.000000	39.997322
1635.000000	39.781968
1634.000000	39.640214
1633.000000	39.544878
1632.000000	39.450551
1631.000000	39.335204
1630.000000	39.180199
1629.000000	38.974702
1628.000000	38.738057
1627.000000	38.510496
1626.000000	38.307354
1625.000000	38.104183
1624.000000	37.892503
1623.000000	37.707991
1622.000000	37.582222
1621.000000	37.493743
1620.000000	37.406159
1619.000000	37.314355
1618.000000	37.226587
1617.000000	37.139167
1616.000000	37.056437
1615.000000	37.001816
1614.000000	36.970972
1613.000000	36.936124
1612.000000	36.883814
1611.000000	36.828272
1610.000000	36.791954
1609.000000	36.774469
1608.000000	36.761467
1607.000000	36.747352
1606.000000	36.729332
1605.000000	36.692936
1604.000000	36.636532
1603.000000	36.585713
1602.000000	36.563796
1601.000000	36.567456
1600.000000	36.587122
1599.000000	36.628038
1598.000000	36.693394
1597.000000	36.769172
1596.000000	36.841758
1595.000000	36.910737
1594.000000	36.971836
1593.000000	37.006749
1592.000000	37.006035
1591.000000	36.985778
1590.000000	36.967449
1589.000000	36.955372
1588.000000	36.948711
1587.000000	36.958020
1586.000000	36.993049
1585.000000	37.044887
1584.000000	37.096779
1583.000000	37.147268
1582.000000	37.191859
1581.000000	37.204357
1580.000000	37.162259
1579.000000	37.082769
1578.000000	37.010114
1577.000000	36.973929
1576.000000	36.973127
1575.000000	37.007699
1574.000000	37.067953
1573.000000	37.118639
1572.000000	37.133851
1571.000000	37.108746
1570.000000	37.067279
1569.000000	37.028477
1568.000000	36.995157
1567.000000	36.975290
1566.000000	36.971523
1565.000000	36.977056
1564.000000	36.986538
1563.000000	37.017606
1562.000000	37.085803
1561.000000	37.125225
1560.000000	37.117566
1559.000000	37.220686
1558.000000	37.404427
1557.000000	37.577267
1556.000000	37.706542
1555.000000	37.825289
1554.000000	37.950301
1553.000000	38.066529
1552.000000	38.175368
1551.000000	38.320176
1550.000000	38.538752
1549.000000	38.804123
1548.000000	39.051558
1547.000000	39.244253
1546.000000	39.389652
1545.000000	39.519030
1544.000000	39.647391
1543.000000	39.760246
1542.000000	39.861249
1541.000000	40.042226
1540.000000	40.367734
1539.000000	40.767423
1538.000000	41.159791
1537.000000	41.487821
1536.000000	41.746157
1535.000000	41.974713
1534.000000	42.231537
1533.000000	42.530130
1532.000000	42.832217
1531.000000	43.115781
1530.000000	43.383267
1529.000000	43.645124
1528.000000	43.929361
1527.000000	44.274383
1526.000000	44.677810
1525.000000	45.077649
1524.000000	45.424614
1523.000000	45.758947
1522.000000	46.166466
1521.000000	46.631203
1520.000000	47.044654
1519.000000	47.366063
1518.000000	47.665661
1517.000000	48.036406
1516.000000	48.485843
1515.000000	48.965574
1514.000000	49.440729
1513.000000	49.887676
1512.000000	50.282192
1511.000000	50.599285
1510.000000	50.828945
1509.000000	51.014632
1508.000000	51.349443
1507.000000	51.975445
1506.000000	52.682915
1505.000000	53.280573
1504.000000	53.739099
1503.000000	54.119870
1502.000000	54.490260
1501.000000	54.854537
1500.000000	55.179475
1499.000000	55.470662
1498.000000	55.781369
1497.000000	56.145424
1496.000000	56.543306
1495.000000	56.935797
1494.000000	57.286632
1493.000000	57.562022
1492.000000	57.760507
1491.000000	57.961914
1490.000000	58.280578
1489.000000	58.716237
1488.000000	59.176460
1487.000000	59.588927
1486.000000	59.921741
1485.000000	60.153547
1484.000000	60.282071
1483.000000	60.353193
1482.000000	60.425983
1481.000000	60.529311
1480.000000	60.657708
1479.000000	60.796481
1478.000000	60.922237
1477.000000	61.013090
1476.000000	61.069854
1475.000000	61.106086
1474.000000	61.123821
1473.000000	61.100621
1472.000000	61.019529
1471.000000	60.899074
1470.000000	60.740808
1469.000000	60.513801
1468.000000	60.209038
1467.000000	59.839265
1466.000000	59.405920
1465.000000	58.900092
1464.000000	58.360894
1463.000000	57.854024
1462.000000	57.362652
1461.000000	56.804867
1460.000000	56.138008
1459.000000	55.387250
1458.000000	54.567050
1457.000000	53.651011
1456.000000	52.757834
1455.000000	52.026873
1454.000000	51.343319
1453.000000	50.528428
1452.000000	49.534216
1451.000000	48.412146
1450.000000	47.160396
1449.000000	45.711612
1448.000000	44.090861
1447.000000	42.439251
1446.000000	40.827756
1445.000000	39.198945
1444.000000	37.507858
1443.000000	35.759881
1442.000000	33.944234
1441.000000	32.064297
1440.000000	30.180752
1439.000000	28.279313
1438.000000	26.143486
1437.000000	23.615617
1436.000000	21.022996
1435.000000	18.864636
1434.000000	17.164560
1433.000000	15.680104
1432.000000	14.337737
1431.000000	13.221558
1430.000000	12.361645
1429.000000	11.732967
1428.000000	11.388750
1427.000000	11.379885
1426.000000	11.647503
1425.000000	12.129968
1424.000000	12.849197
1423.000000	13.780782
1422.000000	14.802523
1421.000000	15.878558
1420.000000	17.140227
1419.000000	18.657404
1418.000000	20.224259
1417.000000	21.648101
1416.000000	22.986682
1415.000000	24.340722
1414.000000	25.691022
1413.000000	26.997072
1412.000000	28.297514
1411.000000	29.634076
1410.000000	30.969464
1409.000000	32.261556
1408.000000	33.539725
1407.000000	34.852941
1406.000000	36.216661
1405.000000	37.624329
1404.000000	39.044650
1403.000000	40.399855
1402.000000	41.622999
1401.000000	42.737015
1400.000000	43.825991
1399.000000	44.918450
1398.000000	45.963319
1397.000000	46.961869
1396.000000	48.010810
1395.000000	49.176792
1394.000000	50.403241
1393.000000	51.592594
1392.000000	52.706656
1391.000000	53.741529
1390.000000	54.695134
1389.000000	55.590129
1388.000000	56.471094
1387.000000	57.340641
1386.000000	58.143776
1385.000000	58.842886
1384.000000	59.441549
1383.000000	59.941062
1382.000000	60.326693
1381.000000	60.586337
1380.000000	60.704320
1379.000000	60.644735
1378.000000	60.365725
1377.000000	59.838894
1376.000000	59.038374
1375.000000	57.950692
1374.000000	56.610221
1373.000000	55.104794
1372.000000	53.534703
1371.000000	51.985132
1370.000000	50.572756
1369.000000	49.474470
1368.000000	48.862256
1367.000000	48.797364
1366.000000	49.218194
1365.000000	50.025336
1364.000000	51.148892
1363.000000	52.525064
1362.000000	54.029740
1361.000000	55.507217
1360.000000	56.851663
1359.000000	58.016517
1358.000000	58.978655
1357.000000	59.712998
1356.000000	60.181216
1355.000000	60.336612
1354.000000	60.142791
1353.000000	59.581988
1352.000000	58.657891
1351.000000	57.391682
1350.000000	55.826721
1349.000000	54.021243
1348.000000	52.024106
1347.000000	49.866261
1346.000000	47.566530
1345.000000	45.139104
1344.000000	42.605692
1343.000000	39.992432
1342.000000	37.322399
1341.000000	34.636186
1340.000000	32.036152
1339.000000	29.685736
1338.000000	27.733491
1337.000000	26.236192
1336.000000	25.164095
1335.000000	24.435947
1334.000000	23.919269
1333.000000	23.442841
1332.000000	22.842413
1331.000000	22.000513
1330.000000	20.857599
1329.000000	19.411690
1328.000000	17.722564
1327.000000	15.899581
1326.000000	14.063206
1325.000000	12.315844
1324.000000	10.749220
1323.000000	9.445107
1322.000000	8.442944
1321.000000	7.725886
1320.000000	7.252767
1319.000000	6.973420
1318.000000	6.817854
1317.000000	6.708713
1316.000000	6.599540
1315.000000	6.486209
1314.000000	6.372334
1313.000000	6.255338
1312.000000	6.146341
1311.000000	6.070243
1310.000000	6.041710
1309.000000	6.063005
1308.000000	6.150013
1307.000000	6.332083
1306.000000	6.620935
1305.000000	7.007477
1304.000000	7.486416
1303.000000	8.057583
1302.000000	8.704267
1301.000000	9.394434
1300.000000	10.110161
1299.000000	10.849984
1298.000000	11.605616
1297.000000	12.360473
1296.000000	13.107665
1295.000000	13.849016
1294.000000	14.576037
1293.000000	15.272492
1292.000000	15.933375
1291.000000	16.564222
1290.000000	17.160823
1289.000000	17.707459
1288.000000	18.190474
1287.000000	18.593750
1286.000000	18.889837
1285.000000	19.054606
1284.000000	19.099296
1283.000000	19.078893
1282.000000	19.067627
1281.000000	19.134432
1280.000000	19.331201
1279.000000	19.678757
1278.000000	20.156298
1277.000000	20.720493
1276.000000	21.335642
1275.000000	21.980339
1274.000000	22.635529
1273.000000	23.283055
1272.000000	23.915506
1271.000000	24.530747
1270.000000	25.119668
1269.000000	25.671465
1268.000000	26.188332
1267.000000	26.682654
1266.000000	27.163383
1265.000000	27.634880
1264.000000	28.104706
1263.000000	28.581653
1262.000000	29.065453
1261.000000	29.548474
1260.000000	30.023959
1259.000000	30.484596
1258.000000	30.919071
1257.000000	31.319693
1256.000000	31.691966
1255.000000	32.049801
1254.000000	32.404719
1253.000000	32.765662
1252.000000	33.142958
1251.000000	33.543294
1250.000000	33.962337
1249.000000	34.387971
1248.000000	34.808346
1247.000000	35.212551
1246.000000	35.588851
1245.000000	35.930306
1244.000000	36.240454
1243.000000	36.530026
1242.000000	36.809989
1241.000000	37.091216
1240.000000	37.385901
1239.000000	37.701929
1238.000000	38.037145
1237.000000	38.382209
1236.000000	38.726807
1235.000000	39.060760
1234.000000	39.373722
1233.000000	39.659731
1232.000000	39.921212
1231.000000	40.166657
1230.000000	40.406564
1229.000000	40.651954
1228.000000	40.913024
1227.000000	41.194773
1226.000000	41.494300
1225.000000	41.803266
1224.000000	42.110795
1223.000000	42.404506
1222.000000	42.673899
1221.000000	42.916184
1220.000000	43.138108
1219.000000	43.351578
1218.000000	43.569352
1217.000000	43.803425
1216.000000	44.062516
1215.000000	44.348263
1214.000000	44.654727
1213.000000	44.971162
1212.000000	45.283445
1211.000000	45.574861
1210.000000	45.831887
1209.000000	46.051175
1208.000000	46.240067
1207.000000	46.411983
1206.000000	46.582594
1205.000000	46.767985
1204.000000	46.980346
1203.000000	47.223215
1202.000000	47.491224
1201.000000	47.773087
1200.000000	48.053495
1199.000000	48.315215
1198.000000	48.544303
1197.000000	48.734931
1196.000000	48.887543
1195.000000	49.005846
1194.000000	49.096092
1193.000000	49.164187
1192.000000	49.210901
1191.000000	49.228213
1190.000000	49.206288
1189.000000	49.143147
1188.000000	49.048432
1187.000000	48.942698
1186.000000	48.853509
1185.000000	48.808350
1184.000000	48.825691
1183.000000	48.911924
1182.000000	49.064012
1181.000000	49.276755
1180.000000	49.544113
1179.000000	49.855805
1178.000000	50.197307
1177.000000	50.549487
1176.000000	50.889906
1175.000000	51.196655
1174.000000	51.456280
1173.000000	51.667488
1172.000000	51.838303
1171.000000	51.982719
1170.000000	52.120482
1169.000000	52.273497
1168.000000	52.456754
1167.000000	52.673985
1166.000000	52.920527
1165.000000	53.185871
1164.000000	53.452895
1163.000000	53.701638
1162.000000	53.919048
1161.000000	54.103428
1160.000000	54.259637
1159.000000	54.396393
1158.000000	54.528462
1157.000000	54.674218
1156.000000	54.846028
1155.000000	55.045196
1154.000000	55.266014
1153.000000	55.498291
1152.000000	55.725503
1151.000000	55.928473
1150.000000	56.096176
1149.000000	56.230560
1148.000000	56.340369
1147.000000	56.437476
1146.000000	56.539314
1145.000000	56.665130
1144.000000	56.824728
1143.000000	57.014057
1142.000000	57.222046
1141.000000	57.435482
1140.000000	57.636743
1139.000000	57.806819
1138.000000	57.935547
1137.000000	58.025353
1136.000000	58.085121
1135.000000	58.126859
1134.000000	58.169041
1133.000000	58.232712
1132.000000	58.330209
1131.000000	58.461538
1130.000000	58.621277
1129.000000	58.801257
1128.000000	58.986313
1127.000000	59.156764
1126.000000	59.299958
1125.000000	59.414864
1124.000000	59.505638
1123.000000	59.579041
1122.000000	59.648599
1121.000000	59.731415
1120.000000	59.836225
1119.000000	59.960356
1118.000000	60.097780
1117.000000	60.242187
1116.000000	60.382073
1115.000000	60.503394
1114.000000	60.601305
1113.000000	60.682904
1112.000000	60.757831
1111.000000	60.834577
1110.000000	60.925891
1109.000000	61.045594
1108.000000	61.196362
1107.000000	61.367085
1106.000000	61.543256
1105.000000	61.711842
1104.000000	61.856591
1103.000000	61.961126
1102.000000	62.021230
1101.000000	62.047778
1100.000000	62.055273
1099.000000	62.058507
1098.000000	62.077111
1097.000000	62.131957
1096.000000	62.231558
1095.000000	62.368834
1094.000000	62.531631
1093.000000	62.707442
1092.000000	62.878571
1091.000000	63.024781
1090.000000	63.136352
1089.000000	63.217521
1088.000000	63.276972
1087.000000	63.324588
1086.000000	63.376973
1085.000000	63.452812
1084.000000	63.558119
1083.000000	63.683802
1082.000000	63.817563
1081.000000	63.949339
1080.000000	64.065906
1079.000000	64.153452
1078.000000	64.210269
1077.000000	64.247470
1076.000000	64.276823
1075.000000	64.306848
1074.000000	64.348809
1073.000000	64.413055
1072.000000	64.495100
1071.000000	64.574538
1070.000000	64.629087
1069.000000	64.639595
1068.000000	64.586337
1067.000000	64.453271
1066.000000	64.243326
1065.000000	63.981930
1064.000000	63.704874
1063.000000	63.452456
1062.000000	63.269470
1061.000000	63.194552
1060.000000	63.240615
1059.000000	63.393556
1058.000000	63.624439
1057.000000	63.899275
1056.000000	64.179884
1055.000000	64.430612
1054.000000	64.635180
1053.000000	64.797889
1052.000000	64.930721
1051.000000	65.047827
1050.000000	65.171050
1049.000000	65.323396
1048.000000	65.511853
1047.000000	65.724796
1046.000000	65.946482
1045.000000	66.163557
1044.000000	66.358612
1043.000000	66.513952
1042.000000	66.626415
1041.000000	66.708951
1040.000000	66.777012
1039.000000	66.843635
1038.000000	66.925842
1037.000000	67.040438
1036.000000	67.188639
1035.000000	67.355179
1034.000000	67.522806
1033.000000	67.678374
1032.000000	67.806559
1031.000000	67.893301
1030.000000	67.940606
1029.000000	67.967147
1028.000000	67.993502
1027.000000	68.036291
1026.000000	68.114470
1025.000000	68.244239
1024.000000	68.423843
1023.000000	68.632623
1022.000000	68.846694
1021.000000	69.045739
1020.000000	69.207023
1019.000000	69.310237
1018.000000	69.353891
1017.000000	69.357177
1016.000000	69.343692
1015.000000	69.335301
1014.000000	69.357115
1013.000000	69.431343
1012.000000	69.560640
1011.000000	69.727946
1010.000000	69.912182
1009.000000	70.094698
1008.000000	70.252884
1007.000000	70.364896
1006.000000	70.426066
1005.000000	70.451023
1004.000000	70.459168
1003.000000	70.468107
1002.000000	70.498743
1001.000000	70.569640
1000.000000	70.682518
999.000000	70.822191
998.000000	70.971623
997.000000	71.116509
996.000000	71.238280
995.000000	71.318797
994.000000	71.356679
993.000000	71.368322
992.000000	71.372704
991.000000	71.385910
990.000000	71.426854
989.000000	71.511625
988.000000	71.637882
987.000000	71.785570
986.000000	71.933541
985.000000	72.066175
984.000000	72.166514
983.000000	72.219950
982.000000	72.229116
981.000000	72.213980
980.000000	72.196059
979.000000	72.192673
978.000000	72.223018
977.000000	72.302572
976.000000	72.427838
975.000000	72.577100
974.000000	72.727619
973.000000	72.861707
972.000000	72.959752
971.000000	73.005018
970.000000	72.999747
969.000000	72.965108
968.000000	72.924027
967.000000	72.895424
966.000000	72.900620
965.000000	72.957707
964.000000	73.065084
963.000000	73.202054
962.000000	73.345673
961.000000	73.477204
960.000000	73.575078
959.000000	73.620486
958.000000	73.614445
957.000000	73.578147
956.000000	73.535083
955.000000	73.503484
954.000000	73.502748
953.000000	73.548330
952.000000	73.636792
951.000000	73.747425
950.000000	73.860239
949.000000	73.960625
948.000000	74.030487
947.000000	74.052818
946.000000	74.029807
945.000000	73.982734
944.000000	73.933871
943.000000	73.899419
942.000000	73.896058
941.000000	73.936006
940.000000	74.012135
939.000000	74.100865
938.000000	74.180781
937.000000	74.237969
936.000000	74.257005
935.000000	74.225755
934.000000	74.152326
933.000000	74.063392
932.000000	73.983745
931.000000	73.929406
930.000000	73.915675
929.000000	73.952466
928.000000	74.028623
927.000000	74.114672
926.000000	74.183327
925.000000	74.215132
924.000000	74.189384
923.000000	74.090268
922.000000	73.925838
921.000000	73.727178
920.000000	73.525968
919.000000	73.344964
918.000000	73.205129
917.000000	73.121282
916.000000	73.086521
915.000000	73.073435
914.000000	73.052952
913.000000	73.002281
912.000000	72.897164
911.000000	72.717282
910.000000	72.463456
909.000000	72.157273
908.000000	71.822957
907.000000	71.479231
906.000000	71.146389
905.000000	70.841095
904.000000	70.561122
903.000000	70.287716
902.000000	70.001872
901.000000	69.688896
900.000000	69.330872
899.000000	68.911538
898.000000	68.432184
897.000000	67.908429
896.000000	67.353976
895.000000	66.777115
894.000000	66.187544
893.000000	65.592611
892.000000	64.982919
891.000000	64.335657
890.000000	63.631701
889.000000	62.859444
888.000000	62.009815
887.000000	61.079049
886.000000	60.079235
885.000000	59.034603
884.000000	57.965016
883.000000	56.882726
882.000000	55.796261
881.000000	54.707560
880.000000	53.606028
879.000000	52.472607
878.000000	51.291657
877.000000	50.053419
876.000000	48.752286
875.000000	47.392299
874.000000	45.992275
873.000000	44.581446
872.000000	43.189915
871.000000	41.844412
870.000000	40.565026
869.000000	39.363235
868.000000	38.241331
867.000000	37.195447
866.000000	36.218199
865.000000	35.298170
864.000000	34.426445
863.000000	33.599074
862.000000	32.815442
861.000000	32.077082
860.000000	31.386901
859.000000	30.750662
858.000000	30.171131
857.000000	29.644821
856.000000	29.167272
855.000000	28.735030
854.000000	28.345073
853.000000	27.993396
852.000000	27.678885
851.000000	27.407845
850.000000	27.188454
849.000000	27.028446
848.000000	26.936603
847.000000	26.922088
846.000000	26.991428
845.000000	27.143288
844.000000	27.373953
843.000000	27.681852
842.000000	28.063784
841.000000	28.513324
840.000000	29.021948
839.000000	29.586468
838.000000	30.209350
837.000000	30.891829
836.000000	31.634051
835.000000	32.436036
834.000000	33.292311
833.000000	34.168899
832.000000	34.984500
831.000000	35.567472
830.000000	35.611915
829.000000	34.687110
828.000000	32.449505
827.000000	29.029175
826.000000	25.232564
825.000000	22.234574
824.000000	20.906296
823.000000	21.347848
822.000000	23.012841
821.000000	25.214549
820.000000	27.478276
819.000000	29.570530
818.000000	31.408816
817.000000	32.993537
816.000000	34.379189
815.000000	35.619832
814.000000	36.748421
813.000000	37.791249
812.000000	38.779520
811.000000	39.728450
810.000000	40.632597
809.000000	41.485753
808.000000	42.287254
807.000000	43.032270
806.000000	43.712144
805.000000	44.330112
804.000000	44.899653
803.000000	45.426434
802.000000	45.912144
801.000000	46.372177
800.000000	46.833949
799.000000	47.316526
798.000000	47.825521
797.000000	48.364572
796.000000	48.934020
795.000000	49.519798
794.000000	50.099075
793.000000	50.656446
792.000000	51.183747
791.000000	51.670750
790.000000	52.111362
789.000000	52.515577
788.000000	52.901351
787.000000	53.278965
786.000000	53.652650
785.000000	54.029892
784.000000	54.415943
783.000000	54.803945
782.000000	55.183494
781.000000	55.554229
780.000000	55.921291
779.000000	56.284468
778.000000	56.643559
777.000000	57.007367
776.000000	57.384828
775.000000	57.771579
774.000000	58.155052
773.000000	58.525969
772.000000	58.875125
771.000000	59.187183
770.000000	59.449088
769.000000	59.661221
768.000000	59.832155
767.000000	59.971551
766.000000	60.096331
765.000000	60.234374
764.000000	60.410989
763.000000	60.635989
762.000000	60.909332
761.000000	61.228111
760.000000	61.578722
759.000000	61.931517
758.000000	62.255392
757.000000	62.532067
756.000000	62.752085
755.000000	62.909500
754.000000	63.011798
753.000000	63.084230
752.000000	63.153650
751.000000	63.235204
750.000000	63.339418
749.000000	63.479987
748.000000	63.663699
747.000000	63.882903
746.000000	64.125923
745.000000	64.386000
744.000000	64.652822
743.000000	64.908783
742.000000	65.143185
741.000000	65.359450
740.000000	65.560134
739.000000	65.736720
738.000000	65.882597
737.000000	66.002428
736.000000	66.100126
735.000000	66.169342
734.000000	66.206085
733.000000	66.219093
732.000000	66.220307
731.000000	66.217657
730.000000	66.224929
729.000000	66.264470
728.000000	66.348855
727.000000	66.470682
726.000000	66.617023
725.000000	66.780556
724.000000	66.948572
723.000000	67.097610
722.000000	67.210261
721.000000	67.286367
720.000000	67.330667
719.000000	67.344867
718.000000	67.341178
717.000000	67.348203
716.000000	67.391432
715.000000	67.479124
714.000000	67.614900
713.000000	67.807421
712.000000	68.056507
711.000000	68.343118
710.000000	68.644420
709.000000	68.945054
708.000000	69.227006
707.000000	69.467020
706.000000	69.656128
705.000000	69.806441
704.000000	69.929032
703.000000	70.020797
702.000000	70.081809
701.000000	70.127799
700.000000	70.174094
699.000000	70.223969
698.000000	70.282772
697.000000	70.367122
696.000000	70.488216
695.000000	70.642459
694.000000	70.827878
693.000000	71.050726
692.000000	71.304021
691.000000	71.560236
690.000000	71.797604
689.000000	72.014088
688.000000	72.204569
687.000000	72.347374
686.000000	72.429002
685.000000	72.461387
684.000000	72.462831
683.000000	72.442905
682.000000	72.419462
681.000000	72.426928
680.000000	72.490199
679.000000	72.608171
678.000000	72.776348
677.000000	73.000101
676.000000	73.266721
675.000000	73.542069
674.000000	73.798158
673.000000	74.014400
672.000000	74.169061
671.000000	74.263535
670.000000	74.340158
669.000000	74.453873
668.000000	74.624014
667.000000	74.754093
666.000000	74.712805
665.000000	74.580084
664.000000	74.511324
663.000000	74.550311
662.000000	74.666018
661.000000	74.823540
660.000000	75.010156
659.000000	75.215371
658.000000	75.424889
657.000000	75.632024
656.000000	75.826337
655.000000	75.988272
654.000000	76.108393
653.000000	76.194647
652.000000	76.255452
651.000000	76.289527
650.000000	76.299581
649.000000	76.300690
648.000000	76.305030
647.000000	76.315442
646.000000	76.342313
645.000000	76.408919
644.000000	76.528119
643.000000	76.689760
642.000000	76.880393
641.000000	77.097653
640.000000	77.332145
639.000000	77.553062
638.000000	77.728770
637.000000	77.849214
636.000000	77.916783
635.000000	77.932768
634.000000	77.907774
633.000000	77.865594
632.000000	77.824113
631.000000	77.789723
630.000000	77.776707
629.000000	77.810509
628.000000	77.903059
627.000000	78.044192
626.000000	78.222918
625.000000	78.435303
624.000000	78.661157
623.000000	78.858374
622.000000	78.996665
621.000000	79.077203
620.000000	79.108807
619.000000	79.093996
618.000000	79.050838
617.000000	79.018413
616.000000	79.020738
615.000000	79.047563
614.000000	79.083167
613.000000	79.128829
612.000000	79.184422
611.000000	79.234531
610.000000	79.266365
609.000000	79.274851
608.000000	79.235960
607.000000	79.092889
606.000000	78.784845
605.000000	78.252008
604.000000	77.387517
603.000000	76.017553
602.000000	73.922502
601.000000	70.910557
600.000000	66.935127
599.000000	62.258490
598.000000	57.516668
597.000000	53.534236
596.000000	51.001046
595.000000	50.217964
594.000000	51.024291
593.000000	52.935765
592.000000	55.421588
591.000000	58.059632
590.000000	60.566982
589.000000	62.818438
588.000000	64.798893
587.000000	66.528576
586.000000	68.020246
585.000000	69.287577
584.000000	70.344384
583.000000	71.209105
582.000000	71.921696
581.000000	72.545690
580.000000	73.128732
579.000000	73.669185
578.000000	74.158381
577.000000	74.622363
576.000000	75.094329
575.000000	75.566746
574.000000	76.002128
573.000000	76.381629
572.000000	76.706876
571.000000	76.979198
570.000000	77.210375
569.000000	77.430760
568.000000	77.657927
567.000000	77.874566
566.000000	78.057243
565.000000	78.208493
564.000000	78.335952
563.000000	78.430224
562.000000	78.487409
561.000000	78.529557
560.000000	78.582635
559.000000	78.656981
558.000000	78.766196
557.000000	78.935610
556.000000	79.172441
555.000000	79.447060
554.000000	79.722596
553.000000	79.978909
552.000000	80.193433
551.000000	80.330315
550.000000	80.375863
549.000000	80.355561
548.000000	80.298613
547.000000	80.221118
546.000000	80.155187
545.000000	80.150832
544.000000	80.225938
543.000000	80.353470
542.000000	80.510800
541.000000	80.706496
540.000000	80.936802
539.000000	81.159601
538.000000	81.338223
537.000000	81.477731
536.000000	81.593940
535.000000	81.683026
534.000000	81.747929
533.000000	81.815081
532.000000	81.896383
531.000000	81.964173
530.000000	81.991147
529.000000	81.980310
528.000000	81.938820
527.000000	81.866527
526.000000	81.793780
525.000000	81.773538
524.000000	81.811153
523.000000	81.851028
522.000000	81.844925
521.000000	81.786714
520.000000	81.668491
519.000000	81.453383
518.000000	81.123013
517.000000	80.716720
516.000000	80.287764
515.000000	79.867119
514.000000	79.491650
513.000000	79.219858
512.000000	79.083414
511.000000	79.052913
510.000000	79.071610
509.000000	79.094114
508.000000	79.062408
507.000000	78.879145
506.000000	78.442523
505.000000	77.690539
504.000000	76.608639
503.000000	75.270836
502.000000	73.912198
501.000000	72.852079
500.000000	72.290808
499.000000	72.235750
498.000000	72.595789
497.000000	73.241639
496.000000	73.997451
495.000000	74.672759
494.000000	75.150845
493.000000	75.444311
492.000000	75.639008
491.000000	75.822036
490.000000	76.070641
489.000000	76.451181
488.000000	76.982520
487.000000	77.628507
486.000000	78.347896
485.000000	79.121799
484.000000	79.908881
483.000000	80.618999
482.000000	81.175902
481.000000	81.565609
480.000000	81.790627
479.000000	81.846597
478.000000	81.779031
477.000000	81.698808
476.000000	81.690183
475.000000	81.757938
474.000000	81.909870
473.000000	82.220965
472.000000	82.722563
471.000000	83.282189
470.000000	83.729879
469.000000	84.021603
468.000000	84.189609
467.000000	84.238697
466.000000	84.160268
465.000000	83.992955
464.000000	83.797334
463.000000	83.616396
462.000000	83.494683
461.000000	83.470549
460.000000	83.515382
459.000000	83.547826
458.000000	83.553525
457.000000	83.600355
456.000000	83.677124
455.000000	83.681640
454.000000	83.586078
453.000000	83.495417
452.000000	83.513068
451.000000	83.594626
450.000000	83.616485
449.000000	83.516695
448.000000	83.277975
447.000000	82.842983
446.000000	82.144029
445.000000	81.160075
444.000000	79.880379
443.000000	78.294574
442.000000	76.462958
441.000000	74.520813
440.000000	72.566069
439.000000	70.632257
438.000000	68.787170
437.000000	67.228473
436.000000	66.208045
435.000000	65.850009
434.000000	66.076552
433.000000	66.727057
432.000000	67.684427
431.000000	68.836087
430.000000	70.071232
429.000000	71.359776
428.000000	72.719237
427.000000	74.108158
426.000000	75.455491
425.000000	76.771143
424.000000	78.068553
423.000000	79.220993
422.000000	80.065284
421.000000	80.610904
420.000000	80.985429
419.000000	81.363858
418.000000	81.895165
417.000000	82.570781
416.000000	83.298185
415.000000	83.935283
414.000000	84.383751
413.000000	84.710717
412.000000	84.987193
411.000000	85.105299
410.000000	84.967190
409.000000	84.715525
408.000000	84.538772
407.000000	84.446154
406.000000	84.449583
405.000000	84.699867
404.000000	85.271660
403.000000	85.905470
402.000000	86.286965
401.000000	86.411091
400.000000	86.392227
