PE UV                   SPECTRUM    ASCII       PEDS        1.60        
  -1
23MS182.SP
24/08/30
17:15:59.00
24/08/30
17:17:00.00


400.000000
1









4444

SCAN
1
1


0.0
480.0
2.00
MANUAL



UV/VIS




































#HDR
-1
-1
#GR
NM
A
0.00000011920928955078
0.0
700.000000
1.000000
301
8
0.116590
0.010500
#DATA
700.000000	0.010580 
699.000000	0.010740 
698.000000	0.010770 
697.000000	0.010770 
696.000000	0.010740 
695.000000	0.010690 
694.000000	0.010690 
693.000000	0.010760 
692.000000	0.010850 
691.000000	0.010840 
690.000000	0.010910 
689.000000	0.010950 
688.000000	0.010900 
687.000000	0.010980 
686.000000	0.011010 
685.000000	0.010860 
684.000000	0.010580 
683.000000	0.010590 
682.000000	0.010610 
681.000000	0.010530 
680.000000	0.010540 
679.000000	0.010500 
678.000000	0.010510 
677.000000	0.010530 
676.000000	0.010670 
675.000000	0.010600 
674.000000	0.010600 
673.000000	0.010550 
672.000000	0.010580 
671.000000	0.010640 
670.000000	0.010590 
669.000000	0.010680 
668.000000	0.010680 
667.000000	0.010670 
666.000000	0.010680 
665.000000	0.010760 
664.000000	0.010710 
663.000000	0.010680 
662.000000	0.010750 
661.000000	0.010770 
660.000000	0.010780 
659.000000	0.010740 
658.000000	0.010790 
657.000000	0.010810 
656.000000	0.010790 
655.000000	0.010840 
654.000000	0.010830 
653.000000	0.010820 
652.000000	0.010780 
651.000000	0.010850 
650.000000	0.010740 
649.000000	0.010830 
648.000000	0.010780 
647.000000	0.010950 
646.000000	0.010870 
645.000000	0.010870 
644.000000	0.010820 
643.000000	0.010820 
642.000000	0.010880 
641.000000	0.010880 
640.000000	0.010900 
639.000000	0.010860 
638.000000	0.010970 
637.000000	0.010890 
636.000000	0.010930 
635.000000	0.010940 
634.000000	0.011040 
633.000000	0.011060 
632.000000	0.011090 
631.000000	0.011060 
630.000000	0.011110 
629.000000	0.011090 
628.000000	0.011170 
627.000000	0.011160 
626.000000	0.011210 
625.000000	0.011280 
624.000000	0.011250 
623.000000	0.011380 
622.000000	0.011430 
621.000000	0.011400 
620.000000	0.011470 
619.000000	0.011500 
618.000000	0.011540 
617.000000	0.011620 
616.000000	0.011570 
615.000000	0.011660 
614.000000	0.011890 
613.000000	0.011860 
612.000000	0.011910 
611.000000	0.011990 
610.000000	0.012070 
609.000000	0.012240 
608.000000	0.012260 
607.000000	0.012310 
606.000000	0.012400 
605.000000	0.012590 
604.000000	0.012650 
603.000000	0.012690 
602.000000	0.013010 
601.000000	0.013090 
600.000000	0.013210 
599.000000	0.013330 
598.000000	0.013540 
597.000000	0.013680 
596.000000	0.013900 
595.000000	0.013930 
594.000000	0.014150 
593.000000	0.014370 
592.000000	0.014510 
591.000000	0.014620 
590.000000	0.014950 
589.000000	0.015160 
588.000000	0.015470 
587.000000	0.015790 
586.000000	0.015940 
585.000000	0.016230 
584.000000	0.016600 
583.000000	0.016860 
582.000000	0.017120 
581.000000	0.017480 
580.000000	0.017730 
579.000000	0.018100 
578.000000	0.018480 
577.000000	0.018900 
576.000000	0.019270 
575.000000	0.019660 
574.000000	0.020110 
573.000000	0.020620 
572.000000	0.021040 
571.000000	0.021490 
570.000000	0.022040 
569.000000	0.022630 
568.000000	0.023210 
567.000000	0.023610 
566.000000	0.024260 
565.000000	0.024840 
564.000000	0.025590 
563.000000	0.026330 
562.000000	0.026790 
561.000000	0.027600 
560.000000	0.028530 
559.000000	0.029430 
558.000000	0.030240 
557.000000	0.031050 
556.000000	0.031800 
555.000000	0.032630 
554.000000	0.033550 
553.000000	0.034500 
552.000000	0.035400 
551.000000	0.036300 
550.000000	0.037120 
549.000000	0.038080 
548.000000	0.039100 
547.000000	0.040050 
546.000000	0.041040 
545.000000	0.042100 
544.000000	0.043180 
543.000000	0.044260 
542.000000	0.045470 
541.000000	0.046470 
540.000000	0.047540 
539.000000	0.048720 
538.000000	0.049830 
537.000000	0.050940 
536.000000	0.052070 
535.000000	0.053290 
534.000000	0.054400 
533.000000	0.055680 
532.000000	0.056860 
531.000000	0.058200 
530.000000	0.059380 
529.000000	0.060590 
528.000000	0.061780 
527.000000	0.062990 
526.000000	0.064190 
525.000000	0.065390 
524.000000	0.066540 
523.000000	0.067780 
522.000000	0.068950 
521.000000	0.070030 
520.000000	0.071080 
519.000000	0.072190 
518.000000	0.073270 
517.000000	0.074300 
516.000000	0.075340 
515.000000	0.076210 
514.000000	0.077180 
513.000000	0.078250 
512.000000	0.079180 
511.000000	0.079990 
510.000000	0.080949 
509.000000	0.081660 
508.000000	0.082419 
507.000000	0.083160 
506.000000	0.083810 
505.000000	0.084660 
504.000000	0.085290 
503.000000	0.085720 
502.000000	0.086249 
501.000000	0.086749 
500.000000	0.087280 
499.000000	0.087859 
498.000000	0.088050 
497.000000	0.088300 
496.000000	0.088719 
495.000000	0.088969 
494.000000	0.089030 
493.000000	0.089200 
492.000000	0.089210 
491.000000	0.089219 
490.000000	0.089250 
489.000000	0.089100 
488.000000	0.088780 
487.000000	0.088650 
486.000000	0.088469 
485.000000	0.088080 
484.000000	0.087950 
483.000000	0.087470 
482.000000	0.086990 
481.000000	0.086660 
480.000000	0.086040 
479.000000	0.085560 
478.000000	0.084990 
477.000000	0.084510 
476.000000	0.083890 
475.000000	0.083130 
474.000000	0.082160 
473.000000	0.081620 
472.000000	0.080850 
471.000000	0.079920 
470.000000	0.079190 
469.000000	0.078370 
468.000000	0.077369 
467.000000	0.076280 
466.000000	0.075200 
465.000000	0.074289 
464.000000	0.073370 
463.000000	0.072370 
462.000000	0.071330 
461.000000	0.070480 
460.000000	0.069400 
459.000000	0.068419 
458.000000	0.067419 
457.000000	0.066750 
456.000000	0.065690 
455.000000	0.064680 
454.000000	0.063550 
453.000000	0.062710 
452.000000	0.061650 
451.000000	0.060920 
450.000000	0.059860 
449.000000	0.058920 
448.000000	0.058050 
447.000000	0.056970 
446.000000	0.056190 
445.000000	0.055230 
444.000000	0.054530 
443.000000	0.053550 
442.000000	0.052800 
441.000000	0.052300 
440.000000	0.051580 
439.000000	0.051110 
438.000000	0.050750 
437.000000	0.050050 
436.000000	0.049650 
435.000000	0.049380 
434.000000	0.049240 
433.000000	0.049040 
432.000000	0.049010 
431.000000	0.048900 
430.000000	0.049030 
429.000000	0.049060 
428.000000	0.049560 
427.000000	0.049750 
426.000000	0.050150 
425.000000	0.050950 
424.000000	0.051600 
423.000000	0.052470 
422.000000	0.053260 
421.000000	0.053850 
420.000000	0.054750 
419.000000	0.056290 
418.000000	0.057840 
417.000000	0.059580 
416.000000	0.061520 
415.000000	0.063530 
414.000000	0.065780 
413.000000	0.068140 
412.000000	0.070790 
411.000000	0.073630 
410.000000	0.076759 
409.000000	0.080030 
408.000000	0.083710 
407.000000	0.087090 
406.000000	0.090930 
405.000000	0.094610 
404.000000	0.098760 
403.000000	0.102870 
402.000000	0.107080 
401.000000	0.111850 
400.000000	0.116590 

