PE UV                   SPECTRUM    ASCII       PEDS        1.60        
  -1
23MS226.SP
24/09/02
16:40:54.00
24/09/02
16:42:00.00


400.000000
1









4444

SCAN
1
1


0.0
480.0
2.00
MANUAL



UV/VIS




































#HDR
-1
-1
#GR
NM
A
0.00000011920928955078
0.0
700.000000
1.000000
301
8
0.497230
0.064199
#DATA
700.000000	0.064199 
699.000000	0.064470 
698.000000	0.064519 
697.000000	0.064560 
696.000000	0.064600 
695.000000	0.064740 
694.000000	0.064820 
693.000000	0.064960 
692.000000	0.064940 
691.000000	0.065060 
690.000000	0.065100 
689.000000	0.065199 
688.000000	0.065260 
687.000000	0.065330 
686.000000	0.065480 
685.000000	0.065500 
684.000000	0.065699 
683.000000	0.066100 
682.000000	0.066280 
681.000000	0.066400 
680.000000	0.066370 
679.000000	0.066629 
678.000000	0.066809 
677.000000	0.066669 
676.000000	0.066930 
675.000000	0.067130 
674.000000	0.066980 
673.000000	0.067040 
672.000000	0.067130 
671.000000	0.067000 
670.000000	0.067320 
669.000000	0.067349 
668.000000	0.067480 
667.000000	0.067739 
666.000000	0.067780 
665.000000	0.067940 
664.000000	0.067940 
663.000000	0.068090 
662.000000	0.068240 
661.000000	0.068349 
660.000000	0.068419 
659.000000	0.068570 
658.000000	0.068660 
657.000000	0.068860 
656.000000	0.069050 
655.000000	0.069200 
654.000000	0.069400 
653.000000	0.069459 
652.000000	0.069570 
651.000000	0.069690 
650.000000	0.069790 
649.000000	0.069970 
648.000000	0.070160 
647.000000	0.070330 
646.000000	0.070450 
645.000000	0.070620 
644.000000	0.070830 
643.000000	0.070930 
642.000000	0.071120 
641.000000	0.071350 
640.000000	0.071499 
639.000000	0.071650 
638.000000	0.071760 
637.000000	0.072120 
636.000000	0.072220 
635.000000	0.072429 
634.000000	0.072480 
633.000000	0.072760 
632.000000	0.072910 
631.000000	0.073120 
630.000000	0.073400 
629.000000	0.073690 
628.000000	0.073880 
627.000000	0.074030 
626.000000	0.074230 
625.000000	0.074460 
624.000000	0.074820 
623.000000	0.075180 
622.000000	0.075310 
621.000000	0.075689 
620.000000	0.076000 
619.000000	0.076340 
618.000000	0.076670 
617.000000	0.077010 
616.000000	0.077240 
615.000000	0.077670 
614.000000	0.077960 
613.000000	0.078440 
612.000000	0.078800 
611.000000	0.079190 
610.000000	0.079680 
609.000000	0.079970 
608.000000	0.080510 
607.000000	0.080910 
606.000000	0.081460 
605.000000	0.081900 
604.000000	0.082360 
603.000000	0.083020 
602.000000	0.083550 
601.000000	0.084200 
600.000000	0.084700 
599.000000	0.085510 
598.000000	0.086090 
597.000000	0.086730 
596.000000	0.087530 
595.000000	0.088210 
594.000000	0.088980 
593.000000	0.089910 
592.000000	0.090820 
591.000000	0.091689 
590.000000	0.092600 
589.000000	0.093490 
588.000000	0.094600 
587.000000	0.095630 
586.000000	0.096660 
585.000000	0.097870 
584.000000	0.099050 
583.000000	0.100310 
582.000000	0.101510 
581.000000	0.102810 
580.000000	0.104180 
579.000000	0.105640 
578.000000	0.107030 
577.000000	0.108590 
576.000000	0.110160 
575.000000	0.111870 
574.000000	0.113580 
573.000000	0.115390 
572.000000	0.117320 
571.000000	0.119420 
570.000000	0.121410 
569.000000	0.123440 
568.000000	0.125610 
567.000000	0.127690 
566.000000	0.130080 
565.000000	0.132610 
564.000000	0.135030 
563.000000	0.137670 
562.000000	0.140420 
561.000000	0.143360 
560.000000	0.146220 
559.000000	0.149160 
558.000000	0.150830 
557.000000	0.153950 
556.000000	0.157330 
555.000000	0.160690 
554.000000	0.163990 
553.000000	0.167490 
552.000000	0.170950 
551.000000	0.174470 
550.000000	0.178060 
549.000000	0.181830 
548.000000	0.185720 
547.000000	0.189510 
546.000000	0.193130 
545.000000	0.197200 
544.000000	0.201250 
543.000000	0.205690 
542.000000	0.209690 
541.000000	0.213930 
540.000000	0.218170 
539.000000	0.222470 
538.000000	0.226620 
537.000000	0.231050 
536.000000	0.235470 
535.000000	0.240080 
534.000000	0.244600 
533.000000	0.249260 
532.000000	0.253830 
531.000000	0.258410 
530.000000	0.262860 
529.000000	0.267450 
528.000000	0.272130 
527.000000	0.276520 
526.000000	0.281260 
525.000000	0.285760 
524.000000	0.290220 
523.000000	0.294550 
522.000000	0.298960 
521.000000	0.302910 
520.000000	0.307240 
519.000000	0.311230 
518.000000	0.315020 
517.000000	0.318750 
516.000000	0.322610 
515.000000	0.326370 
514.000000	0.329990 
513.000000	0.333580 
512.000000	0.337040 
511.000000	0.340190 
510.000000	0.343200 
509.000000	0.346340 
508.000000	0.349410 
507.000000	0.352130 
506.000000	0.354990 
505.000000	0.357550 
504.000000	0.359830 
503.000000	0.361990 
502.000000	0.363990 
501.000000	0.365900 
500.000000	0.367620 
499.000000	0.369130 
498.000000	0.370240 
497.000000	0.371650 
496.000000	0.372630 
495.000000	0.373360 
494.000000	0.373900 
493.000000	0.374220 
492.000000	0.374630 
491.000000	0.374850 
490.000000	0.374350 
489.000000	0.374070 
488.000000	0.373640 
487.000000	0.372960 
486.000000	0.372050 
485.000000	0.370850 
484.000000	0.369640 
483.000000	0.368400 
482.000000	0.366650 
481.000000	0.365250 
480.000000	0.363510 
479.000000	0.361320 
478.000000	0.359070 
477.000000	0.357090 
476.000000	0.354720 
475.000000	0.351930 
474.000000	0.349190 
473.000000	0.346730 
472.000000	0.343600 
471.000000	0.340600 
470.000000	0.337620 
469.000000	0.334190 
468.000000	0.330850 
467.000000	0.327340 
466.000000	0.323650 
465.000000	0.320260 
464.000000	0.316390 
463.000000	0.312780 
462.000000	0.309410 
461.000000	0.305670 
460.000000	0.301950 
459.000000	0.298380 
458.000000	0.294480 
457.000000	0.290710 
456.000000	0.287050 
455.000000	0.283450 
454.000000	0.279580 
453.000000	0.275780 
452.000000	0.272400 
451.000000	0.268740 
450.000000	0.265090 
449.000000	0.261740 
448.000000	0.258090 
447.000000	0.254900 
446.000000	0.251830 
445.000000	0.248710 
444.000000	0.245800 
443.000000	0.243330 
442.000000	0.240350 
441.000000	0.238150 
440.000000	0.235950 
439.000000	0.233930 
438.000000	0.231920 
437.000000	0.230280 
436.000000	0.229040 
435.000000	0.228190 
434.000000	0.227200 
433.000000	0.226890 
432.000000	0.226790 
431.000000	0.227010 
430.000000	0.227520 
429.000000	0.228290 
428.000000	0.229550 
427.000000	0.231050 
426.000000	0.232840 
425.000000	0.235510 
424.000000	0.238640 
423.000000	0.242170 
422.000000	0.246410 
421.000000	0.252820 
420.000000	0.257800 
419.000000	0.263340 
418.000000	0.269580 
417.000000	0.276360 
416.000000	0.283680 
415.000000	0.291660 
414.000000	0.300390 
413.000000	0.309720 
412.000000	0.320100 
411.000000	0.331130 
410.000000	0.343100 
409.000000	0.355930 
408.000000	0.369590 
407.000000	0.383560 
406.000000	0.397820 
405.000000	0.412570 
404.000000	0.428230 
403.000000	0.444410 
402.000000	0.461350 
401.000000	0.478600 
400.000000	0.497230 

