PE UV                   SPECTRUM    ASCII       PEDS        1.60        
  -1
23MS017.SP
24/09/03
16:18:21.00
24/09/03
16:19:41.00


400.000000
1









4444

SCAN
1
1


0.0
480.0
2.00
MANUAL



UV/VIS




































#HDR
-1
-1
#GR
NM
A
0.00000011920928955078
0.0
700.000000
1.000000
301
8
0.951610
0.036840
#DATA
700.000000	0.036920 
699.000000	0.036840 
698.000000	0.036960 
697.000000	0.037020 
696.000000	0.037070 
695.000000	0.037240 
694.000000	0.037270 
693.000000	0.037460 
692.000000	0.037510 
691.000000	0.037640 
690.000000	0.037750 
689.000000	0.037890 
688.000000	0.037960 
687.000000	0.038070 
686.000000	0.038240 
685.000000	0.038350 
684.000000	0.038430 
683.000000	0.039070 
682.000000	0.039340 
681.000000	0.039510 
680.000000	0.039680 
679.000000	0.039770 
678.000000	0.039910 
677.000000	0.040200 
676.000000	0.040310 
675.000000	0.040570 
674.000000	0.040700 
673.000000	0.040860 
672.000000	0.041180 
671.000000	0.041290 
670.000000	0.041300 
669.000000	0.041540 
668.000000	0.041590 
667.000000	0.041730 
666.000000	0.041750 
665.000000	0.041910 
664.000000	0.042050 
663.000000	0.042000 
662.000000	0.042090 
661.000000	0.042030 
660.000000	0.042300 
659.000000	0.042260 
658.000000	0.042350 
657.000000	0.042430 
656.000000	0.042520 
655.000000	0.042580 
654.000000	0.042610 
653.000000	0.042700 
652.000000	0.042650 
651.000000	0.042710 
650.000000	0.042800 
649.000000	0.042700 
648.000000	0.042830 
647.000000	0.042930 
646.000000	0.043060 
645.000000	0.043080 
644.000000	0.043170 
643.000000	0.043190 
642.000000	0.043270 
641.000000	0.043430 
640.000000	0.043550 
639.000000	0.043590 
638.000000	0.043770 
637.000000	0.043970 
636.000000	0.044120 
635.000000	0.044250 
634.000000	0.044540 
633.000000	0.044580 
632.000000	0.044760 
631.000000	0.044920 
630.000000	0.045200 
629.000000	0.045430 
628.000000	0.045710 
627.000000	0.045850 
626.000000	0.046150 
625.000000	0.046290 
624.000000	0.046620 
623.000000	0.046890 
622.000000	0.047240 
621.000000	0.047470 
620.000000	0.047800 
619.000000	0.048180 
618.000000	0.048610 
617.000000	0.048910 
616.000000	0.049340 
615.000000	0.049810 
614.000000	0.050240 
613.000000	0.050620 
612.000000	0.051180 
611.000000	0.051680 
610.000000	0.052150 
609.000000	0.052790 
608.000000	0.053430 
607.000000	0.054020 
606.000000	0.054630 
605.000000	0.055240 
604.000000	0.056130 
603.000000	0.056860 
602.000000	0.057750 
601.000000	0.058540 
600.000000	0.059530 
599.000000	0.060560 
598.000000	0.061590 
597.000000	0.062750 
596.000000	0.063740 
595.000000	0.065000 
594.000000	0.066270 
593.000000	0.067810 
592.000000	0.069220 
591.000000	0.070889 
590.000000	0.072570 
589.000000	0.074270 
588.000000	0.076250 
587.000000	0.078060 
586.000000	0.080210 
585.000000	0.082430 
584.000000	0.084750 
583.000000	0.086999 
582.000000	0.089480 
581.000000	0.092070 
580.000000	0.094670 
579.000000	0.097620 
578.000000	0.100490 
577.000000	0.103660 
576.000000	0.106700 
575.000000	0.110270 
574.000000	0.113690 
573.000000	0.117470 
572.000000	0.121420 
571.000000	0.125610 
570.000000	0.129850 
569.000000	0.134260 
568.000000	0.138750 
567.000000	0.143490 
566.000000	0.148380 
565.000000	0.153620 
564.000000	0.159050 
563.000000	0.164820 
562.000000	0.170700 
561.000000	0.177000 
560.000000	0.183260 
559.000000	0.189890 
558.000000	0.197250 
557.000000	0.204330 
556.000000	0.211610 
555.000000	0.219070 
554.000000	0.226420 
553.000000	0.234150 
552.000000	0.242000 
551.000000	0.250110 
550.000000	0.258310 
549.000000	0.266770 
548.000000	0.275310 
547.000000	0.283940 
546.000000	0.292390 
545.000000	0.301360 
544.000000	0.310790 
543.000000	0.320400 
542.000000	0.330050 
541.000000	0.339840 
540.000000	0.349460 
539.000000	0.359290 
538.000000	0.369250 
537.000000	0.379120 
536.000000	0.389340 
535.000000	0.399700 
534.000000	0.410410 
533.000000	0.421200 
532.000000	0.432050 
531.000000	0.442820 
530.000000	0.453440 
529.000000	0.464250 
528.000000	0.474540 
527.000000	0.485110 
526.000000	0.495710 
525.000000	0.506040 
524.000000	0.516500 
523.000000	0.526640 
522.000000	0.536880 
521.000000	0.546750 
520.000000	0.556570 
519.000000	0.565740 
518.000000	0.574790 
517.000000	0.583650 
516.000000	0.592400 
515.000000	0.601220 
514.000000	0.609830 
513.000000	0.618300 
512.000000	0.626340 
511.000000	0.633780 
510.000000	0.641220 
509.000000	0.648220 
508.000000	0.654760 
507.000000	0.661270 
506.000000	0.667260 
505.000000	0.673459 
504.000000	0.679250 
503.000000	0.684210 
502.000000	0.688840 
501.000000	0.693260 
500.000000	0.697210 
499.000000	0.700930 
498.000000	0.703200 
497.000000	0.706430 
496.000000	0.708580 
495.000000	0.710480 
494.000000	0.712050 
493.000000	0.712820 
492.000000	0.713230 
491.000000	0.713360 
490.000000	0.712620 
489.000000	0.712330 
488.000000	0.711270 
487.000000	0.709550 
486.000000	0.707720 
485.000000	0.705390 
484.000000	0.702360 
483.000000	0.699240 
482.000000	0.695240 
481.000000	0.691600 
480.000000	0.687440 
479.000000	0.683050 
478.000000	0.677870 
477.000000	0.672580 
476.000000	0.666820 
475.000000	0.660540 
474.000000	0.654010 
473.000000	0.647770 
472.000000	0.640790 
471.000000	0.633780 
470.000000	0.626610 
469.000000	0.618670 
468.000000	0.611060 
467.000000	0.602450 
466.000000	0.593860 
465.000000	0.585790 
464.000000	0.577450 
463.000000	0.568480 
462.000000	0.560060 
461.000000	0.551580 
460.000000	0.543300 
459.000000	0.534610 
458.000000	0.525560 
457.000000	0.516910 
456.000000	0.507780 
455.000000	0.499030 
454.000000	0.490440 
453.000000	0.481900 
452.000000	0.473720 
451.000000	0.465680 
450.000000	0.457080 
449.000000	0.448970 
448.000000	0.441350 
447.000000	0.433410 
446.000000	0.425830 
445.000000	0.418660 
444.000000	0.411910 
443.000000	0.405510 
442.000000	0.398760 
441.000000	0.393480 
440.000000	0.388070 
439.000000	0.383070 
438.000000	0.378790 
437.000000	0.374750 
436.000000	0.371710 
435.000000	0.368960 
434.000000	0.367250 
433.000000	0.365780 
432.000000	0.365280 
431.000000	0.365440 
430.000000	0.366720 
429.000000	0.368140 
428.000000	0.370810 
427.000000	0.374390 
426.000000	0.378510 
425.000000	0.384600 
424.000000	0.391000 
423.000000	0.398420 
422.000000	0.407340 
421.000000	0.417200 
420.000000	0.428500 
419.000000	0.441190 
418.000000	0.454960 
417.000000	0.470670 
416.000000	0.487320 
415.000000	0.505420 
414.000000	0.524860 
413.000000	0.545730 
412.000000	0.568230 
411.000000	0.592600 
410.000000	0.618630 
409.000000	0.647530 
408.000000	0.677570 
407.000000	0.708610 
406.000000	0.740440 
405.000000	0.772820 
404.000000	0.806560 
403.000000	0.840960 
402.000000	0.875900 
401.000000	0.912900 
400.000000	0.951610 

