PE UV                   SPECTRUM    ASCII       PEDS        1.60        
  -1
23MS080.SP
24/09/05
16:26:08.00
24/09/05
16:27:14.00


400.000000
1









4444

SCAN
1
1


0.0
480.0
2.00
MANUAL



UV/VIS




































#HDR
-1
-1
#GR
NM
A
0.00000011920928955078
0.0
700.000000
1.000000
301
8
0.320810
0.028710
#DATA
700.000000	0.028710 
699.000000	0.028730 
698.000000	0.028930 
697.000000	0.029040 
696.000000	0.028980 
695.000000	0.029150 
694.000000	0.029150 
693.000000	0.029290 
692.000000	0.029380 
691.000000	0.029510 
690.000000	0.029530 
689.000000	0.029600 
688.000000	0.029900 
687.000000	0.029900 
686.000000	0.030010 
685.000000	0.030040 
684.000000	0.030290 
683.000000	0.029980 
682.000000	0.030040 
681.000000	0.030130 
680.000000	0.030200 
679.000000	0.030160 
678.000000	0.030290 
677.000000	0.030460 
676.000000	0.030630 
675.000000	0.030690 
674.000000	0.030830 
673.000000	0.030940 
672.000000	0.031090 
671.000000	0.031060 
670.000000	0.031230 
669.000000	0.031290 
668.000000	0.031350 
667.000000	0.031490 
666.000000	0.031570 
665.000000	0.031670 
664.000000	0.031770 
663.000000	0.031820 
662.000000	0.031800 
661.000000	0.031850 
660.000000	0.032020 
659.000000	0.032050 
658.000000	0.032180 
657.000000	0.032310 
656.000000	0.032430 
655.000000	0.032540 
654.000000	0.032530 
653.000000	0.032710 
652.000000	0.032810 
651.000000	0.032720 
650.000000	0.032920 
649.000000	0.032970 
648.000000	0.033120 
647.000000	0.033210 
646.000000	0.033260 
645.000000	0.033420 
644.000000	0.033440 
643.000000	0.033630 
642.000000	0.033720 
641.000000	0.033880 
640.000000	0.033950 
639.000000	0.034050 
638.000000	0.034340 
637.000000	0.034500 
636.000000	0.034640 
635.000000	0.034710 
634.000000	0.034930 
633.000000	0.035050 
632.000000	0.035260 
631.000000	0.035410 
630.000000	0.035620 
629.000000	0.035660 
628.000000	0.035880 
627.000000	0.036000 
626.000000	0.036120 
625.000000	0.036290 
624.000000	0.036370 
623.000000	0.036520 
622.000000	0.036660 
621.000000	0.036740 
620.000000	0.036910 
619.000000	0.037100 
618.000000	0.037210 
617.000000	0.037340 
616.000000	0.037470 
615.000000	0.037620 
614.000000	0.037710 
613.000000	0.037840 
612.000000	0.038070 
611.000000	0.038320 
610.000000	0.038480 
609.000000	0.038570 
608.000000	0.038800 
607.000000	0.039050 
606.000000	0.039250 
605.000000	0.039500 
604.000000	0.039650 
603.000000	0.039980 
602.000000	0.040230 
601.000000	0.040600 
600.000000	0.040770 
599.000000	0.041100 
598.000000	0.041420 
597.000000	0.041750 
596.000000	0.042020 
595.000000	0.042340 
594.000000	0.042770 
593.000000	0.043180 
592.000000	0.043580 
591.000000	0.044020 
590.000000	0.044360 
589.000000	0.044840 
588.000000	0.045320 
587.000000	0.045840 
586.000000	0.046300 
585.000000	0.046910 
584.000000	0.047580 
583.000000	0.048220 
582.000000	0.048780 
581.000000	0.049380 
580.000000	0.050150 
579.000000	0.050840 
578.000000	0.051660 
577.000000	0.052200 
576.000000	0.053170 
575.000000	0.053890 
574.000000	0.054750 
573.000000	0.055730 
572.000000	0.056630 
571.000000	0.057590 
570.000000	0.058590 
569.000000	0.059660 
568.000000	0.060580 
567.000000	0.061750 
566.000000	0.062900 
565.000000	0.064100 
564.000000	0.065449 
563.000000	0.066690 
562.000000	0.068000 
561.000000	0.069389 
560.000000	0.070810 
559.000000	0.072190 
558.000000	0.074230 
557.000000	0.075860 
556.000000	0.077590 
555.000000	0.079180 
554.000000	0.080930 
553.000000	0.082550 
552.000000	0.084209 
551.000000	0.086150 
550.000000	0.087910 
549.000000	0.089640 
548.000000	0.091570 
547.000000	0.093430 
546.000000	0.095300 
545.000000	0.097190 
544.000000	0.099349 
543.000000	0.101360 
542.000000	0.103370 
541.000000	0.105490 
540.000000	0.107570 
539.000000	0.109600 
538.000000	0.111840 
537.000000	0.114000 
536.000000	0.116260 
535.000000	0.118340 
534.000000	0.120690 
533.000000	0.123090 
532.000000	0.125300 
531.000000	0.127720 
530.000000	0.129960 
529.000000	0.132380 
528.000000	0.134530 
527.000000	0.136730 
526.000000	0.139120 
525.000000	0.141400 
524.000000	0.143590 
523.000000	0.145850 
522.000000	0.148060 
521.000000	0.150060 
520.000000	0.152280 
519.000000	0.154350 
518.000000	0.156400 
517.000000	0.158360 
516.000000	0.160220 
515.000000	0.162070 
514.000000	0.163980 
513.000000	0.165990 
512.000000	0.167750 
511.000000	0.169460 
510.000000	0.171200 
509.000000	0.172580 
508.000000	0.174260 
507.000000	0.175740 
506.000000	0.177040 
505.000000	0.178600 
504.000000	0.179780 
503.000000	0.180870 
502.000000	0.182130 
501.000000	0.183140 
500.000000	0.184050 
499.000000	0.184940 
498.000000	0.185810 
497.000000	0.186400 
496.000000	0.187270 
495.000000	0.187740 
494.000000	0.188220 
493.000000	0.188590 
492.000000	0.188860 
491.000000	0.188810 
490.000000	0.189120 
489.000000	0.189200 
488.000000	0.189160 
487.000000	0.189130 
486.000000	0.188840 
485.000000	0.188510 
484.000000	0.188110 
483.000000	0.187620 
482.000000	0.187090 
481.000000	0.186580 
480.000000	0.186040 
479.000000	0.185360 
478.000000	0.184630 
477.000000	0.183800 
476.000000	0.182830 
475.000000	0.182180 
474.000000	0.180980 
473.000000	0.179880 
472.000000	0.178740 
471.000000	0.177510 
470.000000	0.176590 
469.000000	0.175200 
468.000000	0.174130 
467.000000	0.172700 
466.000000	0.171250 
465.000000	0.170000 
464.000000	0.168490 
463.000000	0.167170 
462.000000	0.165870 
461.000000	0.164620 
460.000000	0.163060 
459.000000	0.161740 
458.000000	0.160410 
457.000000	0.159030 
456.000000	0.157800 
455.000000	0.156360 
454.000000	0.154850 
453.000000	0.153900 
452.000000	0.152450 
451.000000	0.150950 
450.000000	0.150180 
449.000000	0.148880 
448.000000	0.147570 
447.000000	0.146640 
446.000000	0.145740 
445.000000	0.144760 
444.000000	0.143970 
443.000000	0.143280 
442.000000	0.142710 
441.000000	0.142370 
440.000000	0.141920 
439.000000	0.141470 
438.000000	0.141550 
437.000000	0.141230 
436.000000	0.141290 
435.000000	0.141940 
434.000000	0.141980 
433.000000	0.142630 
432.000000	0.143320 
431.000000	0.144150 
430.000000	0.145160 
429.000000	0.146470 
428.000000	0.148110 
427.000000	0.149850 
426.000000	0.152070 
425.000000	0.154140 
424.000000	0.156730 
423.000000	0.159380 
422.000000	0.162170 
421.000000	0.165150 
420.000000	0.168850 
419.000000	0.172960 
418.000000	0.177270 
417.000000	0.182080 
416.000000	0.187210 
415.000000	0.192580 
414.000000	0.198270 
413.000000	0.204330 
412.000000	0.211020 
411.000000	0.217950 
410.000000	0.225670 
409.000000	0.233850 
408.000000	0.242340 
407.000000	0.251010 
406.000000	0.260080 
405.000000	0.269070 
404.000000	0.278690 
403.000000	0.288610 
402.000000	0.298650 
401.000000	0.309490 
400.000000	0.320810 

