PE UV                   SPECTRUM    ASCII       PEDS        1.60        
  -1
23MS152.SP
24/08/30
17:20:31.00
24/08/30
17:21:46.00


400.000000
1









4444

SCAN
1
1


0.0
480.0
2.00
MANUAL



UV/VIS




































#HDR
-1
-1
#GR
NM
A
0.00000011920928955078
0.0
700.000000
1.000000
301
8
0.252830
0.021930
#DATA
700.000000	0.021930 
699.000000	0.022020 
698.000000	0.022050 
697.000000	0.022140 
696.000000	0.022070 
695.000000	0.022160 
694.000000	0.022180 
693.000000	0.022140 
692.000000	0.022290 
691.000000	0.022410 
690.000000	0.022610 
689.000000	0.022520 
688.000000	0.022590 
687.000000	0.022670 
686.000000	0.022720 
685.000000	0.022750 
684.000000	0.022770 
683.000000	0.022790 
682.000000	0.022850 
681.000000	0.022840 
680.000000	0.022790 
679.000000	0.022780 
678.000000	0.022820 
677.000000	0.022900 
676.000000	0.023050 
675.000000	0.022980 
674.000000	0.023100 
673.000000	0.023040 
672.000000	0.023080 
671.000000	0.023240 
670.000000	0.023250 
669.000000	0.023230 
668.000000	0.023300 
667.000000	0.023410 
666.000000	0.023370 
665.000000	0.023450 
664.000000	0.023560 
663.000000	0.023550 
662.000000	0.023600 
661.000000	0.023650 
660.000000	0.023760 
659.000000	0.023710 
658.000000	0.023830 
657.000000	0.023850 
656.000000	0.023870 
655.000000	0.023990 
654.000000	0.023940 
653.000000	0.024060 
652.000000	0.024100 
651.000000	0.024290 
650.000000	0.024220 
649.000000	0.024240 
648.000000	0.024250 
647.000000	0.024480 
646.000000	0.024420 
645.000000	0.024460 
644.000000	0.024460 
643.000000	0.024530 
642.000000	0.024650 
641.000000	0.024660 
640.000000	0.024780 
639.000000	0.024830 
638.000000	0.024830 
637.000000	0.024810 
636.000000	0.025000 
635.000000	0.025060 
634.000000	0.025160 
633.000000	0.025220 
632.000000	0.025320 
631.000000	0.025430 
630.000000	0.025460 
629.000000	0.025510 
628.000000	0.025640 
627.000000	0.025680 
626.000000	0.025910 
625.000000	0.025950 
624.000000	0.026020 
623.000000	0.026240 
622.000000	0.026260 
621.000000	0.026310 
620.000000	0.026500 
619.000000	0.026670 
618.000000	0.026730 
617.000000	0.026970 
616.000000	0.027030 
615.000000	0.027140 
614.000000	0.027410 
613.000000	0.027580 
612.000000	0.027660 
611.000000	0.027900 
610.000000	0.028070 
609.000000	0.028280 
608.000000	0.028450 
607.000000	0.028670 
606.000000	0.028810 
605.000000	0.029130 
604.000000	0.029340 
603.000000	0.029590 
602.000000	0.029770 
601.000000	0.030020 
600.000000	0.030460 
599.000000	0.030660 
598.000000	0.031030 
597.000000	0.031310 
596.000000	0.031610 
595.000000	0.031950 
594.000000	0.032370 
593.000000	0.032710 
592.000000	0.033080 
591.000000	0.033490 
590.000000	0.033910 
589.000000	0.034370 
588.000000	0.034900 
587.000000	0.035430 
586.000000	0.035930 
585.000000	0.036510 
584.000000	0.037090 
583.000000	0.037720 
582.000000	0.038310 
581.000000	0.038950 
580.000000	0.039560 
579.000000	0.040200 
578.000000	0.040950 
577.000000	0.041620 
576.000000	0.042540 
575.000000	0.043340 
574.000000	0.044150 
573.000000	0.045150 
572.000000	0.045930 
571.000000	0.046930 
570.000000	0.047910 
569.000000	0.048900 
568.000000	0.049990 
567.000000	0.051130 
566.000000	0.052360 
565.000000	0.053500 
564.000000	0.054650 
563.000000	0.055860 
562.000000	0.057230 
561.000000	0.058610 
560.000000	0.060110 
559.000000	0.061670 
558.000000	0.063280 
557.000000	0.064780 
556.000000	0.066379 
555.000000	0.068029 
554.000000	0.069580 
553.000000	0.071420 
552.000000	0.073090 
551.000000	0.074829 
550.000000	0.076520 
549.000000	0.078450 
548.000000	0.080470 
547.000000	0.082309 
546.000000	0.084130 
545.000000	0.086090 
544.000000	0.088080 
543.000000	0.090300 
542.000000	0.092330 
541.000000	0.094440 
540.000000	0.096600 
539.000000	0.098730 
538.000000	0.100920 
537.000000	0.103080 
536.000000	0.105170 
535.000000	0.107410 
534.000000	0.109550 
533.000000	0.111970 
532.000000	0.114300 
531.000000	0.116730 
530.000000	0.119120 
529.000000	0.121360 
528.000000	0.123570 
527.000000	0.125970 
526.000000	0.128080 
525.000000	0.130420 
524.000000	0.132610 
523.000000	0.134830 
522.000000	0.137050 
521.000000	0.139170 
520.000000	0.141310 
519.000000	0.143210 
518.000000	0.145230 
517.000000	0.147120 
516.000000	0.149110 
515.000000	0.150810 
514.000000	0.152840 
513.000000	0.154690 
512.000000	0.156480 
511.000000	0.157990 
510.000000	0.159820 
509.000000	0.161270 
508.000000	0.162800 
507.000000	0.164100 
506.000000	0.165310 
505.000000	0.166690 
504.000000	0.167960 
503.000000	0.169020 
502.000000	0.169980 
501.000000	0.171150 
500.000000	0.171920 
499.000000	0.172790 
498.000000	0.173430 
497.000000	0.174070 
496.000000	0.174680 
495.000000	0.175110 
494.000000	0.175350 
493.000000	0.175740 
492.000000	0.175880 
491.000000	0.175830 
490.000000	0.175700 
489.000000	0.175660 
488.000000	0.175420 
487.000000	0.175100 
486.000000	0.174810 
485.000000	0.174250 
484.000000	0.173830 
483.000000	0.172990 
482.000000	0.172290 
481.000000	0.171540 
480.000000	0.170650 
479.000000	0.169850 
478.000000	0.168790 
477.000000	0.167790 
476.000000	0.166590 
475.000000	0.165230 
474.000000	0.163920 
473.000000	0.162690 
472.000000	0.161030 
471.000000	0.159500 
470.000000	0.158290 
469.000000	0.156770 
468.000000	0.155080 
467.000000	0.153400 
466.000000	0.151550 
465.000000	0.149880 
464.000000	0.148040 
463.000000	0.146240 
462.000000	0.144480 
461.000000	0.142630 
460.000000	0.140880 
459.000000	0.139050 
458.000000	0.137250 
457.000000	0.135630 
456.000000	0.133750 
455.000000	0.131890 
454.000000	0.130200 
453.000000	0.128250 
452.000000	0.126620 
451.000000	0.124860 
450.000000	0.123220 
449.000000	0.121700 
448.000000	0.120100 
447.000000	0.118160 
446.000000	0.116650 
445.000000	0.115250 
444.000000	0.113960 
443.000000	0.112600 
442.000000	0.111220 
441.000000	0.110220 
440.000000	0.109190 
439.000000	0.108460 
438.000000	0.107730 
437.000000	0.106840 
436.000000	0.106130 
435.000000	0.105960 
434.000000	0.105650 
433.000000	0.105480 
432.000000	0.105620 
431.000000	0.105780 
430.000000	0.106230 
429.000000	0.106640 
428.000000	0.107760 
427.000000	0.108420 
426.000000	0.109640 
425.000000	0.111360 
424.000000	0.113140 
423.000000	0.114900 
422.000000	0.117040 
421.000000	0.119560 
420.000000	0.122140 
419.000000	0.125330 
418.000000	0.128740 
417.000000	0.132630 
416.000000	0.136900 
415.000000	0.141310 
414.000000	0.146250 
413.000000	0.151310 
412.000000	0.156750 
411.000000	0.162680 
410.000000	0.169160 
409.000000	0.176140 
408.000000	0.183680 
407.000000	0.191270 
406.000000	0.199290 
405.000000	0.207470 
404.000000	0.215950 
403.000000	0.224580 
402.000000	0.233450 
401.000000	0.243050 
400.000000	0.252830 

