PE UV                   SPECTRUM    ASCII       PEDS        1.60        
  -1
23MS83.SP
24/09/05
16:22:27.00
24/09/05
16:23:34.00


400.000000
1









4444

SCAN
1
1


0.0
480.0
2.00
MANUAL



UV/VIS




































#HDR
-1
-1
#GR
NM
A
0.00000011920928955078
0.0
700.000000
1.000000
301
8
0.472440
0.011770
#DATA
700.000000	0.011770 
699.000000	0.011780 
698.000000	0.012060 
697.000000	0.012080 
696.000000	0.012240 
695.000000	0.012400 
694.000000	0.012470 
693.000000	0.012640 
692.000000	0.012730 
691.000000	0.012780 
690.000000	0.012990 
689.000000	0.013070 
688.000000	0.013240 
687.000000	0.013340 
686.000000	0.013490 
685.000000	0.013570 
684.000000	0.013780 
683.000000	0.013680 
682.000000	0.013640 
681.000000	0.013750 
680.000000	0.013870 
679.000000	0.013930 
678.000000	0.014260 
677.000000	0.014430 
676.000000	0.014600 
675.000000	0.014550 
674.000000	0.014770 
673.000000	0.014810 
672.000000	0.015080 
671.000000	0.015120 
670.000000	0.015310 
669.000000	0.015420 
668.000000	0.015530 
667.000000	0.015750 
666.000000	0.015830 
665.000000	0.015960 
664.000000	0.016130 
663.000000	0.016300 
662.000000	0.016380 
661.000000	0.016420 
660.000000	0.016700 
659.000000	0.016920 
658.000000	0.017060 
657.000000	0.017190 
656.000000	0.017340 
655.000000	0.017520 
654.000000	0.017630 
653.000000	0.017840 
652.000000	0.018080 
651.000000	0.018150 
650.000000	0.018350 
649.000000	0.018440 
648.000000	0.018650 
647.000000	0.018850 
646.000000	0.019000 
645.000000	0.019200 
644.000000	0.019310 
643.000000	0.019620 
642.000000	0.019750 
641.000000	0.019970 
640.000000	0.020130 
639.000000	0.020250 
638.000000	0.020510 
637.000000	0.020720 
636.000000	0.020920 
635.000000	0.021070 
634.000000	0.021310 
633.000000	0.021550 
632.000000	0.021800 
631.000000	0.021990 
630.000000	0.022270 
629.000000	0.022440 
628.000000	0.022710 
627.000000	0.022910 
626.000000	0.023250 
625.000000	0.023620 
624.000000	0.023890 
623.000000	0.024190 
622.000000	0.024440 
621.000000	0.024810 
620.000000	0.025180 
619.000000	0.025550 
618.000000	0.025880 
617.000000	0.026230 
616.000000	0.026610 
615.000000	0.027050 
614.000000	0.027350 
613.000000	0.027870 
612.000000	0.028180 
611.000000	0.028810 
610.000000	0.029190 
609.000000	0.029640 
608.000000	0.030280 
607.000000	0.030750 
606.000000	0.031300 
605.000000	0.031950 
604.000000	0.032570 
603.000000	0.033200 
602.000000	0.033800 
601.000000	0.034560 
600.000000	0.035240 
599.000000	0.035990 
598.000000	0.036820 
597.000000	0.037590 
596.000000	0.038470 
595.000000	0.039330 
594.000000	0.040230 
593.000000	0.041240 
592.000000	0.042210 
591.000000	0.043270 
590.000000	0.044380 
589.000000	0.045460 
588.000000	0.046690 
587.000000	0.048040 
586.000000	0.049350 
585.000000	0.050720 
584.000000	0.052180 
583.000000	0.053650 
582.000000	0.055050 
581.000000	0.056510 
580.000000	0.058220 
579.000000	0.059890 
578.000000	0.061760 
577.000000	0.063350 
576.000000	0.065449 
575.000000	0.067349 
574.000000	0.069360 
573.000000	0.071400 
572.000000	0.073550 
571.000000	0.075800 
570.000000	0.078020 
569.000000	0.080550 
568.000000	0.083010 
567.000000	0.085540 
566.000000	0.088270 
565.000000	0.091050 
564.000000	0.094010 
563.000000	0.096769 
562.000000	0.099760 
561.000000	0.102890 
560.000000	0.106110 
559.000000	0.109400 
558.000000	0.113470 
557.000000	0.117200 
556.000000	0.120920 
555.000000	0.124370 
554.000000	0.128060 
553.000000	0.131590 
552.000000	0.135280 
551.000000	0.139180 
550.000000	0.143170 
549.000000	0.147240 
548.000000	0.151210 
547.000000	0.155390 
546.000000	0.159400 
545.000000	0.163420 
544.000000	0.167680 
543.000000	0.171880 
542.000000	0.176080 
541.000000	0.180680 
540.000000	0.185150 
539.000000	0.189680 
538.000000	0.194290 
537.000000	0.198850 
536.000000	0.203340 
535.000000	0.207960 
534.000000	0.212540 
533.000000	0.217320 
532.000000	0.221840 
531.000000	0.226640 
530.000000	0.231480 
529.000000	0.236240 
528.000000	0.240800 
527.000000	0.245330 
526.000000	0.249810 
525.000000	0.254230 
524.000000	0.258650 
523.000000	0.262910 
522.000000	0.267220 
521.000000	0.271410 
520.000000	0.275750 
519.000000	0.279630 
518.000000	0.283540 
517.000000	0.287330 
516.000000	0.291010 
515.000000	0.294490 
514.000000	0.297870 
513.000000	0.301450 
512.000000	0.305050 
511.000000	0.308320 
510.000000	0.311540 
509.000000	0.314470 
508.000000	0.317340 
507.000000	0.319880 
506.000000	0.322520 
505.000000	0.325030 
504.000000	0.327270 
503.000000	0.329430 
502.000000	0.331560 
501.000000	0.333400 
500.000000	0.335280 
499.000000	0.336540 
498.000000	0.337950 
497.000000	0.339040 
496.000000	0.340060 
495.000000	0.340870 
494.000000	0.341480 
493.000000	0.342030 
492.000000	0.342260 
491.000000	0.342300 
490.000000	0.342000 
489.000000	0.341760 
488.000000	0.341390 
487.000000	0.340800 
486.000000	0.339960 
485.000000	0.339210 
484.000000	0.338040 
483.000000	0.336670 
482.000000	0.335320 
481.000000	0.333700 
480.000000	0.332070 
479.000000	0.330200 
478.000000	0.328470 
477.000000	0.326470 
476.000000	0.323960 
475.000000	0.321830 
474.000000	0.319130 
473.000000	0.316490 
472.000000	0.313700 
471.000000	0.310580 
470.000000	0.307930 
469.000000	0.304820 
468.000000	0.301730 
467.000000	0.298670 
466.000000	0.295220 
465.000000	0.292000 
464.000000	0.288450 
463.000000	0.284960 
462.000000	0.281670 
461.000000	0.278320 
460.000000	0.274650 
459.000000	0.271520 
458.000000	0.268020 
457.000000	0.264770 
456.000000	0.261190 
455.000000	0.257710 
454.000000	0.254140 
453.000000	0.250840 
452.000000	0.247320 
451.000000	0.243680 
450.000000	0.240850 
449.000000	0.237900 
448.000000	0.234810 
447.000000	0.231820 
446.000000	0.229230 
445.000000	0.226270 
444.000000	0.223720 
443.000000	0.221380 
442.000000	0.219070 
441.000000	0.217020 
440.000000	0.215230 
439.000000	0.213350 
438.000000	0.212090 
437.000000	0.210850 
436.000000	0.209850 
435.000000	0.209190 
434.000000	0.208500 
433.000000	0.208710 
432.000000	0.208710 
431.000000	0.209490 
430.000000	0.210130 
429.000000	0.211120 
428.000000	0.212860 
427.000000	0.214770 
426.000000	0.216740 
425.000000	0.220150 
424.000000	0.223540 
423.000000	0.226890 
422.000000	0.230820 
421.000000	0.234940 
420.000000	0.240000 
419.000000	0.245610 
418.000000	0.251740 
417.000000	0.258820 
416.000000	0.266510 
415.000000	0.274790 
414.000000	0.283620 
413.000000	0.293080 
412.000000	0.302980 
411.000000	0.313470 
410.000000	0.324880 
409.000000	0.337110 
408.000000	0.350410 
407.000000	0.364110 
406.000000	0.378420 
405.000000	0.392740 
404.000000	0.407610 
403.000000	0.423160 
402.000000	0.438750 
401.000000	0.455140 
400.000000	0.472440 

