PE UV                   SPECTRUM    ASCII       PEDS        1.60        
  -1
23MS246.SP
24/09/02
16:51:07.00
24/09/02
16:52:29.00


400.000000
1









4444

SCAN
1
1


0.0
480.0
2.00
MANUAL



UV/VIS




































#HDR
-1
-1
#GR
NM
A
0.00000011920928955078
0.0
700.000000
1.000000
301
8
0.439390
0.002600
#DATA
700.000000	0.002600 
699.000000	0.002720 
698.000000	0.002730 
697.000000	0.002730 
696.000000	0.002700 
695.000000	0.002850 
694.000000	0.002830 
693.000000	0.002770 
692.000000	0.002800 
691.000000	0.002870 
690.000000	0.002800 
689.000000	0.002820 
688.000000	0.002910 
687.000000	0.002820 
686.000000	0.002910 
685.000000	0.002990 
684.000000	0.003040 
683.000000	0.003080 
682.000000	0.003020 
681.000000	0.003010 
680.000000	0.003060 
679.000000	0.003130 
678.000000	0.003240 
677.000000	0.003050 
676.000000	0.003240 
675.000000	0.003300 
674.000000	0.003260 
673.000000	0.003340 
672.000000	0.003360 
671.000000	0.003210 
670.000000	0.003380 
669.000000	0.003530 
668.000000	0.003520 
667.000000	0.003610 
666.000000	0.003620 
665.000000	0.003700 
664.000000	0.003600 
663.000000	0.003710 
662.000000	0.003810 
661.000000	0.003800 
660.000000	0.003920 
659.000000	0.003930 
658.000000	0.003870 
657.000000	0.004020 
656.000000	0.004100 
655.000000	0.004160 
654.000000	0.004280 
653.000000	0.004330 
652.000000	0.004340 
651.000000	0.004460 
650.000000	0.004450 
649.000000	0.004550 
648.000000	0.004660 
647.000000	0.004760 
646.000000	0.004840 
645.000000	0.004920 
644.000000	0.005030 
643.000000	0.005100 
642.000000	0.005230 
641.000000	0.005330 
640.000000	0.005260 
639.000000	0.005400 
638.000000	0.005570 
637.000000	0.005680 
636.000000	0.005750 
635.000000	0.005940 
634.000000	0.005920 
633.000000	0.006080 
632.000000	0.006220 
631.000000	0.006230 
630.000000	0.006500 
629.000000	0.006610 
628.000000	0.006720 
627.000000	0.006830 
626.000000	0.007010 
625.000000	0.007180 
624.000000	0.007440 
623.000000	0.007650 
622.000000	0.007750 
621.000000	0.007950 
620.000000	0.008160 
619.000000	0.008370 
618.000000	0.008640 
617.000000	0.008869 
616.000000	0.009090 
615.000000	0.009390 
614.000000	0.009590 
613.000000	0.009930 
612.000000	0.010230 
611.000000	0.010550 
610.000000	0.010970 
609.000000	0.011180 
608.000000	0.011540 
607.000000	0.011950 
606.000000	0.012360 
605.000000	0.012700 
604.000000	0.013210 
603.000000	0.013680 
602.000000	0.014110 
601.000000	0.014670 
600.000000	0.015170 
599.000000	0.015830 
598.000000	0.016210 
597.000000	0.016920 
596.000000	0.017640 
595.000000	0.018270 
594.000000	0.019020 
593.000000	0.019830 
592.000000	0.020670 
591.000000	0.021580 
590.000000	0.022510 
589.000000	0.023470 
588.000000	0.024550 
587.000000	0.025540 
586.000000	0.026790 
585.000000	0.027830 
584.000000	0.029190 
583.000000	0.030450 
582.000000	0.031820 
581.000000	0.033200 
580.000000	0.034590 
579.000000	0.036150 
578.000000	0.037640 
577.000000	0.039280 
576.000000	0.041050 
575.000000	0.042870 
574.000000	0.044920 
573.000000	0.046780 
572.000000	0.048980 
571.000000	0.051180 
570.000000	0.053440 
569.000000	0.055700 
568.000000	0.058080 
567.000000	0.060510 
566.000000	0.063170 
565.000000	0.065989 
564.000000	0.068930 
563.000000	0.071940 
562.000000	0.074969 
561.000000	0.078560 
560.000000	0.081739 
559.000000	0.085170 
558.000000	0.089359 
557.000000	0.093110 
556.000000	0.097010 
555.000000	0.100980 
554.000000	0.104870 
553.000000	0.108960 
552.000000	0.113040 
551.000000	0.117130 
550.000000	0.121390 
549.000000	0.125780 
548.000000	0.130320 
547.000000	0.134790 
546.000000	0.139140 
545.000000	0.143980 
544.000000	0.148780 
543.000000	0.153940 
542.000000	0.158710 
541.000000	0.163590 
540.000000	0.168610 
539.000000	0.173700 
538.000000	0.178650 
537.000000	0.183980 
536.000000	0.189380 
535.000000	0.194790 
534.000000	0.200100 
533.000000	0.205610 
532.000000	0.211070 
531.000000	0.216560 
530.000000	0.221970 
529.000000	0.227340 
528.000000	0.232920 
527.000000	0.238280 
526.000000	0.243720 
525.000000	0.249040 
524.000000	0.254270 
523.000000	0.259360 
522.000000	0.264380 
521.000000	0.269240 
520.000000	0.274220 
519.000000	0.278970 
518.000000	0.283520 
517.000000	0.287930 
516.000000	0.292490 
515.000000	0.296900 
514.000000	0.301120 
513.000000	0.305140 
512.000000	0.309140 
511.000000	0.312930 
510.000000	0.316550 
509.000000	0.319980 
508.000000	0.323500 
507.000000	0.326550 
506.000000	0.329680 
505.000000	0.332590 
504.000000	0.335150 
503.000000	0.337690 
502.000000	0.339990 
501.000000	0.342040 
500.000000	0.344060 
499.000000	0.345600 
498.000000	0.347090 
497.000000	0.348270 
496.000000	0.349480 
495.000000	0.350090 
494.000000	0.350700 
493.000000	0.351010 
492.000000	0.351220 
491.000000	0.351380 
490.000000	0.350700 
489.000000	0.350240 
488.000000	0.349760 
487.000000	0.348660 
486.000000	0.347330 
485.000000	0.346160 
484.000000	0.344450 
483.000000	0.342650 
482.000000	0.340730 
481.000000	0.338670 
480.000000	0.336430 
479.000000	0.333720 
478.000000	0.330940 
477.000000	0.328250 
476.000000	0.325130 
475.000000	0.321810 
474.000000	0.318330 
473.000000	0.314950 
472.000000	0.311350 
471.000000	0.307380 
470.000000	0.303660 
469.000000	0.299300 
468.000000	0.295080 
467.000000	0.290810 
466.000000	0.286330 
465.000000	0.281880 
464.000000	0.277290 
463.000000	0.272820 
462.000000	0.268320 
461.000000	0.263840 
460.000000	0.259090 
459.000000	0.254800 
458.000000	0.250110 
457.000000	0.245320 
456.000000	0.240730 
455.000000	0.236290 
454.000000	0.231690 
453.000000	0.227070 
452.000000	0.222810 
451.000000	0.218110 
450.000000	0.213800 
449.000000	0.209670 
448.000000	0.205240 
447.000000	0.201030 
446.000000	0.197130 
445.000000	0.193610 
444.000000	0.189730 
443.000000	0.186400 
442.000000	0.182750 
441.000000	0.179570 
440.000000	0.176690 
439.000000	0.174060 
438.000000	0.171460 
437.000000	0.169420 
436.000000	0.167570 
435.000000	0.165840 
434.000000	0.164680 
433.000000	0.163940 
432.000000	0.163310 
431.000000	0.162730 
430.000000	0.163140 
429.000000	0.163490 
428.000000	0.164530 
427.000000	0.165950 
426.000000	0.167590 
425.000000	0.169790 
424.000000	0.172560 
423.000000	0.175880 
422.000000	0.179910 
421.000000	0.184310 
420.000000	0.189470 
419.000000	0.195070 
418.000000	0.201400 
417.000000	0.208380 
416.000000	0.216030 
415.000000	0.224130 
414.000000	0.233250 
413.000000	0.243110 
412.000000	0.253790 
411.000000	0.265470 
410.000000	0.277970 
409.000000	0.291260 
408.000000	0.305290 
407.000000	0.319790 
406.000000	0.334700 
405.000000	0.350540 
404.000000	0.366780 
403.000000	0.383820 
402.000000	0.401620 
401.000000	0.419960 
400.000000	0.439390 

