PE UV                   SPECTRUM    ASCII       PEDS        1.60        
  -1
23MS145.SP
24/08/30
17:22:38.00
24/08/30
17:23:52.00


400.000000
1









4444

SCAN
1
1


0.0
480.0
2.00
MANUAL



UV/VIS




































#HDR
-1
-1
#GR
NM
A
0.00000011920928955078
0.0
700.000000
1.000000
301
8
0.236020
0.010110
#DATA
700.000000	0.010110 
699.000000	0.010190 
698.000000	0.010310 
697.000000	0.010260 
696.000000	0.010260 
695.000000	0.010350 
694.000000	0.010370 
693.000000	0.010380 
692.000000	0.010400 
691.000000	0.010520 
690.000000	0.010570 
689.000000	0.010490 
688.000000	0.010570 
687.000000	0.010640 
686.000000	0.010680 
685.000000	0.010540 
684.000000	0.010360 
683.000000	0.010360 
682.000000	0.010430 
681.000000	0.010490 
680.000000	0.010430 
679.000000	0.010380 
678.000000	0.010390 
677.000000	0.010460 
676.000000	0.010450 
675.000000	0.010390 
674.000000	0.010500 
673.000000	0.010450 
672.000000	0.010390 
671.000000	0.010560 
670.000000	0.010530 
669.000000	0.010570 
668.000000	0.010560 
667.000000	0.010560 
666.000000	0.010570 
665.000000	0.010700 
664.000000	0.010640 
663.000000	0.010650 
662.000000	0.010570 
661.000000	0.010620 
660.000000	0.010680 
659.000000	0.010700 
658.000000	0.010690 
657.000000	0.010760 
656.000000	0.010710 
655.000000	0.010820 
654.000000	0.010720 
653.000000	0.010790 
652.000000	0.010830 
651.000000	0.010860 
650.000000	0.010810 
649.000000	0.010780 
648.000000	0.010870 
647.000000	0.010960 
646.000000	0.010860 
645.000000	0.010950 
644.000000	0.010950 
643.000000	0.010920 
642.000000	0.011010 
641.000000	0.011020 
640.000000	0.011100 
639.000000	0.011100 
638.000000	0.011160 
637.000000	0.011220 
636.000000	0.011180 
635.000000	0.011250 
634.000000	0.011270 
633.000000	0.011440 
632.000000	0.011500 
631.000000	0.011510 
630.000000	0.011620 
629.000000	0.011560 
628.000000	0.011630 
627.000000	0.011690 
626.000000	0.011820 
625.000000	0.011800 
624.000000	0.011880 
623.000000	0.011990 
622.000000	0.012070 
621.000000	0.012080 
620.000000	0.012230 
619.000000	0.012330 
618.000000	0.012420 
617.000000	0.012480 
616.000000	0.012490 
615.000000	0.012760 
614.000000	0.012960 
613.000000	0.012990 
612.000000	0.013190 
611.000000	0.013280 
610.000000	0.013440 
609.000000	0.013600 
608.000000	0.013780 
607.000000	0.013870 
606.000000	0.014100 
605.000000	0.014390 
604.000000	0.014520 
603.000000	0.014810 
602.000000	0.015040 
601.000000	0.015240 
600.000000	0.015490 
599.000000	0.015810 
598.000000	0.016110 
597.000000	0.016440 
596.000000	0.016750 
595.000000	0.017020 
594.000000	0.017430 
593.000000	0.017760 
592.000000	0.018150 
591.000000	0.018590 
590.000000	0.019060 
589.000000	0.019370 
588.000000	0.019890 
587.000000	0.020480 
586.000000	0.021110 
585.000000	0.021690 
584.000000	0.022230 
583.000000	0.022830 
582.000000	0.023480 
581.000000	0.024150 
580.000000	0.024690 
579.000000	0.025570 
578.000000	0.026230 
577.000000	0.027080 
576.000000	0.027950 
575.000000	0.028790 
574.000000	0.029760 
573.000000	0.030700 
572.000000	0.031640 
571.000000	0.032720 
570.000000	0.033680 
569.000000	0.034840 
568.000000	0.035980 
567.000000	0.037160 
566.000000	0.038530 
565.000000	0.039820 
564.000000	0.041210 
563.000000	0.042630 
562.000000	0.044130 
561.000000	0.045670 
560.000000	0.047390 
559.000000	0.049090 
558.000000	0.050770 
557.000000	0.052500 
556.000000	0.054370 
555.000000	0.056280 
554.000000	0.058100 
553.000000	0.060110 
552.000000	0.061970 
551.000000	0.064010 
550.000000	0.065920 
549.000000	0.068020 
548.000000	0.070350 
547.000000	0.072510 
546.000000	0.074590 
545.000000	0.076920 
544.000000	0.079290 
543.000000	0.081790 
542.000000	0.084200 
541.000000	0.086389 
540.000000	0.088770 
539.000000	0.091360 
538.000000	0.093780 
537.000000	0.096340 
536.000000	0.099030 
535.000000	0.101660 
534.000000	0.104210 
533.000000	0.106890 
532.000000	0.109580 
531.000000	0.112210 
530.000000	0.114960 
529.000000	0.117600 
528.000000	0.120330 
527.000000	0.123100 
526.000000	0.125800 
525.000000	0.128490 
524.000000	0.131060 
523.000000	0.133530 
522.000000	0.136030 
521.000000	0.138550 
520.000000	0.141010 
519.000000	0.143410 
518.000000	0.145680 
517.000000	0.147970 
516.000000	0.150340 
515.000000	0.152470 
514.000000	0.154690 
513.000000	0.156840 
512.000000	0.158760 
511.000000	0.160580 
510.000000	0.162600 
509.000000	0.164300 
508.000000	0.166260 
507.000000	0.167890 
506.000000	0.169280 
505.000000	0.170850 
504.000000	0.172330 
503.000000	0.173640 
502.000000	0.174760 
501.000000	0.175760 
500.000000	0.176900 
499.000000	0.177820 
498.000000	0.178420 
497.000000	0.179250 
496.000000	0.179930 
495.000000	0.180300 
494.000000	0.180490 
493.000000	0.180780 
492.000000	0.181080 
491.000000	0.181030 
490.000000	0.180890 
489.000000	0.180570 
488.000000	0.180250 
487.000000	0.179930 
486.000000	0.179240 
485.000000	0.178630 
484.000000	0.178020 
483.000000	0.177050 
482.000000	0.176100 
481.000000	0.175250 
480.000000	0.174020 
479.000000	0.172860 
478.000000	0.171530 
477.000000	0.170170 
476.000000	0.168790 
475.000000	0.167300 
474.000000	0.165340 
473.000000	0.163720 
472.000000	0.161890 
471.000000	0.159920 
470.000000	0.158060 
469.000000	0.156130 
468.000000	0.154070 
467.000000	0.151880 
466.000000	0.149590 
465.000000	0.147470 
464.000000	0.145240 
463.000000	0.142930 
462.000000	0.140760 
461.000000	0.138690 
460.000000	0.136310 
459.000000	0.133950 
458.000000	0.131510 
457.000000	0.129470 
456.000000	0.127020 
455.000000	0.124830 
454.000000	0.122580 
453.000000	0.120260 
452.000000	0.118050 
451.000000	0.115790 
450.000000	0.113620 
449.000000	0.111570 
448.000000	0.109600 
447.000000	0.107270 
446.000000	0.105250 
445.000000	0.103280 
444.000000	0.101480 
443.000000	0.099540 
442.000000	0.097900 
441.000000	0.096440 
440.000000	0.094790 
439.000000	0.093659 
438.000000	0.092259 
437.000000	0.091220 
436.000000	0.090300 
435.000000	0.089460 
434.000000	0.088990 
433.000000	0.088310 
432.000000	0.088210 
431.000000	0.087830 
430.000000	0.088039 
429.000000	0.088240 
428.000000	0.088980 
427.000000	0.089719 
426.000000	0.090690 
425.000000	0.091869 
424.000000	0.093160 
423.000000	0.095230 
422.000000	0.097449 
421.000000	0.099550 
420.000000	0.102310 
419.000000	0.105270 
418.000000	0.108630 
417.000000	0.112400 
416.000000	0.116330 
415.000000	0.120700 
414.000000	0.125560 
413.000000	0.130840 
412.000000	0.136610 
411.000000	0.142920 
410.000000	0.149550 
409.000000	0.156660 
408.000000	0.164100 
407.000000	0.171640 
406.000000	0.179940 
405.000000	0.188230 
404.000000	0.197100 
403.000000	0.206280 
402.000000	0.215680 
401.000000	0.225620 
400.000000	0.236020 

