PE UV                   SPECTRUM    ASCII       PEDS        1.60        
  -1
23MS175.SP
24/08/30
17:27:42.00
24/08/30
17:28:58.00


400.000000
1









4444

SCAN
1
1


0.0
480.0
2.00
MANUAL



UV/VIS




































#HDR
-1
-1
#GR
NM
A
0.00000011920928955078
0.0
700.000000
1.000000
301
8
0.246630
0.014300
#DATA
700.000000	0.014300 
699.000000	0.014420 
698.000000	0.014500 
697.000000	0.014650 
696.000000	0.014550 
695.000000	0.014600 
694.000000	0.014670 
693.000000	0.014740 
692.000000	0.014850 
691.000000	0.014870 
690.000000	0.014900 
689.000000	0.014950 
688.000000	0.015010 
687.000000	0.015070 
686.000000	0.015130 
685.000000	0.014930 
684.000000	0.014670 
683.000000	0.014780 
682.000000	0.014750 
681.000000	0.014770 
680.000000	0.014800 
679.000000	0.014770 
678.000000	0.014840 
677.000000	0.014840 
676.000000	0.014990 
675.000000	0.015020 
674.000000	0.015010 
673.000000	0.015010 
672.000000	0.015100 
671.000000	0.015180 
670.000000	0.015230 
669.000000	0.015220 
668.000000	0.015220 
667.000000	0.015390 
666.000000	0.015430 
665.000000	0.015480 
664.000000	0.015550 
663.000000	0.015510 
662.000000	0.015640 
661.000000	0.015700 
660.000000	0.015710 
659.000000	0.015740 
658.000000	0.015750 
657.000000	0.015880 
656.000000	0.015850 
655.000000	0.015930 
654.000000	0.015980 
653.000000	0.016070 
652.000000	0.016150 
651.000000	0.016250 
650.000000	0.016210 
649.000000	0.016200 
648.000000	0.016310 
647.000000	0.016410 
646.000000	0.016440 
645.000000	0.016440 
644.000000	0.016490 
643.000000	0.016530 
642.000000	0.016660 
641.000000	0.016530 
640.000000	0.016720 
639.000000	0.016790 
638.000000	0.016830 
637.000000	0.016830 
636.000000	0.017050 
635.000000	0.017150 
634.000000	0.017200 
633.000000	0.017290 
632.000000	0.017350 
631.000000	0.017450 
630.000000	0.017510 
629.000000	0.017550 
628.000000	0.017620 
627.000000	0.017820 
626.000000	0.017970 
625.000000	0.018010 
624.000000	0.018080 
623.000000	0.018290 
622.000000	0.018350 
621.000000	0.018410 
620.000000	0.018570 
619.000000	0.018690 
618.000000	0.018880 
617.000000	0.019040 
616.000000	0.019090 
615.000000	0.019220 
614.000000	0.019420 
613.000000	0.019630 
612.000000	0.019760 
611.000000	0.019900 
610.000000	0.020070 
609.000000	0.020320 
608.000000	0.020480 
607.000000	0.020610 
606.000000	0.020840 
605.000000	0.021100 
604.000000	0.021280 
603.000000	0.021540 
602.000000	0.021780 
601.000000	0.022020 
600.000000	0.022350 
599.000000	0.022660 
598.000000	0.022990 
597.000000	0.023270 
596.000000	0.023580 
595.000000	0.023830 
594.000000	0.024260 
593.000000	0.024610 
592.000000	0.024940 
591.000000	0.025380 
590.000000	0.025780 
589.000000	0.026110 
588.000000	0.026680 
587.000000	0.027240 
586.000000	0.027650 
585.000000	0.028200 
584.000000	0.028790 
583.000000	0.029390 
582.000000	0.029880 
581.000000	0.030510 
580.000000	0.031070 
579.000000	0.031670 
578.000000	0.032400 
577.000000	0.033010 
576.000000	0.033710 
575.000000	0.034510 
574.000000	0.035270 
573.000000	0.036150 
572.000000	0.036960 
571.000000	0.037940 
570.000000	0.038730 
569.000000	0.039750 
568.000000	0.040700 
567.000000	0.041550 
566.000000	0.042710 
565.000000	0.043700 
564.000000	0.044900 
563.000000	0.046110 
562.000000	0.047220 
561.000000	0.048480 
560.000000	0.050070 
559.000000	0.051650 
558.000000	0.052950 
557.000000	0.054470 
556.000000	0.055820 
555.000000	0.057320 
554.000000	0.058790 
553.000000	0.060360 
552.000000	0.061990 
551.000000	0.063440 
550.000000	0.065050 
549.000000	0.066620 
548.000000	0.068390 
547.000000	0.070080 
546.000000	0.071609 
545.000000	0.073400 
544.000000	0.075350 
543.000000	0.077130 
542.000000	0.079120 
541.000000	0.080890 
540.000000	0.082800 
539.000000	0.084670 
538.000000	0.086510 
537.000000	0.088420 
536.000000	0.090430 
535.000000	0.092420 
534.000000	0.094440 
533.000000	0.096510 
532.000000	0.098550 
531.000000	0.100740 
530.000000	0.102660 
529.000000	0.104740 
528.000000	0.106710 
527.000000	0.108790 
526.000000	0.110760 
525.000000	0.112740 
524.000000	0.114820 
523.000000	0.116710 
522.000000	0.118720 
521.000000	0.120610 
520.000000	0.122480 
519.000000	0.124270 
518.000000	0.126030 
517.000000	0.127680 
516.000000	0.129510 
515.000000	0.131070 
514.000000	0.132820 
513.000000	0.134550 
512.000000	0.136050 
511.000000	0.137470 
510.000000	0.139130 
509.000000	0.140400 
508.000000	0.141750 
507.000000	0.143110 
506.000000	0.144340 
505.000000	0.145570 
504.000000	0.146740 
503.000000	0.147790 
502.000000	0.148570 
501.000000	0.149620 
500.000000	0.150390 
499.000000	0.151320 
498.000000	0.151870 
497.000000	0.152430 
496.000000	0.153220 
495.000000	0.153600 
494.000000	0.153810 
493.000000	0.154100 
492.000000	0.154380 
491.000000	0.154540 
490.000000	0.154570 
489.000000	0.154480 
488.000000	0.154220 
487.000000	0.154180 
486.000000	0.153870 
485.000000	0.153330 
484.000000	0.153090 
483.000000	0.152510 
482.000000	0.151840 
481.000000	0.151430 
480.000000	0.150600 
479.000000	0.149940 
478.000000	0.149030 
477.000000	0.148250 
476.000000	0.147350 
475.000000	0.146210 
474.000000	0.144930 
473.000000	0.144000 
472.000000	0.142830 
471.000000	0.141390 
470.000000	0.140190 
469.000000	0.138930 
468.000000	0.137450 
467.000000	0.135970 
466.000000	0.134470 
465.000000	0.132960 
464.000000	0.131440 
463.000000	0.129880 
462.000000	0.128390 
461.000000	0.126930 
460.000000	0.125410 
459.000000	0.123710 
458.000000	0.121970 
457.000000	0.120640 
456.000000	0.119150 
455.000000	0.117400 
454.000000	0.115790 
453.000000	0.114240 
452.000000	0.112820 
451.000000	0.111530 
450.000000	0.109970 
449.000000	0.108580 
448.000000	0.107250 
447.000000	0.105700 
446.000000	0.104290 
445.000000	0.102950 
444.000000	0.101880 
443.000000	0.100720 
442.000000	0.099660 
441.000000	0.098930 
440.000000	0.097879 
439.000000	0.097390 
438.000000	0.096900 
437.000000	0.096150 
436.000000	0.095850 
435.000000	0.095760 
434.000000	0.095480 
433.000000	0.095780 
432.000000	0.095710 
431.000000	0.096170 
430.000000	0.096680 
429.000000	0.097460 
428.000000	0.098559 
427.000000	0.099490 
426.000000	0.100670 
425.000000	0.102440 
424.000000	0.104200 
423.000000	0.106580 
422.000000	0.108860 
421.000000	0.110350 
420.000000	0.113060 
419.000000	0.116290 
418.000000	0.119970 
417.000000	0.123870 
416.000000	0.128140 
415.000000	0.132550 
414.000000	0.137490 
413.000000	0.142820 
412.000000	0.148590 
411.000000	0.154870 
410.000000	0.161650 
409.000000	0.168870 
408.000000	0.176290 
407.000000	0.183990 
406.000000	0.191950 
405.000000	0.200090 
404.000000	0.208680 
403.000000	0.217640 
402.000000	0.226680 
401.000000	0.236520 
400.000000	0.246630 

