PE UV                   SPECTRUM    ASCII       PEDS        1.60        
  -1
23MS131.SP
24/08/30
16:58:39.00
24/08/30
17:00:25.00


400.000000
1









4444

SCAN
1
1


0.0
480.0
2.00
MANUAL



UV/VIS




































#HDR
-1
-1
#GR
NM
A
0.00000011920928955078
0.0
700.000000
1.000000
301
8
0.349190
0.011800
#DATA
700.000000	0.011800 
699.000000	0.011900 
698.000000	0.011880 
697.000000	0.011970 
696.000000	0.011870 
695.000000	0.011900 
694.000000	0.011970 
693.000000	0.011900 
692.000000	0.012090 
691.000000	0.012140 
690.000000	0.012240 
689.000000	0.012220 
688.000000	0.012210 
687.000000	0.012350 
686.000000	0.012350 
685.000000	0.012320 
684.000000	0.012310 
683.000000	0.012340 
682.000000	0.012290 
681.000000	0.012310 
680.000000	0.012360 
679.000000	0.012280 
678.000000	0.012330 
677.000000	0.012340 
676.000000	0.012480 
675.000000	0.012450 
674.000000	0.012520 
673.000000	0.012500 
672.000000	0.012490 
671.000000	0.012610 
670.000000	0.012630 
669.000000	0.012710 
668.000000	0.012660 
667.000000	0.012740 
666.000000	0.012800 
665.000000	0.012790 
664.000000	0.012840 
663.000000	0.012820 
662.000000	0.012860 
661.000000	0.012910 
660.000000	0.013030 
659.000000	0.013000 
658.000000	0.013020 
657.000000	0.013110 
656.000000	0.013130 
655.000000	0.013260 
654.000000	0.013130 
653.000000	0.013310 
652.000000	0.013280 
651.000000	0.013370 
650.000000	0.013280 
649.000000	0.013380 
648.000000	0.013350 
647.000000	0.013550 
646.000000	0.013580 
645.000000	0.013610 
644.000000	0.013650 
643.000000	0.013680 
642.000000	0.013850 
641.000000	0.013790 
640.000000	0.013910 
639.000000	0.013910 
638.000000	0.014030 
637.000000	0.014060 
636.000000	0.014140 
635.000000	0.014200 
634.000000	0.014290 
633.000000	0.014390 
632.000000	0.014480 
631.000000	0.014490 
630.000000	0.014580 
629.000000	0.014680 
628.000000	0.014830 
627.000000	0.014920 
626.000000	0.015090 
625.000000	0.015140 
624.000000	0.015240 
623.000000	0.015430 
622.000000	0.015440 
621.000000	0.015540 
620.000000	0.015810 
619.000000	0.015840 
618.000000	0.016090 
617.000000	0.016170 
616.000000	0.016320 
615.000000	0.016530 
614.000000	0.016820 
613.000000	0.017040 
612.000000	0.017200 
611.000000	0.017470 
610.000000	0.017720 
609.000000	0.017980 
608.000000	0.018220 
607.000000	0.018510 
606.000000	0.018770 
605.000000	0.019110 
604.000000	0.019350 
603.000000	0.019610 
602.000000	0.020020 
601.000000	0.020380 
600.000000	0.020900 
599.000000	0.021250 
598.000000	0.021760 
597.000000	0.022280 
596.000000	0.022740 
595.000000	0.023250 
594.000000	0.023770 
593.000000	0.024350 
592.000000	0.024950 
591.000000	0.025530 
590.000000	0.026420 
589.000000	0.027040 
588.000000	0.027870 
587.000000	0.028690 
586.000000	0.029540 
585.000000	0.030420 
584.000000	0.031340 
583.000000	0.032320 
582.000000	0.033320 
581.000000	0.034290 
580.000000	0.035440 
579.000000	0.036560 
578.000000	0.037780 
577.000000	0.039050 
576.000000	0.040340 
575.000000	0.041650 
574.000000	0.043000 
573.000000	0.044520 
572.000000	0.046120 
571.000000	0.047640 
570.000000	0.049440 
569.000000	0.051230 
568.000000	0.053030 
567.000000	0.054860 
566.000000	0.056900 
565.000000	0.058870 
564.000000	0.061110 
563.000000	0.063270 
562.000000	0.065580 
561.000000	0.068160 
560.000000	0.070940 
559.000000	0.073719 
558.000000	0.076420 
557.000000	0.079190 
556.000000	0.081860 
555.000000	0.084810 
554.000000	0.087749 
553.000000	0.090840 
552.000000	0.093930 
551.000000	0.096940 
550.000000	0.100170 
549.000000	0.103630 
548.000000	0.107000 
547.000000	0.110330 
546.000000	0.113520 
545.000000	0.117060 
544.000000	0.120670 
543.000000	0.124440 
542.000000	0.128210 
541.000000	0.132010 
540.000000	0.135820 
539.000000	0.139680 
538.000000	0.143540 
537.000000	0.147420 
536.000000	0.151300 
535.000000	0.155310 
534.000000	0.159250 
533.000000	0.163510 
532.000000	0.167670 
531.000000	0.171960 
530.000000	0.176180 
529.000000	0.180290 
528.000000	0.184330 
527.000000	0.188350 
526.000000	0.192360 
525.000000	0.196360 
524.000000	0.200360 
523.000000	0.204350 
522.000000	0.208240 
521.000000	0.212070 
520.000000	0.215830 
519.000000	0.219330 
518.000000	0.222820 
517.000000	0.226180 
516.000000	0.229600 
515.000000	0.232730 
514.000000	0.236110 
513.000000	0.239380 
512.000000	0.242460 
511.000000	0.245270 
510.000000	0.248300 
509.000000	0.250830 
508.000000	0.253270 
507.000000	0.255680 
506.000000	0.257960 
505.000000	0.260280 
504.000000	0.262430 
503.000000	0.264270 
502.000000	0.265920 
501.000000	0.267570 
500.000000	0.269120 
499.000000	0.270450 
498.000000	0.271320 
497.000000	0.272180 
496.000000	0.273130 
495.000000	0.273680 
494.000000	0.274050 
493.000000	0.274390 
492.000000	0.274510 
491.000000	0.274420 
490.000000	0.273900 
489.000000	0.273780 
488.000000	0.273140 
487.000000	0.272620 
486.000000	0.271640 
485.000000	0.270450 
484.000000	0.269440 
483.000000	0.267960 
482.000000	0.266500 
481.000000	0.264780 
480.000000	0.262960 
479.000000	0.261210 
478.000000	0.259050 
477.000000	0.256810 
476.000000	0.254640 
475.000000	0.252060 
474.000000	0.249240 
473.000000	0.246700 
472.000000	0.243760 
471.000000	0.240660 
470.000000	0.237790 
469.000000	0.234890 
468.000000	0.231620 
467.000000	0.228310 
466.000000	0.224650 
465.000000	0.221360 
464.000000	0.217680 
463.000000	0.214120 
462.000000	0.210870 
461.000000	0.207500 
460.000000	0.203930 
459.000000	0.200490 
458.000000	0.197060 
457.000000	0.193450 
456.000000	0.189960 
455.000000	0.186440 
454.000000	0.182720 
453.000000	0.179080 
452.000000	0.175820 
451.000000	0.172740 
450.000000	0.169090 
449.000000	0.165990 
448.000000	0.162800 
447.000000	0.159540 
446.000000	0.156280 
445.000000	0.153300 
444.000000	0.150400 
443.000000	0.147870 
442.000000	0.144950 
441.000000	0.143050 
440.000000	0.140710 
439.000000	0.138580 
438.000000	0.137030 
437.000000	0.135090 
436.000000	0.133520 
435.000000	0.132350 
434.000000	0.131270 
433.000000	0.130740 
432.000000	0.130330 
431.000000	0.130060 
430.000000	0.130110 
429.000000	0.130510 
428.000000	0.131600 
427.000000	0.132430 
426.000000	0.133830 
425.000000	0.135810 
424.000000	0.138000 
423.000000	0.140500 
422.000000	0.143740 
421.000000	0.146150 
420.000000	0.149790 
419.000000	0.154340 
418.000000	0.159390 
417.000000	0.165050 
416.000000	0.171220 
415.000000	0.177880 
414.000000	0.185050 
413.000000	0.192670 
412.000000	0.200910 
411.000000	0.210080 
410.000000	0.220000 
409.000000	0.230610 
408.000000	0.242190 
407.000000	0.253880 
406.000000	0.266030 
405.000000	0.278580 
404.000000	0.291500 
403.000000	0.305020 
402.000000	0.319000 
401.000000	0.333680 
400.000000	0.349190 

