PE UV                   SPECTRUM    ASCII       PEDS        1.60        
  -1
23MS142.SP
24/08/30
17:35:03.00
24/08/30
17:37:18.00


400.000000
1









4444

SCAN
1
1


0.0
480.0
2.00
MANUAL



UV/VIS




































#HDR
-1
-1
#GR
NM
A
0.00000011920928955078
0.0
700.000000
1.000000
301
8
0.318680
0.020640
#DATA
700.000000	0.020640 
699.000000	0.020800 
698.000000	0.020810 
697.000000	0.020880 
696.000000	0.020850 
695.000000	0.020920 
694.000000	0.020970 
693.000000	0.020970 
692.000000	0.021170 
691.000000	0.021210 
690.000000	0.021310 
689.000000	0.021380 
688.000000	0.021340 
687.000000	0.021580 
686.000000	0.021290 
685.000000	0.024960 
684.000000	0.033050 
683.000000	0.032340 
682.000000	0.032220 
681.000000	0.032040 
680.000000	0.031990 
679.000000	0.031750 
678.000000	0.031620 
677.000000	0.031550 
676.000000	0.031590 
675.000000	0.031460 
674.000000	0.031350 
673.000000	0.031210 
672.000000	0.031110 
671.000000	0.031170 
670.000000	0.031010 
669.000000	0.031070 
668.000000	0.031030 
667.000000	0.030900 
666.000000	0.030870 
665.000000	0.030930 
664.000000	0.030820 
663.000000	0.030760 
662.000000	0.030760 
661.000000	0.030770 
660.000000	0.030710 
659.000000	0.030610 
658.000000	0.030610 
657.000000	0.030640 
656.000000	0.030570 
655.000000	0.030690 
654.000000	0.030570 
653.000000	0.030650 
652.000000	0.030600 
651.000000	0.030600 
650.000000	0.030530 
649.000000	0.030530 
648.000000	0.030490 
647.000000	0.030610 
646.000000	0.030550 
645.000000	0.030580 
644.000000	0.030620 
643.000000	0.030610 
642.000000	0.030620 
641.000000	0.030660 
640.000000	0.030690 
639.000000	0.030700 
638.000000	0.030820 
637.000000	0.030820 
636.000000	0.030850 
635.000000	0.030870 
634.000000	0.030910 
633.000000	0.031040 
632.000000	0.031160 
631.000000	0.031280 
630.000000	0.031370 
629.000000	0.031410 
628.000000	0.031490 
627.000000	0.031580 
626.000000	0.031810 
625.000000	0.031870 
624.000000	0.031860 
623.000000	0.032090 
622.000000	0.032200 
621.000000	0.032220 
620.000000	0.032400 
619.000000	0.032630 
618.000000	0.032820 
617.000000	0.032920 
616.000000	0.033030 
615.000000	0.033280 
614.000000	0.033570 
613.000000	0.033740 
612.000000	0.033980 
611.000000	0.034200 
610.000000	0.034460 
609.000000	0.034820 
608.000000	0.035080 
607.000000	0.035310 
606.000000	0.035580 
605.000000	0.036020 
604.000000	0.036290 
603.000000	0.036650 
602.000000	0.037110 
601.000000	0.037520 
600.000000	0.037980 
599.000000	0.038360 
598.000000	0.038760 
597.000000	0.039240 
596.000000	0.039720 
595.000000	0.040150 
594.000000	0.040660 
593.000000	0.041280 
592.000000	0.041830 
591.000000	0.042370 
590.000000	0.043010 
589.000000	0.043570 
588.000000	0.044160 
587.000000	0.044970 
586.000000	0.045690 
585.000000	0.046450 
584.000000	0.047190 
583.000000	0.048020 
582.000000	0.048800 
581.000000	0.049640 
580.000000	0.050410 
579.000000	0.051330 
578.000000	0.052280 
577.000000	0.053230 
576.000000	0.054280 
575.000000	0.055280 
574.000000	0.056380 
573.000000	0.057650 
572.000000	0.058850 
571.000000	0.060030 
570.000000	0.061270 
569.000000	0.062710 
568.000000	0.064150 
567.000000	0.065600 
566.000000	0.067270 
565.000000	0.068800 
564.000000	0.070670 
563.000000	0.072350 
562.000000	0.074170 
561.000000	0.075939 
560.000000	0.081390 
559.000000	0.085470 
558.000000	0.087200 
557.000000	0.089270 
556.000000	0.091259 
555.000000	0.093310 
554.000000	0.095390 
553.000000	0.097470 
552.000000	0.099650 
551.000000	0.101830 
550.000000	0.103970 
549.000000	0.106310 
548.000000	0.108860 
547.000000	0.111270 
546.000000	0.113460 
545.000000	0.116260 
544.000000	0.118970 
543.000000	0.121670 
542.000000	0.124340 
541.000000	0.126980 
540.000000	0.129590 
539.000000	0.132530 
538.000000	0.135440 
537.000000	0.138270 
536.000000	0.141250 
535.000000	0.144300 
534.000000	0.147280 
533.000000	0.150430 
532.000000	0.153410 
531.000000	0.156470 
530.000000	0.159600 
529.000000	0.162650 
528.000000	0.165810 
527.000000	0.169070 
526.000000	0.172150 
525.000000	0.175280 
524.000000	0.178260 
523.000000	0.181310 
522.000000	0.184310 
521.000000	0.187260 
520.000000	0.190070 
519.000000	0.193170 
518.000000	0.196080 
517.000000	0.198870 
516.000000	0.201700 
515.000000	0.204260 
514.000000	0.206850 
513.000000	0.209500 
512.000000	0.212030 
511.000000	0.214390 
510.000000	0.216920 
509.000000	0.219220 
508.000000	0.221640 
507.000000	0.223840 
506.000000	0.225880 
505.000000	0.228080 
504.000000	0.230060 
503.000000	0.231820 
502.000000	0.233550 
501.000000	0.235310 
500.000000	0.236900 
499.000000	0.238540 
498.000000	0.239720 
497.000000	0.241260 
496.000000	0.242610 
495.000000	0.243540 
494.000000	0.244480 
493.000000	0.245390 
492.000000	0.246070 
491.000000	0.246680 
490.000000	0.247020 
489.000000	0.247530 
488.000000	0.247680 
487.000000	0.248030 
486.000000	0.248110 
485.000000	0.247980 
484.000000	0.248240 
483.000000	0.247840 
482.000000	0.247580 
481.000000	0.247080 
480.000000	0.246550 
479.000000	0.246250 
478.000000	0.245570 
477.000000	0.244810 
476.000000	0.244140 
475.000000	0.243480 
474.000000	0.242380 
473.000000	0.241440 
472.000000	0.240150 
471.000000	0.238840 
470.000000	0.237520 
469.000000	0.236410 
468.000000	0.235030 
467.000000	0.233600 
466.000000	0.232160 
465.000000	0.230570 
464.000000	0.229090 
463.000000	0.227570 
462.000000	0.225900 
461.000000	0.224300 
460.000000	0.222790 
459.000000	0.221000 
458.000000	0.219450 
457.000000	0.217960 
456.000000	0.216460 
455.000000	0.215160 
454.000000	0.213530 
453.000000	0.212100 
452.000000	0.210570 
451.000000	0.209370 
450.000000	0.207600 
449.000000	0.206410 
448.000000	0.205050 
447.000000	0.203570 
446.000000	0.202540 
445.000000	0.201510 
444.000000	0.200490 
443.000000	0.199640 
442.000000	0.198760 
441.000000	0.198530 
440.000000	0.198210 
439.000000	0.198240 
438.000000	0.198380 
437.000000	0.198530 
436.000000	0.198790 
435.000000	0.199290 
434.000000	0.199920 
433.000000	0.200920 
432.000000	0.202080 
431.000000	0.203920 
430.000000	0.205880 
429.000000	0.207830 
428.000000	0.210680 
427.000000	0.213000 
426.000000	0.216230 
425.000000	0.220340 
424.000000	0.224500 
423.000000	0.229260 
422.000000	0.239760 
421.000000	0.166130 
420.000000	0.145480 
419.000000	0.150620 
418.000000	0.154840 
417.000000	0.159530 
416.000000	0.164680 
415.000000	0.170200 
414.000000	0.176500 
413.000000	0.183150 
412.000000	0.190590 
411.000000	0.198370 
410.000000	0.206850 
409.000000	0.215700 
408.000000	0.225190 
407.000000	0.234940 
406.000000	0.245340 
405.000000	0.256080 
404.000000	0.267620 
403.000000	0.279430 
402.000000	0.291820 
401.000000	0.304930 
400.000000	0.318680 

