PE UV                   SPECTRUM    ASCII       PEDS        1.60        
  -1
23MS181.SP
24/08/30
17:02:13.00
24/08/30
17:03:13.00


400.000000
1









4444

SCAN
1
1


0.0
480.0
2.00
MANUAL



UV/VIS




































#HDR
-1
-1
#GR
NM
A
0.00000011920928955078
0.0
700.000000
1.000000
301
8
0.338260
0.059950
#DATA
700.000000	0.059950 
699.000000	0.060140 
698.000000	0.060200 
697.000000	0.060280 
696.000000	0.060290 
695.000000	0.060490 
694.000000	0.060520 
693.000000	0.060450 
692.000000	0.060720 
691.000000	0.060890 
690.000000	0.060960 
689.000000	0.060930 
688.000000	0.061140 
687.000000	0.061230 
686.000000	0.061290 
685.000000	0.061270 
684.000000	0.061380 
683.000000	0.061450 
682.000000	0.061560 
681.000000	0.061670 
680.000000	0.061660 
679.000000	0.061730 
678.000000	0.061840 
677.000000	0.061920 
676.000000	0.062010 
675.000000	0.062000 
674.000000	0.062060 
673.000000	0.062120 
672.000000	0.062160 
671.000000	0.062330 
670.000000	0.062470 
669.000000	0.062530 
668.000000	0.062620 
667.000000	0.062820 
666.000000	0.062850 
665.000000	0.063000 
664.000000	0.063200 
663.000000	0.063159 
662.000000	0.063210 
661.000000	0.063440 
660.000000	0.063510 
659.000000	0.063580 
658.000000	0.063729 
657.000000	0.063839 
656.000000	0.063960 
655.000000	0.064080 
654.000000	0.064130 
653.000000	0.064290 
652.000000	0.064380 
651.000000	0.064580 
650.000000	0.064610 
649.000000	0.064740 
648.000000	0.064769 
647.000000	0.065050 
646.000000	0.065050 
645.000000	0.065210 
644.000000	0.065250 
643.000000	0.065330 
642.000000	0.065600 
641.000000	0.065600 
640.000000	0.065730 
639.000000	0.065860 
638.000000	0.065980 
637.000000	0.066150 
636.000000	0.066290 
635.000000	0.066370 
634.000000	0.066480 
633.000000	0.066660 
632.000000	0.066840 
631.000000	0.066960 
630.000000	0.067070 
629.000000	0.067100 
628.000000	0.067320 
627.000000	0.067480 
626.000000	0.067660 
625.000000	0.067830 
624.000000	0.067950 
623.000000	0.068130 
622.000000	0.068260 
621.000000	0.068390 
620.000000	0.068660 
619.000000	0.068820 
618.000000	0.069029 
617.000000	0.069250 
616.000000	0.069440 
615.000000	0.069600 
614.000000	0.069940 
613.000000	0.070130 
612.000000	0.070340 
611.000000	0.070550 
610.000000	0.070819 
609.000000	0.071139 
608.000000	0.071340 
607.000000	0.071630 
606.000000	0.071870 
605.000000	0.072240 
604.000000	0.072510 
603.000000	0.072850 
602.000000	0.073190 
601.000000	0.073620 
600.000000	0.074050 
599.000000	0.074340 
598.000000	0.074840 
597.000000	0.075180 
596.000000	0.075509 
595.000000	0.075980 
594.000000	0.076500 
593.000000	0.077030 
592.000000	0.077560 
591.000000	0.078010 
590.000000	0.078700 
589.000000	0.079150 
588.000000	0.079780 
587.000000	0.080440 
586.000000	0.081120 
585.000000	0.081850 
584.000000	0.082500 
583.000000	0.083190 
582.000000	0.084020 
581.000000	0.084820 
580.000000	0.085550 
579.000000	0.086470 
578.000000	0.087260 
577.000000	0.088170 
576.000000	0.089120 
575.000000	0.090050 
574.000000	0.091140 
573.000000	0.092290 
572.000000	0.093350 
571.000000	0.094479 
570.000000	0.095699 
569.000000	0.096910 
568.000000	0.098250 
567.000000	0.099560 
566.000000	0.101250 
565.000000	0.102680 
564.000000	0.104250 
563.000000	0.105770 
562.000000	0.107320 
561.000000	0.109200 
560.000000	0.110250 
559.000000	0.111600 
558.000000	0.113480 
557.000000	0.115490 
556.000000	0.117470 
555.000000	0.119490 
554.000000	0.121440 
553.000000	0.123590 
552.000000	0.125690 
551.000000	0.127780 
550.000000	0.129930 
549.000000	0.132140 
548.000000	0.134600 
547.000000	0.136980 
546.000000	0.139300 
545.000000	0.141770 
544.000000	0.144330 
543.000000	0.146910 
542.000000	0.149530 
541.000000	0.152060 
540.000000	0.154460 
539.000000	0.157150 
538.000000	0.159840 
537.000000	0.162640 
536.000000	0.165420 
535.000000	0.168280 
534.000000	0.171020 
533.000000	0.173860 
532.000000	0.176730 
531.000000	0.179490 
530.000000	0.182330 
529.000000	0.185320 
528.000000	0.188080 
527.000000	0.191180 
526.000000	0.194060 
525.000000	0.196910 
524.000000	0.199630 
523.000000	0.202360 
522.000000	0.204850 
521.000000	0.207500 
520.000000	0.210190 
519.000000	0.212640 
518.000000	0.215110 
517.000000	0.217550 
516.000000	0.220080 
515.000000	0.222270 
514.000000	0.224540 
513.000000	0.226820 
512.000000	0.228920 
511.000000	0.230900 
510.000000	0.232970 
509.000000	0.234940 
508.000000	0.236920 
507.000000	0.238620 
506.000000	0.240190 
505.000000	0.241860 
504.000000	0.243500 
503.000000	0.244690 
502.000000	0.245940 
501.000000	0.247160 
500.000000	0.248370 
499.000000	0.249430 
498.000000	0.250200 
497.000000	0.250910 
496.000000	0.251700 
495.000000	0.252370 
494.000000	0.252660 
493.000000	0.252890 
492.000000	0.253120 
491.000000	0.253350 
490.000000	0.253170 
489.000000	0.252970 
488.000000	0.252760 
487.000000	0.252340 
486.000000	0.251830 
485.000000	0.251340 
484.000000	0.250770 
483.000000	0.249930 
482.000000	0.248980 
481.000000	0.248030 
480.000000	0.246770 
479.000000	0.245830 
478.000000	0.244560 
477.000000	0.243300 
476.000000	0.241900 
475.000000	0.240360 
474.000000	0.238640 
473.000000	0.237170 
472.000000	0.235580 
471.000000	0.233510 
470.000000	0.231760 
469.000000	0.229630 
468.000000	0.227780 
467.000000	0.225800 
466.000000	0.223390 
465.000000	0.221470 
464.000000	0.219390 
463.000000	0.217180 
462.000000	0.215080 
461.000000	0.212890 
460.000000	0.210780 
459.000000	0.208600 
458.000000	0.206230 
457.000000	0.204190 
456.000000	0.202000 
455.000000	0.199830 
454.000000	0.197580 
453.000000	0.195490 
452.000000	0.193410 
451.000000	0.191610 
450.000000	0.189430 
449.000000	0.187550 
448.000000	0.185680 
447.000000	0.183570 
446.000000	0.181580 
445.000000	0.179920 
444.000000	0.178440 
443.000000	0.176860 
442.000000	0.175140 
441.000000	0.174140 
440.000000	0.172790 
439.000000	0.171790 
438.000000	0.170780 
437.000000	0.169950 
436.000000	0.169440 
435.000000	0.169070 
434.000000	0.168550 
433.000000	0.168300 
432.000000	0.168550 
431.000000	0.168970 
430.000000	0.169400 
429.000000	0.170080 
428.000000	0.170930 
427.000000	0.172070 
426.000000	0.173310 
425.000000	0.175150 
424.000000	0.177120 
423.000000	0.179260 
422.000000	0.182090 
421.000000	0.185300 
420.000000	0.188690 
419.000000	0.192230 
418.000000	0.196040 
417.000000	0.200430 
416.000000	0.205100 
415.000000	0.209990 
414.000000	0.215710 
413.000000	0.221550 
412.000000	0.228050 
411.000000	0.234950 
410.000000	0.242510 
409.000000	0.250330 
408.000000	0.258580 
407.000000	0.267090 
406.000000	0.276160 
405.000000	0.285520 
404.000000	0.295360 
403.000000	0.305480 
402.000000	0.315750 
401.000000	0.327000 
400.000000	0.338260 

