PE UV                   SPECTRUM    ASCII       PEDS        1.60        
  -1
23MS072.SP
24/09/05
16:08:21.00
24/09/05
16:09:28.00


400.000000
1









4444

SCAN
1
1


0.0
480.0
2.00
MANUAL



UV/VIS




































#HDR
-1
-1
#GR
NM
A
0.00000011920928955078
0.0
700.000000
1.000000
301
8
0.430910
0.006130
#DATA
700.000000	0.006160 
699.000000	0.006130 
698.000000	0.006320 
697.000000	0.006260 
696.000000	0.006360 
695.000000	0.006360 
694.000000	0.006390 
693.000000	0.006390 
692.000000	0.006460 
691.000000	0.006410 
690.000000	0.006350 
689.000000	0.006370 
688.000000	0.006510 
687.000000	0.006440 
686.000000	0.006470 
685.000000	0.006610 
684.000000	0.006730 
683.000000	0.006280 
682.000000	0.006260 
681.000000	0.006220 
680.000000	0.006340 
679.000000	0.006290 
678.000000	0.006440 
677.000000	0.006540 
676.000000	0.006580 
675.000000	0.006530 
674.000000	0.006580 
673.000000	0.006640 
672.000000	0.006750 
671.000000	0.006710 
670.000000	0.006750 
669.000000	0.006750 
668.000000	0.006820 
667.000000	0.006930 
666.000000	0.006900 
665.000000	0.006880 
664.000000	0.007030 
663.000000	0.007060 
662.000000	0.007070 
661.000000	0.007090 
660.000000	0.007130 
659.000000	0.007210 
658.000000	0.007330 
657.000000	0.007360 
656.000000	0.007410 
655.000000	0.007460 
654.000000	0.007470 
653.000000	0.007670 
652.000000	0.007650 
651.000000	0.007680 
650.000000	0.007710 
649.000000	0.007810 
648.000000	0.007860 
647.000000	0.008080 
646.000000	0.008040 
645.000000	0.008149 
644.000000	0.008140 
643.000000	0.008300 
642.000000	0.008300 
641.000000	0.008500 
640.000000	0.008430 
639.000000	0.008520 
638.000000	0.008770 
637.000000	0.008760 
636.000000	0.008869 
635.000000	0.008900 
634.000000	0.009060 
633.000000	0.009169 
632.000000	0.009290 
631.000000	0.009429 
630.000000	0.009570 
629.000000	0.009660 
628.000000	0.009750 
627.000000	0.009840 
626.000000	0.009990 
625.000000	0.010210 
624.000000	0.010330 
623.000000	0.010550 
622.000000	0.010610 
621.000000	0.010730 
620.000000	0.011040 
619.000000	0.011240 
618.000000	0.011440 
617.000000	0.011570 
616.000000	0.011770 
615.000000	0.012040 
614.000000	0.012300 
613.000000	0.012490 
612.000000	0.012730 
611.000000	0.013090 
610.000000	0.013380 
609.000000	0.013710 
608.000000	0.014040 
607.000000	0.014300 
606.000000	0.014650 
605.000000	0.015110 
604.000000	0.015500 
603.000000	0.015930 
602.000000	0.016450 
601.000000	0.016900 
600.000000	0.017420 
599.000000	0.017920 
598.000000	0.018490 
597.000000	0.019020 
596.000000	0.019640 
595.000000	0.020210 
594.000000	0.020930 
593.000000	0.021790 
592.000000	0.022530 
591.000000	0.023400 
590.000000	0.024270 
589.000000	0.025130 
588.000000	0.026060 
587.000000	0.027060 
586.000000	0.028130 
585.000000	0.029390 
584.000000	0.030590 
583.000000	0.031870 
582.000000	0.033090 
581.000000	0.034410 
580.000000	0.035870 
579.000000	0.037300 
578.000000	0.038890 
577.000000	0.040430 
576.000000	0.042210 
575.000000	0.043930 
574.000000	0.045930 
573.000000	0.047870 
572.000000	0.050020 
571.000000	0.052020 
570.000000	0.054130 
569.000000	0.056450 
568.000000	0.058760 
567.000000	0.061290 
566.000000	0.063950 
565.000000	0.066870 
564.000000	0.069680 
563.000000	0.072640 
562.000000	0.075790 
561.000000	0.078990 
560.000000	0.082100 
559.000000	0.085350 
558.000000	0.089310 
557.000000	0.093110 
556.000000	0.096970 
555.000000	0.100780 
554.000000	0.104710 
553.000000	0.108660 
552.000000	0.112590 
551.000000	0.116880 
550.000000	0.121080 
549.000000	0.125330 
548.000000	0.129890 
547.000000	0.134210 
546.000000	0.138750 
545.000000	0.143420 
544.000000	0.148310 
543.000000	0.153280 
542.000000	0.157970 
541.000000	0.162940 
540.000000	0.167840 
539.000000	0.172880 
538.000000	0.177940 
537.000000	0.183230 
536.000000	0.188620 
535.000000	0.193940 
534.000000	0.199500 
533.000000	0.205130 
532.000000	0.210180 
531.000000	0.215620 
530.000000	0.220840 
529.000000	0.226420 
528.000000	0.231670 
527.000000	0.237090 
526.000000	0.242730 
525.000000	0.248000 
524.000000	0.253340 
523.000000	0.258300 
522.000000	0.263300 
521.000000	0.268040 
520.000000	0.273130 
519.000000	0.277790 
518.000000	0.282410 
517.000000	0.286980 
516.000000	0.291470 
515.000000	0.295840 
514.000000	0.300050 
513.000000	0.304150 
512.000000	0.308140 
511.000000	0.311890 
510.000000	0.315710 
509.000000	0.318960 
508.000000	0.322490 
507.000000	0.325790 
506.000000	0.328920 
505.000000	0.331860 
504.000000	0.334400 
503.000000	0.336870 
502.000000	0.339350 
501.000000	0.341220 
500.000000	0.343320 
499.000000	0.344910 
498.000000	0.346470 
497.000000	0.347860 
496.000000	0.348960 
495.000000	0.349780 
494.000000	0.350310 
493.000000	0.350820 
492.000000	0.350850 
491.000000	0.350620 
490.000000	0.350380 
489.000000	0.350210 
488.000000	0.349330 
487.000000	0.348550 
486.000000	0.347410 
485.000000	0.346060 
484.000000	0.344720 
483.000000	0.342770 
482.000000	0.340910 
481.000000	0.338870 
480.000000	0.336770 
479.000000	0.334330 
478.000000	0.331590 
477.000000	0.328680 
476.000000	0.325700 
475.000000	0.322790 
474.000000	0.319200 
473.000000	0.315910 
472.000000	0.312160 
471.000000	0.308410 
470.000000	0.304930 
469.000000	0.300450 
468.000000	0.296480 
467.000000	0.292270 
466.000000	0.287680 
465.000000	0.283500 
464.000000	0.278930 
463.000000	0.274630 
462.000000	0.270190 
461.000000	0.265870 
460.000000	0.261110 
459.000000	0.256490 
458.000000	0.251840 
457.000000	0.247190 
456.000000	0.242730 
455.000000	0.238030 
454.000000	0.233720 
453.000000	0.229090 
452.000000	0.224560 
451.000000	0.220010 
450.000000	0.215620 
449.000000	0.211120 
448.000000	0.206900 
447.000000	0.202930 
446.000000	0.199100 
445.000000	0.195260 
444.000000	0.191360 
443.000000	0.187920 
442.000000	0.184560 
441.000000	0.181220 
440.000000	0.178250 
439.000000	0.175140 
438.000000	0.172630 
437.000000	0.170160 
436.000000	0.168450 
435.000000	0.166820 
434.000000	0.165180 
433.000000	0.164180 
432.000000	0.163290 
431.000000	0.162830 
430.000000	0.163020 
429.000000	0.163410 
428.000000	0.163900 
427.000000	0.164910 
426.000000	0.166620 
425.000000	0.168730 
424.000000	0.171380 
423.000000	0.174660 
422.000000	0.178230 
421.000000	0.182670 
420.000000	0.187430 
419.000000	0.192850 
418.000000	0.198850 
417.000000	0.205650 
416.000000	0.212780 
415.000000	0.220760 
414.000000	0.229500 
413.000000	0.239170 
412.000000	0.249620 
411.000000	0.260700 
410.000000	0.272840 
409.000000	0.285730 
408.000000	0.299350 
407.000000	0.313420 
406.000000	0.328230 
405.000000	0.343480 
404.000000	0.359480 
403.000000	0.376210 
402.000000	0.393620 
401.000000	0.412030 
400.000000	0.430910 

