PE UV                   SPECTRUM    ASCII       PEDS        1.60        
  -1
23MS122.SP
24/09/05
16:11:11.00
24/09/05
16:12:18.00


400.000000
1









4444

SCAN
1
1


0.0
480.0
2.00
MANUAL



UV/VIS




































#HDR
-1
-1
#GR
NM
A
0.00000011920928955078
0.0
700.000000
1.000000
301
8
0.405430
0.014960
#DATA
700.000000	0.014960 
699.000000	0.015050 
698.000000	0.015060 
697.000000	0.015180 
696.000000	0.015190 
695.000000	0.015120 
694.000000	0.015150 
693.000000	0.015130 
692.000000	0.015140 
691.000000	0.015240 
690.000000	0.015240 
689.000000	0.015210 
688.000000	0.015270 
687.000000	0.015290 
686.000000	0.015460 
685.000000	0.015450 
684.000000	0.015550 
683.000000	0.015390 
682.000000	0.015440 
681.000000	0.015380 
680.000000	0.015470 
679.000000	0.015370 
678.000000	0.015440 
677.000000	0.015500 
676.000000	0.015540 
675.000000	0.015540 
674.000000	0.015580 
673.000000	0.015660 
672.000000	0.015670 
671.000000	0.015680 
670.000000	0.015760 
669.000000	0.015820 
668.000000	0.015830 
667.000000	0.015910 
666.000000	0.015850 
665.000000	0.015880 
664.000000	0.016030 
663.000000	0.016050 
662.000000	0.016020 
661.000000	0.016040 
660.000000	0.016130 
659.000000	0.016150 
658.000000	0.016200 
657.000000	0.016240 
656.000000	0.016300 
655.000000	0.016370 
654.000000	0.016360 
653.000000	0.016520 
652.000000	0.016590 
651.000000	0.016590 
650.000000	0.016620 
649.000000	0.016590 
648.000000	0.016730 
647.000000	0.016770 
646.000000	0.016800 
645.000000	0.016950 
644.000000	0.016910 
643.000000	0.017070 
642.000000	0.017130 
641.000000	0.017170 
640.000000	0.017210 
639.000000	0.017300 
638.000000	0.017410 
637.000000	0.017420 
636.000000	0.017550 
635.000000	0.017530 
634.000000	0.017740 
633.000000	0.017850 
632.000000	0.017880 
631.000000	0.017970 
630.000000	0.018080 
629.000000	0.018200 
628.000000	0.018370 
627.000000	0.018480 
626.000000	0.018550 
625.000000	0.018630 
624.000000	0.018790 
623.000000	0.019060 
622.000000	0.019090 
621.000000	0.019240 
620.000000	0.019420 
619.000000	0.019490 
618.000000	0.019660 
617.000000	0.019830 
616.000000	0.020000 
615.000000	0.020250 
614.000000	0.020390 
613.000000	0.020600 
612.000000	0.020790 
611.000000	0.021080 
610.000000	0.021260 
609.000000	0.021520 
608.000000	0.021850 
607.000000	0.022250 
606.000000	0.022480 
605.000000	0.022870 
604.000000	0.023200 
603.000000	0.023600 
602.000000	0.023910 
601.000000	0.024400 
600.000000	0.024700 
599.000000	0.025190 
598.000000	0.025630 
597.000000	0.026200 
596.000000	0.026730 
595.000000	0.027200 
594.000000	0.027850 
593.000000	0.028470 
592.000000	0.029090 
591.000000	0.029750 
590.000000	0.030440 
589.000000	0.031190 
588.000000	0.032070 
587.000000	0.032930 
586.000000	0.033890 
585.000000	0.034810 
584.000000	0.035850 
583.000000	0.036890 
582.000000	0.037940 
581.000000	0.038960 
580.000000	0.040200 
579.000000	0.041420 
578.000000	0.042760 
577.000000	0.044080 
576.000000	0.045660 
575.000000	0.047100 
574.000000	0.048620 
573.000000	0.050220 
572.000000	0.051930 
571.000000	0.053580 
570.000000	0.055450 
569.000000	0.057460 
568.000000	0.059440 
567.000000	0.061580 
566.000000	0.063790 
565.000000	0.066170 
564.000000	0.068490 
563.000000	0.070860 
562.000000	0.073289 
561.000000	0.076070 
560.000000	0.078750 
559.000000	0.081629 
558.000000	0.085630 
557.000000	0.088840 
556.000000	0.092110 
555.000000	0.095190 
554.000000	0.098550 
553.000000	0.101690 
552.000000	0.105080 
551.000000	0.108600 
550.000000	0.112220 
549.000000	0.115910 
548.000000	0.119800 
547.000000	0.123590 
546.000000	0.127450 
545.000000	0.131290 
544.000000	0.135240 
543.000000	0.139290 
542.000000	0.143250 
541.000000	0.147550 
540.000000	0.151870 
539.000000	0.156250 
538.000000	0.160780 
537.000000	0.165210 
536.000000	0.169600 
535.000000	0.173890 
534.000000	0.178380 
533.000000	0.182890 
532.000000	0.187460 
531.000000	0.192400 
530.000000	0.197130 
529.000000	0.201990 
528.000000	0.206560 
527.000000	0.211200 
526.000000	0.215760 
525.000000	0.220130 
524.000000	0.224380 
523.000000	0.228730 
522.000000	0.233050 
521.000000	0.237280 
520.000000	0.241790 
519.000000	0.245680 
518.000000	0.249750 
517.000000	0.253620 
516.000000	0.257220 
515.000000	0.260800 
514.000000	0.264430 
513.000000	0.268000 
512.000000	0.271430 
511.000000	0.274860 
510.000000	0.278150 
509.000000	0.281200 
508.000000	0.284050 
507.000000	0.286780 
506.000000	0.289330 
505.000000	0.291830 
504.000000	0.293900 
503.000000	0.296190 
502.000000	0.298220 
501.000000	0.300120 
500.000000	0.301750 
499.000000	0.303200 
498.000000	0.304480 
497.000000	0.305580 
496.000000	0.306700 
495.000000	0.307450 
494.000000	0.307950 
493.000000	0.308490 
492.000000	0.308430 
491.000000	0.308420 
490.000000	0.308110 
489.000000	0.307690 
488.000000	0.307010 
487.000000	0.306390 
486.000000	0.305510 
485.000000	0.304490 
484.000000	0.302970 
483.000000	0.301560 
482.000000	0.299910 
481.000000	0.298170 
480.000000	0.296240 
479.000000	0.294250 
478.000000	0.292020 
477.000000	0.289650 
476.000000	0.287170 
475.000000	0.284730 
474.000000	0.281690 
473.000000	0.278700 
472.000000	0.275490 
471.000000	0.272240 
470.000000	0.269090 
469.000000	0.265470 
468.000000	0.262300 
467.000000	0.258710 
466.000000	0.254930 
465.000000	0.251290 
464.000000	0.247350 
463.000000	0.243560 
462.000000	0.239730 
461.000000	0.235980 
460.000000	0.232110 
459.000000	0.228280 
458.000000	0.224410 
457.000000	0.220780 
456.000000	0.217020 
455.000000	0.213010 
454.000000	0.209290 
453.000000	0.205450 
452.000000	0.201410 
451.000000	0.197400 
450.000000	0.194130 
449.000000	0.190740 
448.000000	0.187140 
447.000000	0.183790 
446.000000	0.180710 
445.000000	0.177310 
444.000000	0.173980 
443.000000	0.171360 
442.000000	0.168530 
441.000000	0.166090 
440.000000	0.163520 
439.000000	0.161440 
438.000000	0.159510 
437.000000	0.157880 
436.000000	0.156320 
435.000000	0.155160 
434.000000	0.154160 
433.000000	0.153550 
432.000000	0.153230 
431.000000	0.153230 
430.000000	0.153440 
429.000000	0.154110 
428.000000	0.155260 
427.000000	0.156220 
426.000000	0.158430 
425.000000	0.161010 
424.000000	0.163570 
423.000000	0.166660 
422.000000	0.170390 
421.000000	0.174780 
420.000000	0.179380 
419.000000	0.184500 
418.000000	0.190170 
417.000000	0.196790 
416.000000	0.203830 
415.000000	0.211490 
414.000000	0.220050 
413.000000	0.229000 
412.000000	0.238680 
411.000000	0.248740 
410.000000	0.259630 
409.000000	0.271400 
408.000000	0.284330 
407.000000	0.297560 
406.000000	0.311710 
405.000000	0.325940 
404.000000	0.340820 
403.000000	0.356390 
402.000000	0.372230 
401.000000	0.388500 
400.000000	0.405430 

