PE UV                   SPECTRUM    ASCII       PEDS        1.60        
  -1
23MS079.SP
24/09/05
16:32:58.00
24/09/05
16:34:02.00


400.000000
1









4444

SCAN
1
1


0.0
480.0
2.00
MANUAL



UV/VIS




































#HDR
-1
-1
#GR
NM
A
0.00000011920928955078
0.0
700.000000
1.000000
301
8
0.243910
0.011910
#DATA
700.000000	0.012070 
699.000000	0.011910 
698.000000	0.011970 
697.000000	0.011970 
696.000000	0.011910 
695.000000	0.012000 
694.000000	0.011980 
693.000000	0.012010 
692.000000	0.012050 
691.000000	0.012070 
690.000000	0.012070 
689.000000	0.012080 
688.000000	0.012150 
687.000000	0.012170 
686.000000	0.012190 
685.000000	0.012260 
684.000000	0.012300 
683.000000	0.012170 
682.000000	0.012060 
681.000000	0.012110 
680.000000	0.012150 
679.000000	0.012110 
678.000000	0.012150 
677.000000	0.012210 
676.000000	0.012250 
675.000000	0.012170 
674.000000	0.012270 
673.000000	0.012360 
672.000000	0.012390 
671.000000	0.012390 
670.000000	0.012420 
669.000000	0.012510 
668.000000	0.012490 
667.000000	0.012620 
666.000000	0.012530 
665.000000	0.012610 
664.000000	0.012750 
663.000000	0.012720 
662.000000	0.012700 
661.000000	0.012740 
660.000000	0.012830 
659.000000	0.012800 
658.000000	0.012960 
657.000000	0.013020 
656.000000	0.013090 
655.000000	0.013040 
654.000000	0.013000 
653.000000	0.013160 
652.000000	0.013210 
651.000000	0.013190 
650.000000	0.013250 
649.000000	0.013250 
648.000000	0.013320 
647.000000	0.013420 
646.000000	0.013390 
645.000000	0.013550 
644.000000	0.013470 
643.000000	0.013650 
642.000000	0.013550 
641.000000	0.013700 
640.000000	0.013690 
639.000000	0.013720 
638.000000	0.013880 
637.000000	0.013860 
636.000000	0.013980 
635.000000	0.013930 
634.000000	0.014070 
633.000000	0.014200 
632.000000	0.014270 
631.000000	0.014280 
630.000000	0.014370 
629.000000	0.014380 
628.000000	0.014490 
627.000000	0.014560 
626.000000	0.014650 
625.000000	0.014780 
624.000000	0.014850 
623.000000	0.014960 
622.000000	0.014990 
621.000000	0.015140 
620.000000	0.015220 
619.000000	0.015460 
618.000000	0.015550 
617.000000	0.015620 
616.000000	0.015740 
615.000000	0.015970 
614.000000	0.016060 
613.000000	0.016210 
612.000000	0.016270 
611.000000	0.016490 
610.000000	0.016680 
609.000000	0.016880 
608.000000	0.017120 
607.000000	0.017290 
606.000000	0.017540 
605.000000	0.017730 
604.000000	0.017990 
603.000000	0.018310 
602.000000	0.018580 
601.000000	0.018870 
600.000000	0.019190 
599.000000	0.019490 
598.000000	0.019850 
597.000000	0.020160 
596.000000	0.020460 
595.000000	0.020790 
594.000000	0.021290 
593.000000	0.021660 
592.000000	0.022050 
591.000000	0.022620 
590.000000	0.023080 
589.000000	0.023540 
588.000000	0.024090 
587.000000	0.024640 
586.000000	0.025280 
585.000000	0.025820 
584.000000	0.026570 
583.000000	0.027140 
582.000000	0.027900 
581.000000	0.028590 
580.000000	0.029460 
579.000000	0.030170 
578.000000	0.030980 
577.000000	0.031770 
576.000000	0.032800 
575.000000	0.033600 
574.000000	0.034580 
573.000000	0.035580 
572.000000	0.036660 
571.000000	0.037760 
570.000000	0.038850 
569.000000	0.040090 
568.000000	0.041250 
567.000000	0.042480 
566.000000	0.043930 
565.000000	0.045280 
564.000000	0.046630 
563.000000	0.047990 
562.000000	0.049620 
561.000000	0.051280 
560.000000	0.052780 
559.000000	0.054470 
558.000000	0.057080 
557.000000	0.058950 
556.000000	0.060830 
555.000000	0.062750 
554.000000	0.064670 
553.000000	0.066450 
552.000000	0.068510 
551.000000	0.070590 
550.000000	0.072710 
549.000000	0.074780 
548.000000	0.076920 
547.000000	0.079180 
546.000000	0.081350 
545.000000	0.083520 
544.000000	0.085830 
543.000000	0.088179 
542.000000	0.090550 
541.000000	0.092910 
540.000000	0.095380 
539.000000	0.097890 
538.000000	0.100400 
537.000000	0.102910 
536.000000	0.105340 
535.000000	0.107730 
534.000000	0.110380 
533.000000	0.113090 
532.000000	0.115570 
531.000000	0.118390 
530.000000	0.120990 
529.000000	0.123690 
528.000000	0.126090 
527.000000	0.128660 
526.000000	0.131260 
525.000000	0.133790 
524.000000	0.136340 
523.000000	0.138740 
522.000000	0.141130 
521.000000	0.143570 
520.000000	0.146080 
519.000000	0.148200 
518.000000	0.150640 
517.000000	0.152690 
516.000000	0.154740 
515.000000	0.156690 
514.000000	0.158850 
513.000000	0.160890 
512.000000	0.162850 
511.000000	0.164720 
510.000000	0.166530 
509.000000	0.168110 
508.000000	0.169680 
507.000000	0.171070 
506.000000	0.172700 
505.000000	0.174130 
504.000000	0.175240 
503.000000	0.176480 
502.000000	0.177640 
501.000000	0.178600 
500.000000	0.179510 
499.000000	0.180270 
498.000000	0.181090 
497.000000	0.181540 
496.000000	0.182170 
495.000000	0.182520 
494.000000	0.182820 
493.000000	0.182990 
492.000000	0.182970 
491.000000	0.182770 
490.000000	0.182850 
489.000000	0.182530 
488.000000	0.182150 
487.000000	0.181750 
486.000000	0.181120 
485.000000	0.180390 
484.000000	0.179550 
483.000000	0.178780 
482.000000	0.177720 
481.000000	0.176760 
480.000000	0.175850 
479.000000	0.174730 
478.000000	0.173360 
477.000000	0.171990 
476.000000	0.170630 
475.000000	0.169260 
474.000000	0.167310 
473.000000	0.165550 
472.000000	0.163710 
471.000000	0.162050 
470.000000	0.160340 
469.000000	0.158360 
468.000000	0.156530 
467.000000	0.154500 
466.000000	0.152470 
465.000000	0.150180 
464.000000	0.147970 
463.000000	0.145820 
462.000000	0.143800 
461.000000	0.141720 
460.000000	0.139520 
459.000000	0.137460 
458.000000	0.135310 
457.000000	0.133180 
456.000000	0.130880 
455.000000	0.128570 
454.000000	0.126360 
453.000000	0.124230 
452.000000	0.122260 
451.000000	0.119940 
450.000000	0.118300 
449.000000	0.116050 
448.000000	0.114190 
447.000000	0.112160 
446.000000	0.110360 
445.000000	0.108580 
444.000000	0.106710 
443.000000	0.105140 
442.000000	0.103760 
441.000000	0.102230 
440.000000	0.100970 
439.000000	0.099680 
438.000000	0.098730 
437.000000	0.097489 
436.000000	0.096800 
435.000000	0.096190 
434.000000	0.095680 
433.000000	0.095269 
432.000000	0.095140 
431.000000	0.095260 
430.000000	0.095460 
429.000000	0.095890 
428.000000	0.096519 
427.000000	0.097210 
426.000000	0.098410 
425.000000	0.099870 
424.000000	0.101650 
423.000000	0.103190 
422.000000	0.105500 
421.000000	0.108470 
420.000000	0.111110 
419.000000	0.114220 
418.000000	0.117570 
417.000000	0.121400 
416.000000	0.125480 
415.000000	0.130060 
414.000000	0.134950 
413.000000	0.140050 
412.000000	0.145770 
411.000000	0.151860 
410.000000	0.158320 
409.000000	0.165490 
408.000000	0.173030 
407.000000	0.180880 
406.000000	0.189090 
405.000000	0.197440 
404.000000	0.205870 
403.000000	0.214890 
402.000000	0.224220 
401.000000	0.233810 
400.000000	0.243910 

