PE UV                   SPECTRUM    ASCII       PEDS        1.60        
  -1
23MS148.SP
24/08/30
17:18:15.00
24/08/30
17:19:22.00


400.000000
1









4444

SCAN
1
1


0.0
480.0
2.00
MANUAL



UV/VIS




































#HDR
-1
-1
#GR
NM
A
0.00000011920928955078
0.0
700.000000
1.000000
301
8
0.098500
0.006220
#DATA
700.000000	0.006220 
699.000000	0.006230 
698.000000	0.006310 
697.000000	0.006340 
696.000000	0.006310 
695.000000	0.006320 
694.000000	0.006330 
693.000000	0.006310 
692.000000	0.006370 
691.000000	0.006470 
690.000000	0.006500 
689.000000	0.006400 
688.000000	0.006490 
687.000000	0.006550 
686.000000	0.006550 
685.000000	0.006450 
684.000000	0.006530 
683.000000	0.006440 
682.000000	0.006490 
681.000000	0.006450 
680.000000	0.006420 
679.000000	0.006310 
678.000000	0.006370 
677.000000	0.006440 
676.000000	0.006460 
675.000000	0.006410 
674.000000	0.006500 
673.000000	0.006360 
672.000000	0.006360 
671.000000	0.006410 
670.000000	0.006450 
669.000000	0.006470 
668.000000	0.006450 
667.000000	0.006550 
666.000000	0.006490 
665.000000	0.006540 
664.000000	0.006460 
663.000000	0.006500 
662.000000	0.006420 
661.000000	0.006480 
660.000000	0.006500 
659.000000	0.006470 
658.000000	0.006560 
657.000000	0.006590 
656.000000	0.006520 
655.000000	0.006570 
654.000000	0.006520 
653.000000	0.006560 
652.000000	0.006530 
651.000000	0.006590 
650.000000	0.006580 
649.000000	0.006560 
648.000000	0.006550 
647.000000	0.006640 
646.000000	0.006530 
645.000000	0.006540 
644.000000	0.006540 
643.000000	0.006550 
642.000000	0.006620 
641.000000	0.006560 
640.000000	0.006640 
639.000000	0.006590 
638.000000	0.006610 
637.000000	0.006570 
636.000000	0.006630 
635.000000	0.006600 
634.000000	0.006590 
633.000000	0.006720 
632.000000	0.006710 
631.000000	0.006830 
630.000000	0.006700 
629.000000	0.006710 
628.000000	0.006770 
627.000000	0.006790 
626.000000	0.006860 
625.000000	0.006820 
624.000000	0.006830 
623.000000	0.007020 
622.000000	0.006990 
621.000000	0.006920 
620.000000	0.006970 
619.000000	0.007000 
618.000000	0.007080 
617.000000	0.007050 
616.000000	0.007090 
615.000000	0.007150 
614.000000	0.007300 
613.000000	0.007330 
612.000000	0.007410 
611.000000	0.007500 
610.000000	0.007500 
609.000000	0.007600 
608.000000	0.007590 
607.000000	0.007700 
606.000000	0.007740 
605.000000	0.007939 
604.000000	0.007990 
603.000000	0.008080 
602.000000	0.008170 
601.000000	0.008310 
600.000000	0.008410 
599.000000	0.008470 
598.000000	0.008670 
597.000000	0.008760 
596.000000	0.008860 
595.000000	0.009020 
594.000000	0.009180 
593.000000	0.009320 
592.000000	0.009530 
591.000000	0.009639 
590.000000	0.009920 
589.000000	0.009939 
588.000000	0.010220 
587.000000	0.010430 
586.000000	0.010610 
585.000000	0.010950 
584.000000	0.011280 
583.000000	0.011440 
582.000000	0.011670 
581.000000	0.011970 
580.000000	0.012180 
579.000000	0.012480 
578.000000	0.012810 
577.000000	0.013200 
576.000000	0.013490 
575.000000	0.013870 
574.000000	0.014270 
573.000000	0.014630 
572.000000	0.015060 
571.000000	0.015490 
570.000000	0.015840 
569.000000	0.016320 
568.000000	0.016820 
567.000000	0.017270 
566.000000	0.017810 
565.000000	0.018390 
564.000000	0.018920 
563.000000	0.019500 
562.000000	0.020030 
561.000000	0.020640 
560.000000	0.021220 
559.000000	0.021920 
558.000000	0.022690 
557.000000	0.023400 
556.000000	0.024020 
555.000000	0.024830 
554.000000	0.025580 
553.000000	0.026450 
552.000000	0.027130 
551.000000	0.027930 
550.000000	0.028630 
549.000000	0.029560 
548.000000	0.030540 
547.000000	0.031360 
546.000000	0.032170 
545.000000	0.033120 
544.000000	0.034110 
543.000000	0.035110 
542.000000	0.036010 
541.000000	0.036880 
540.000000	0.037840 
539.000000	0.039020 
538.000000	0.039980 
537.000000	0.041030 
536.000000	0.042020 
535.000000	0.043060 
534.000000	0.044030 
533.000000	0.045180 
532.000000	0.046180 
531.000000	0.047300 
530.000000	0.048450 
529.000000	0.049500 
528.000000	0.050600 
527.000000	0.051710 
526.000000	0.052760 
525.000000	0.053910 
524.000000	0.054800 
523.000000	0.055820 
522.000000	0.056920 
521.000000	0.057870 
520.000000	0.058800 
519.000000	0.059820 
518.000000	0.060750 
517.000000	0.061640 
516.000000	0.062620 
515.000000	0.063490 
514.000000	0.064370 
513.000000	0.065100 
512.000000	0.065940 
511.000000	0.066629 
510.000000	0.067550 
509.000000	0.068140 
508.000000	0.068920 
507.000000	0.069550 
506.000000	0.070069 
505.000000	0.070690 
504.000000	0.071380 
503.000000	0.071880 
502.000000	0.072220 
501.000000	0.072740 
500.000000	0.073090 
499.000000	0.073580 
498.000000	0.073789 
497.000000	0.074030 
496.000000	0.074350 
495.000000	0.074570 
494.000000	0.074579 
493.000000	0.074800 
492.000000	0.074870 
491.000000	0.074890 
490.000000	0.074840 
489.000000	0.074850 
488.000000	0.074469 
487.000000	0.074469 
486.000000	0.074200 
485.000000	0.073910 
484.000000	0.073719 
483.000000	0.073260 
482.000000	0.072840 
481.000000	0.072500 
480.000000	0.071990 
479.000000	0.071640 
478.000000	0.070970 
477.000000	0.070510 
476.000000	0.070120 
475.000000	0.069480 
474.000000	0.068660 
473.000000	0.068029 
472.000000	0.067290 
471.000000	0.066379 
470.000000	0.065800 
469.000000	0.064900 
468.000000	0.063990 
467.000000	0.063190 
466.000000	0.062450 
465.000000	0.061490 
464.000000	0.060700 
463.000000	0.059820 
462.000000	0.058860 
461.000000	0.058010 
460.000000	0.057200 
459.000000	0.056180 
458.000000	0.055430 
457.000000	0.054580 
456.000000	0.053610 
455.000000	0.053010 
454.000000	0.052190 
453.000000	0.051200 
452.000000	0.050360 
451.000000	0.049540 
450.000000	0.048610 
449.000000	0.047880 
448.000000	0.047100 
447.000000	0.046000 
446.000000	0.045290 
445.000000	0.044560 
444.000000	0.043800 
443.000000	0.042990 
442.000000	0.042270 
441.000000	0.042050 
440.000000	0.041330 
439.000000	0.040810 
438.000000	0.040460 
437.000000	0.039850 
436.000000	0.039640 
435.000000	0.039320 
434.000000	0.039090 
433.000000	0.038810 
432.000000	0.038820 
431.000000	0.038860 
430.000000	0.039060 
429.000000	0.039040 
428.000000	0.039210 
427.000000	0.040040 
426.000000	0.040370 
425.000000	0.040640 
424.000000	0.041340 
423.000000	0.041830 
422.000000	0.042870 
421.000000	0.043480 
420.000000	0.044530 
419.000000	0.045780 
418.000000	0.047060 
417.000000	0.048510 
416.000000	0.050290 
415.000000	0.052050 
414.000000	0.054060 
413.000000	0.056260 
412.000000	0.058610 
411.000000	0.061000 
410.000000	0.063740 
409.000000	0.066510 
408.000000	0.069550 
407.000000	0.072650 
406.000000	0.075930 
405.000000	0.079440 
404.000000	0.083040 
403.000000	0.086630 
402.000000	0.090440 
401.000000	0.094470 
400.000000	0.098500 

