PE UV                   SPECTRUM    ASCII       PEDS        1.60        
  -1
23MS002.SP
24/10/28
15:21:02.00
24/10/28
15:22:10.00


300.000000
1









4444

SCAN
1
1


0.0
480.0
2.00
MANUAL



UV/VIS




































#HDR
-1
-1
#GR
NM
A
0.00000011920928955078
0.0
600.000000
1.000000
301
8
0.349800
0.064810
#DATA
600.000000	0.064810 
599.000000	0.064890 
598.000000	0.064900 
597.000000	0.064990 
596.000000	0.065080 
595.000000	0.065190 
594.000000	0.065220 
593.000000	0.065320 
592.000000	0.065420 
591.000000	0.065480 
590.000000	0.065610 
589.000000	0.065629 
588.000000	0.065750 
587.000000	0.065780 
586.000000	0.065930 
585.000000	0.065970 
584.000000	0.066140 
583.000000	0.066290 
582.000000	0.066230 
581.000000	0.066390 
580.000000	0.066360 
579.000000	0.066450 
578.000000	0.066530 
577.000000	0.066650 
576.000000	0.066730 
575.000000	0.066700 
574.000000	0.066840 
573.000000	0.066890 
572.000000	0.066919 
571.000000	0.066930 
570.000000	0.067020 
569.000000	0.067020 
568.000000	0.067080 
567.000000	0.067230 
566.000000	0.067280 
565.000000	0.067250 
564.000000	0.067370 
563.000000	0.067480 
562.000000	0.067660 
561.000000	0.067610 
560.000000	0.067570 
559.000000	0.067800 
558.000000	0.067730 
557.000000	0.067750 
556.000000	0.067800 
555.000000	0.067830 
554.000000	0.068020 
553.000000	0.068060 
552.000000	0.068130 
551.000000	0.068169 
550.000000	0.068250 
549.000000	0.068390 
548.000000	0.068500 
547.000000	0.068599 
546.000000	0.068660 
545.000000	0.068849 
544.000000	0.069000 
543.000000	0.069090 
542.000000	0.069200 
541.000000	0.069410 
540.000000	0.069470 
539.000000	0.069580 
538.000000	0.069720 
537.000000	0.069819 
536.000000	0.069950 
535.000000	0.070200 
534.000000	0.070230 
533.000000	0.070450 
532.000000	0.070630 
531.000000	0.070850 
530.000000	0.070999 
529.000000	0.071139 
528.000000	0.071319 
527.000000	0.071560 
526.000000	0.071720 
525.000000	0.071900 
524.000000	0.072060 
523.000000	0.072359 
522.000000	0.072560 
521.000000	0.072750 
520.000000	0.072969 
519.000000	0.073190 
518.000000	0.073520 
517.000000	0.073730 
516.000000	0.074000 
515.000000	0.074250 
514.000000	0.074579 
513.000000	0.074910 
512.000000	0.075220 
511.000000	0.075560 
510.000000	0.075810 
509.000000	0.076310 
508.000000	0.076590 
507.000000	0.076990 
506.000000	0.077450 
505.000000	0.077880 
504.000000	0.078270 
503.000000	0.078790 
502.000000	0.079229 
501.000000	0.079810 
500.000000	0.080440 
499.000000	0.081030 
498.000000	0.081720 
497.000000	0.082430 
496.000000	0.083130 
495.000000	0.083760 
494.000000	0.084390 
493.000000	0.085279 
492.000000	0.086069 
491.000000	0.086880 
490.000000	0.087990 
489.000000	0.088719 
488.000000	0.089680 
487.000000	0.090730 
486.000000	0.091689 
485.000000	0.092710 
484.000000	0.093750 
483.000000	0.094979 
482.000000	0.096210 
481.000000	0.097550 
480.000000	0.098849 
479.000000	0.100310 
478.000000	0.101640 
477.000000	0.103130 
476.000000	0.104650 
475.000000	0.106180 
474.000000	0.107580 
473.000000	0.109280 
472.000000	0.110960 
471.000000	0.112510 
470.000000	0.114190 
469.000000	0.115900 
468.000000	0.117650 
467.000000	0.119240 
466.000000	0.120810 
465.000000	0.122470 
464.000000	0.124110 
463.000000	0.125650 
462.000000	0.127310 
461.000000	0.128700 
460.000000	0.130310 
459.000000	0.131880 
458.000000	0.133350 
457.000000	0.134590 
456.000000	0.136020 
455.000000	0.137270 
454.000000	0.138520 
453.000000	0.139760 
452.000000	0.140950 
451.000000	0.142220 
450.000000	0.143370 
449.000000	0.144410 
448.000000	0.145360 
447.000000	0.146500 
446.000000	0.147460 
445.000000	0.148340 
444.000000	0.149360 
443.000000	0.150240 
442.000000	0.151140 
441.000000	0.151930 
440.000000	0.152750 
439.000000	0.153600 
438.000000	0.154350 
437.000000	0.155320 
436.000000	0.156090 
435.000000	0.156810 
434.000000	0.157800 
433.000000	0.158480 
432.000000	0.159340 
431.000000	0.160110 
430.000000	0.160760 
429.000000	0.161610 
428.000000	0.162390 
427.000000	0.163110 
426.000000	0.163820 
425.000000	0.164590 
424.000000	0.165510 
423.000000	0.166170 
422.000000	0.167150 
421.000000	0.168060 
420.000000	0.168750 
419.000000	0.169580 
418.000000	0.170410 
417.000000	0.171280 
416.000000	0.172140 
415.000000	0.173000 
414.000000	0.173950 
413.000000	0.174810 
412.000000	0.175740 
411.000000	0.176580 
410.000000	0.177460 
409.000000	0.178420 
408.000000	0.179480 
407.000000	0.180370 
406.000000	0.181360 
405.000000	0.182200 
404.000000	0.183100 
403.000000	0.184020 
402.000000	0.184800 
401.000000	0.185860 
400.000000	0.186860 
399.000000	0.187760 
398.000000	0.188680 
397.000000	0.189640 
396.000000	0.190590 
395.000000	0.191590 
394.000000	0.192630 
393.000000	0.193810 
392.000000	0.194830 
391.000000	0.195770 
390.000000	0.196700 
389.000000	0.197640 
388.000000	0.198610 
387.000000	0.199560 
386.000000	0.200550 
385.000000	0.201640 
384.000000	0.203680 
383.000000	0.208140 
382.000000	0.209300 
381.000000	0.210910 
380.000000	0.212130 
379.000000	0.213340 
378.000000	0.214640 
377.000000	0.215720 
376.000000	0.216930 
375.000000	0.218290 
374.000000	0.219530 
373.000000	0.221020 
372.000000	0.222390 
371.000000	0.223550 
370.000000	0.224870 
369.000000	0.226090 
368.000000	0.227250 
367.000000	0.228470 
366.000000	0.229720 
365.000000	0.231080 
364.000000	0.232440 
363.000000	0.233870 
362.000000	0.235090 
361.000000	0.236240 
360.000000	0.237660 
359.000000	0.238900 
358.000000	0.240360 
357.000000	0.241630 
356.000000	0.243130 
355.000000	0.244410 
354.000000	0.245920 
353.000000	0.247460 
352.000000	0.248950 
351.000000	0.250220 
350.000000	0.251650 
349.000000	0.253280 
348.000000	0.255070 
347.000000	0.256560 
346.000000	0.258200 
345.000000	0.259550 
344.000000	0.261430 
343.000000	0.262850 
342.000000	0.264310 
341.000000	0.266340 
340.000000	0.267730 
339.000000	0.269460 
338.000000	0.271130 
337.000000	0.272640 
336.000000	0.274300 
335.000000	0.275970 
334.000000	0.277880 
333.000000	0.280050 
332.000000	0.281920 
331.000000	0.283680 
330.000000	0.285640 
329.000000	0.287640 
328.000000	0.290120 
327.000000	0.279540 
326.000000	0.278200 
325.000000	0.280290 
324.000000	0.282900 
323.000000	0.285020 
322.000000	0.287160 
321.000000	0.289640 
320.000000	0.292030 
319.000000	0.294480 
318.000000	0.296900 
317.000000	0.299650 
316.000000	0.302390 
315.000000	0.304860 
314.000000	0.307570 
313.000000	0.310350 
312.000000	0.313230 
311.000000	0.315840 
310.000000	0.318430 
309.000000	0.321420 
308.000000	0.323970 
307.000000	0.327260 
306.000000	0.330500 
305.000000	0.333640 
304.000000	0.336730 
303.000000	0.339570 
302.000000	0.343030 
301.000000	0.346440 
300.000000	0.349800 

