PE UV                   SPECTRUM    ASCII       PEDS        1.60        
  -1
23MS031.SP
24/10/28
15:14:17.00
24/10/28
15:15:23.00


300.000000
1









4444

SCAN
1
1


0.0
480.0
2.00
MANUAL



UV/VIS




































#HDR
-1
-1
#GR
NM
A
0.00000011920928955078
0.0
600.000000
1.000000
301
8
0.321660
0.006990
#DATA
600.000000	0.006990 
599.000000	0.007000 
598.000000	0.007000 
597.000000	0.007010 
596.000000	0.007090 
595.000000	0.007030 
594.000000	0.007050 
593.000000	0.007050 
592.000000	0.007110 
591.000000	0.007130 
590.000000	0.007120 
589.000000	0.007120 
588.000000	0.007030 
587.000000	0.007060 
586.000000	0.007170 
585.000000	0.007160 
584.000000	0.007200 
583.000000	0.007210 
582.000000	0.007140 
581.000000	0.007220 
580.000000	0.007150 
579.000000	0.007260 
578.000000	0.007210 
577.000000	0.007300 
576.000000	0.007290 
575.000000	0.007180 
574.000000	0.007240 
573.000000	0.007260 
572.000000	0.007200 
571.000000	0.007190 
570.000000	0.007310 
569.000000	0.007260 
568.000000	0.007230 
567.000000	0.007370 
566.000000	0.007340 
565.000000	0.007470 
564.000000	0.007480 
563.000000	0.007450 
562.000000	0.007550 
561.000000	0.007540 
560.000000	0.007550 
559.000000	0.007650 
558.000000	0.007750 
557.000000	0.007849 
556.000000	0.007849 
555.000000	0.007880 
554.000000	0.008010 
553.000000	0.008050 
552.000000	0.008130 
551.000000	0.008120 
550.000000	0.008200 
549.000000	0.008260 
548.000000	0.008270 
547.000000	0.008350 
546.000000	0.008420 
545.000000	0.008569 
544.000000	0.008659 
543.000000	0.008750 
542.000000	0.008740 
541.000000	0.008920 
540.000000	0.009039 
539.000000	0.009169 
538.000000	0.009250 
537.000000	0.009339 
536.000000	0.009460 
535.000000	0.009660 
534.000000	0.009769 
533.000000	0.009950 
532.000000	0.010130 
531.000000	0.010260 
530.000000	0.010460 
529.000000	0.010640 
528.000000	0.010840 
527.000000	0.011130 
526.000000	0.011300 
525.000000	0.011480 
524.000000	0.011610 
523.000000	0.012030 
522.000000	0.012330 
521.000000	0.012510 
520.000000	0.012780 
519.000000	0.013160 
518.000000	0.013530 
517.000000	0.013800 
516.000000	0.014170 
515.000000	0.014460 
514.000000	0.014840 
513.000000	0.015230 
512.000000	0.015600 
511.000000	0.016090 
510.000000	0.016470 
509.000000	0.017050 
508.000000	0.017460 
507.000000	0.017990 
506.000000	0.018520 
505.000000	0.019070 
504.000000	0.019630 
503.000000	0.020230 
502.000000	0.020810 
501.000000	0.021510 
500.000000	0.022110 
499.000000	0.022830 
498.000000	0.023640 
497.000000	0.024400 
496.000000	0.025220 
495.000000	0.026040 
494.000000	0.026790 
493.000000	0.027730 
492.000000	0.028570 
491.000000	0.029460 
490.000000	0.030760 
489.000000	0.031710 
488.000000	0.032760 
487.000000	0.033900 
486.000000	0.034950 
485.000000	0.035980 
484.000000	0.037190 
483.000000	0.038450 
482.000000	0.039660 
481.000000	0.041030 
480.000000	0.042390 
479.000000	0.043820 
478.000000	0.045290 
477.000000	0.046800 
476.000000	0.048250 
475.000000	0.049860 
474.000000	0.051430 
473.000000	0.053190 
472.000000	0.054860 
471.000000	0.056600 
470.000000	0.058350 
469.000000	0.060200 
468.000000	0.062020 
467.000000	0.063850 
466.000000	0.065590 
465.000000	0.067419 
464.000000	0.069190 
463.000000	0.070980 
462.000000	0.072910 
461.000000	0.074600 
460.000000	0.076340 
459.000000	0.078020 
458.000000	0.079909 
457.000000	0.081350 
456.000000	0.083000 
455.000000	0.084540 
454.000000	0.086240 
453.000000	0.087859 
452.000000	0.089469 
451.000000	0.091030 
450.000000	0.092420 
449.000000	0.093860 
448.000000	0.095130 
447.000000	0.096530 
446.000000	0.097890 
445.000000	0.098989 
444.000000	0.100320 
443.000000	0.101490 
442.000000	0.102550 
441.000000	0.103590 
440.000000	0.104630 
439.000000	0.105680 
438.000000	0.106610 
437.000000	0.107750 
436.000000	0.108580 
435.000000	0.109550 
434.000000	0.110560 
433.000000	0.111520 
432.000000	0.112290 
431.000000	0.113170 
430.000000	0.114050 
429.000000	0.114870 
428.000000	0.115670 
427.000000	0.116490 
426.000000	0.117330 
425.000000	0.118150 
424.000000	0.119020 
423.000000	0.119840 
422.000000	0.120660 
421.000000	0.121390 
420.000000	0.122210 
419.000000	0.122940 
418.000000	0.123780 
417.000000	0.124840 
416.000000	0.125630 
415.000000	0.126570 
414.000000	0.127480 
413.000000	0.128330 
412.000000	0.129260 
411.000000	0.130170 
410.000000	0.131090 
409.000000	0.132070 
408.000000	0.133100 
407.000000	0.134000 
406.000000	0.135050 
405.000000	0.135990 
404.000000	0.136870 
403.000000	0.137830 
402.000000	0.138720 
401.000000	0.139720 
400.000000	0.140770 
399.000000	0.141650 
398.000000	0.142700 
397.000000	0.143770 
396.000000	0.144730 
395.000000	0.145840 
394.000000	0.146950 
393.000000	0.148020 
392.000000	0.149070 
391.000000	0.150030 
390.000000	0.151230 
389.000000	0.152440 
388.000000	0.153450 
387.000000	0.154520 
386.000000	0.155570 
385.000000	0.156760 
384.000000	0.159290 
383.000000	0.164830 
382.000000	0.166110 
381.000000	0.167710 
380.000000	0.169100 
379.000000	0.170190 
378.000000	0.171760 
377.000000	0.172760 
376.000000	0.173970 
375.000000	0.175420 
374.000000	0.176730 
373.000000	0.178190 
372.000000	0.179640 
371.000000	0.180940 
370.000000	0.182240 
369.000000	0.183450 
368.000000	0.184770 
367.000000	0.186070 
366.000000	0.187410 
365.000000	0.188810 
364.000000	0.190290 
363.000000	0.191660 
362.000000	0.193060 
361.000000	0.194360 
360.000000	0.195850 
359.000000	0.197160 
358.000000	0.198640 
357.000000	0.200100 
356.000000	0.201650 
355.000000	0.202910 
354.000000	0.204670 
353.000000	0.206160 
352.000000	0.207750 
351.000000	0.209210 
350.000000	0.210650 
349.000000	0.212420 
348.000000	0.214210 
347.000000	0.215640 
346.000000	0.217350 
345.000000	0.218860 
344.000000	0.220500 
343.000000	0.222100 
342.000000	0.223630 
341.000000	0.225540 
340.000000	0.227020 
339.000000	0.228820 
338.000000	0.230430 
337.000000	0.232070 
336.000000	0.233720 
335.000000	0.235580 
334.000000	0.237230 
333.000000	0.239310 
332.000000	0.241200 
331.000000	0.243050 
330.000000	0.244790 
329.000000	0.246810 
328.000000	0.248650 
327.000000	0.250420 
326.000000	0.252410 
325.000000	0.254440 
324.000000	0.256600 
323.000000	0.258920 
322.000000	0.261260 
321.000000	0.263230 
320.000000	0.265620 
319.000000	0.268010 
318.000000	0.270180 
317.000000	0.272920 
316.000000	0.275570 
315.000000	0.278030 
314.000000	0.280720 
313.000000	0.283010 
312.000000	0.285940 
311.000000	0.288660 
310.000000	0.291160 
309.000000	0.294050 
308.000000	0.296750 
307.000000	0.299770 
306.000000	0.302910 
305.000000	0.305890 
304.000000	0.309180 
303.000000	0.312000 
302.000000	0.315020 
301.000000	0.318530 
300.000000	0.321660 

