PE UV                   SPECTRUM    ASCII       PEDS        1.60        
  -1
23MS271.SP
24/10/25
15:31:31.00
24/10/25
15:33:43.00


300.000000
1









4444

SCAN
1
1


0.0
480.0
2.00
MANUAL



UV/VIS




































#HDR
-1
-1
#GR
NM
A
0.00000011920928955078
0.0
600.000000
1.000000
301
8
0.457070
0.023860
#DATA
600.000000	0.023860 
599.000000	0.023860 
598.000000	0.023930 
597.000000	0.023940 
596.000000	0.024090 
595.000000	0.024130 
594.000000	0.024210 
593.000000	0.024350 
592.000000	0.024350 
591.000000	0.024330 
590.000000	0.024440 
589.000000	0.024490 
588.000000	0.024510 
587.000000	0.024690 
586.000000	0.024700 
585.000000	0.024800 
584.000000	0.024800 
583.000000	0.024990 
582.000000	0.024920 
581.000000	0.024950 
580.000000	0.025150 
579.000000	0.025140 
578.000000	0.025330 
577.000000	0.025390 
576.000000	0.025450 
575.000000	0.025490 
574.000000	0.025560 
573.000000	0.025650 
572.000000	0.025700 
571.000000	0.025750 
570.000000	0.025820 
569.000000	0.025980 
568.000000	0.026060 
567.000000	0.026120 
566.000000	0.026200 
565.000000	0.026300 
564.000000	0.026370 
563.000000	0.026510 
562.000000	0.026630 
561.000000	0.026660 
560.000000	0.026890 
559.000000	0.027000 
558.000000	0.027120 
557.000000	0.027220 
556.000000	0.027390 
555.000000	0.027440 
554.000000	0.027560 
553.000000	0.027650 
552.000000	0.027840 
551.000000	0.028010 
550.000000	0.028100 
549.000000	0.028260 
548.000000	0.028400 
547.000000	0.028600 
546.000000	0.028760 
545.000000	0.028860 
544.000000	0.029060 
543.000000	0.029230 
542.000000	0.029440 
541.000000	0.029590 
540.000000	0.029780 
539.000000	0.029950 
538.000000	0.030150 
537.000000	0.030380 
536.000000	0.030590 
535.000000	0.030810 
534.000000	0.031050 
533.000000	0.031240 
532.000000	0.031510 
531.000000	0.031740 
530.000000	0.032080 
529.000000	0.032350 
528.000000	0.032690 
527.000000	0.033030 
526.000000	0.033360 
525.000000	0.033680 
524.000000	0.033980 
523.000000	0.034350 
522.000000	0.034780 
521.000000	0.035190 
520.000000	0.035560 
519.000000	0.036040 
518.000000	0.036440 
517.000000	0.036810 
516.000000	0.037320 
515.000000	0.037800 
514.000000	0.038250 
513.000000	0.038800 
512.000000	0.039330 
511.000000	0.039950 
510.000000	0.040610 
509.000000	0.041100 
508.000000	0.041860 
507.000000	0.042510 
506.000000	0.043170 
505.000000	0.043760 
504.000000	0.044640 
503.000000	0.045320 
502.000000	0.046150 
501.000000	0.046950 
500.000000	0.047930 
499.000000	0.048800 
498.000000	0.049690 
497.000000	0.050710 
496.000000	0.051580 
495.000000	0.052730 
494.000000	0.053850 
493.000000	0.054990 
492.000000	0.056190 
491.000000	0.057220 
490.000000	0.058410 
489.000000	0.059660 
488.000000	0.061000 
487.000000	0.062220 
486.000000	0.063510 
485.000000	0.064949 
484.000000	0.066390 
483.000000	0.067950 
482.000000	0.069680 
481.000000	0.071260 
480.000000	0.072910 
479.000000	0.074610 
478.000000	0.076350 
477.000000	0.078060 
476.000000	0.079890 
475.000000	0.081820 
474.000000	0.083970 
473.000000	0.085990 
472.000000	0.088120 
471.000000	0.090340 
470.000000	0.092450 
469.000000	0.094720 
468.000000	0.096890 
467.000000	0.099140 
466.000000	0.101440 
465.000000	0.103950 
464.000000	0.106350 
463.000000	0.108800 
462.000000	0.111150 
461.000000	0.113500 
460.000000	0.115660 
459.000000	0.118050 
458.000000	0.120480 
457.000000	0.122800 
456.000000	0.125200 
455.000000	0.127690 
454.000000	0.130160 
453.000000	0.132590 
452.000000	0.134870 
451.000000	0.137100 
450.000000	0.139300 
449.000000	0.141500 
448.000000	0.143700 
447.000000	0.145770 
446.000000	0.147940 
445.000000	0.150110 
444.000000	0.152170 
443.000000	0.154250 
442.000000	0.156310 
441.000000	0.158200 
440.000000	0.159850 
439.000000	0.161600 
438.000000	0.163320 
437.000000	0.165110 
436.000000	0.166780 
435.000000	0.168390 
434.000000	0.170000 
433.000000	0.171520 
432.000000	0.172930 
431.000000	0.174280 
430.000000	0.175550 
429.000000	0.176910 
428.000000	0.178110 
427.000000	0.179560 
426.000000	0.180840 
425.000000	0.182160 
424.000000	0.183290 
423.000000	0.184580 
422.000000	0.185820 
421.000000	0.186620 
420.000000	0.187780 
419.000000	0.188890 
418.000000	0.190040 
417.000000	0.191230 
416.000000	0.192250 
415.000000	0.193470 
414.000000	0.194650 
413.000000	0.195900 
412.000000	0.196920 
411.000000	0.198090 
410.000000	0.199200 
409.000000	0.200380 
408.000000	0.201770 
407.000000	0.203040 
406.000000	0.204130 
405.000000	0.205400 
404.000000	0.206630 
403.000000	0.207730 
402.000000	0.208920 
401.000000	0.210260 
400.000000	0.211440 
399.000000	0.212730 
398.000000	0.213990 
397.000000	0.215460 
396.000000	0.216740 
395.000000	0.218130 
394.000000	0.219470 
393.000000	0.220760 
392.000000	0.222060 
391.000000	0.223380 
390.000000	0.224730 
389.000000	0.226110 
388.000000	0.227480 
387.000000	0.229070 
386.000000	0.230440 
385.000000	0.231550 
384.000000	0.235730 
383.000000	0.245080 
382.000000	0.246470 
381.000000	0.248180 
380.000000	0.250270 
379.000000	0.252190 
378.000000	0.253970 
377.000000	0.255990 
376.000000	0.257970 
375.000000	0.259880 
374.000000	0.261720 
373.000000	0.263780 
372.000000	0.265590 
371.000000	0.267540 
370.000000	0.269380 
369.000000	0.271360 
368.000000	0.273270 
367.000000	0.275210 
366.000000	0.277170 
365.000000	0.279200 
364.000000	0.281340 
363.000000	0.283150 
362.000000	0.285080 
361.000000	0.287080 
360.000000	0.289170 
359.000000	0.291300 
358.000000	0.293120 
357.000000	0.295320 
356.000000	0.297530 
355.000000	0.299460 
354.000000	0.301640 
353.000000	0.303770 
352.000000	0.305820 
351.000000	0.308130 
350.000000	0.310270 
349.000000	0.312600 
348.000000	0.314990 
347.000000	0.317210 
346.000000	0.319330 
345.000000	0.321550 
344.000000	0.323590 
343.000000	0.325800 
342.000000	0.328070 
341.000000	0.330610 
340.000000	0.332690 
339.000000	0.334750 
338.000000	0.336890 
337.000000	0.339160 
336.000000	0.341270 
335.000000	0.343350 
334.000000	0.345030 
333.000000	0.347750 
332.000000	0.349920 
331.000000	0.351910 
330.000000	0.353910 
329.000000	0.356300 
328.000000	0.358760 
327.000000	0.360960 
326.000000	0.363580 
325.000000	0.365780 
324.000000	0.368420 
323.000000	0.371350 
322.000000	0.373950 
321.000000	0.376940 
320.000000	0.379960 
319.000000	0.382910 
318.000000	0.385780 
317.000000	0.389270 
316.000000	0.392220 
315.000000	0.395630 
314.000000	0.398880 
313.000000	0.402520 
312.000000	0.406170 
311.000000	0.409880 
310.000000	0.413600 
309.000000	0.417810 
308.000000	0.421770 
307.000000	0.425630 
306.000000	0.430090 
305.000000	0.434210 
304.000000	0.438750 
303.000000	0.443100 
302.000000	0.447600 
301.000000	0.452540 
300.000000	0.457070 

