PE UV                   SPECTRUM    ASCII       PEDS        1.60        
  -1
23MS146.SP
24/10/24
16:06:20.00
24/10/24
16:07:30.00


400.000000
1









4444

SCAN
1
1


0.0
480.0
2.00
MANUAL



UV/VIS




































#HDR
-1
-1
#GR
NM
A
0.00000011920928955078
0.0
700.000000
1.000000
301
8
0.162740
0.006730
#DATA
700.000000	0.006770 
699.000000	0.006850 
698.000000	0.006830 
697.000000	0.006780 
696.000000	0.006730 
695.000000	0.006900 
694.000000	0.006820 
693.000000	0.006870 
692.000000	0.006730 
691.000000	0.006860 
690.000000	0.006940 
689.000000	0.006870 
688.000000	0.006900 
687.000000	0.006910 
686.000000	0.006960 
685.000000	0.006970 
684.000000	0.006990 
683.000000	0.007010 
682.000000	0.006980 
681.000000	0.007010 
680.000000	0.007020 
679.000000	0.007050 
678.000000	0.007050 
677.000000	0.007120 
676.000000	0.007080 
675.000000	0.007120 
674.000000	0.007130 
673.000000	0.007110 
672.000000	0.007140 
671.000000	0.007220 
670.000000	0.007230 
669.000000	0.007290 
668.000000	0.007320 
667.000000	0.007280 
666.000000	0.007350 
665.000000	0.007390 
664.000000	0.007350 
663.000000	0.007400 
662.000000	0.007410 
661.000000	0.007360 
660.000000	0.007350 
659.000000	0.007410 
658.000000	0.007440 
657.000000	0.007350 
656.000000	0.007420 
655.000000	0.007480 
654.000000	0.007450 
653.000000	0.007510 
652.000000	0.007480 
651.000000	0.007530 
650.000000	0.007490 
649.000000	0.007610 
648.000000	0.007620 
647.000000	0.007610 
646.000000	0.007640 
645.000000	0.007620 
644.000000	0.007530 
643.000000	0.007660 
642.000000	0.007660 
641.000000	0.007710 
640.000000	0.007690 
639.000000	0.007750 
638.000000	0.007770 
637.000000	0.007810 
636.000000	0.007820 
635.000000	0.007790 
634.000000	0.007780 
633.000000	0.007830 
632.000000	0.007889 
631.000000	0.007870 
630.000000	0.007979 
629.000000	0.007979 
628.000000	0.008019 
627.000000	0.008010 
626.000000	0.008059 
625.000000	0.008059 
624.000000	0.008070 
623.000000	0.008050 
622.000000	0.008100 
621.000000	0.008100 
620.000000	0.008170 
619.000000	0.008100 
618.000000	0.008130 
617.000000	0.008220 
616.000000	0.008220 
615.000000	0.008290 
614.000000	0.008370 
613.000000	0.008300 
612.000000	0.008350 
611.000000	0.008240 
610.000000	0.008399 
609.000000	0.008390 
608.000000	0.008420 
607.000000	0.008420 
606.000000	0.008460 
605.000000	0.008470 
604.000000	0.008500 
603.000000	0.008529 
602.000000	0.008550 
601.000000	0.008640 
600.000000	0.008659 
599.000000	0.008650 
598.000000	0.008650 
597.000000	0.008690 
596.000000	0.008760 
595.000000	0.008770 
594.000000	0.008880 
593.000000	0.008850 
592.000000	0.008880 
591.000000	0.008869 
590.000000	0.008829 
589.000000	0.008890 
588.000000	0.008950 
587.000000	0.009039 
586.000000	0.009060 
585.000000	0.009080 
584.000000	0.009120 
583.000000	0.009160 
582.000000	0.009190 
581.000000	0.009240 
580.000000	0.009330 
579.000000	0.009330 
578.000000	0.009330 
577.000000	0.009440 
576.000000	0.009370 
575.000000	0.009540 
574.000000	0.009599 
573.000000	0.009580 
572.000000	0.009670 
571.000000	0.009630 
570.000000	0.009700 
569.000000	0.009769 
568.000000	0.009809 
567.000000	0.009889 
566.000000	0.009990 
565.000000	0.010060 
564.000000	0.010070 
563.000000	0.010220 
562.000000	0.010240 
561.000000	0.010310 
560.000000	0.010370 
559.000000	0.010410 
558.000000	0.010660 
557.000000	0.010750 
556.000000	0.010860 
555.000000	0.010920 
554.000000	0.010960 
553.000000	0.011070 
552.000000	0.011190 
551.000000	0.011300 
550.000000	0.011410 
549.000000	0.011540 
548.000000	0.011640 
547.000000	0.011890 
546.000000	0.011930 
545.000000	0.012120 
544.000000	0.012210 
543.000000	0.012360 
542.000000	0.012510 
541.000000	0.012660 
540.000000	0.012800 
539.000000	0.012980 
538.000000	0.013170 
537.000000	0.013380 
536.000000	0.013590 
535.000000	0.013840 
534.000000	0.014060 
533.000000	0.014310 
532.000000	0.014560 
531.000000	0.014760 
530.000000	0.015050 
529.000000	0.015330 
528.000000	0.015760 
527.000000	0.015960 
526.000000	0.016290 
525.000000	0.016600 
524.000000	0.016960 
523.000000	0.017280 
522.000000	0.017760 
521.000000	0.018180 
520.000000	0.018520 
519.000000	0.018920 
518.000000	0.019410 
517.000000	0.019810 
516.000000	0.020310 
515.000000	0.020750 
514.000000	0.021340 
513.000000	0.021780 
512.000000	0.022280 
511.000000	0.023040 
510.000000	0.023560 
509.000000	0.024110 
508.000000	0.024780 
507.000000	0.025470 
506.000000	0.026100 
505.000000	0.026760 
504.000000	0.027490 
503.000000	0.028170 
502.000000	0.028860 
501.000000	0.029700 
500.000000	0.030580 
499.000000	0.031410 
498.000000	0.032240 
497.000000	0.033100 
496.000000	0.034020 
495.000000	0.034870 
494.000000	0.035820 
493.000000	0.036800 
492.000000	0.037910 
491.000000	0.038840 
490.000000	0.039950 
489.000000	0.041000 
488.000000	0.042150 
487.000000	0.043130 
486.000000	0.044120 
485.000000	0.045290 
484.000000	0.046470 
483.000000	0.047610 
482.000000	0.048850 
481.000000	0.050090 
480.000000	0.051520 
479.000000	0.052860 
478.000000	0.054270 
477.000000	0.055650 
476.000000	0.057070 
475.000000	0.058470 
474.000000	0.059990 
473.000000	0.061480 
472.000000	0.063070 
471.000000	0.064790 
470.000000	0.066540 
469.000000	0.068240 
468.000000	0.069900 
467.000000	0.071700 
466.000000	0.073480 
465.000000	0.075250 
464.000000	0.077049 
463.000000	0.079110 
462.000000	0.080920 
461.000000	0.082690 
460.000000	0.084470 
459.000000	0.086240 
458.000000	0.088280 
457.000000	0.090050 
456.000000	0.091970 
455.000000	0.093900 
454.000000	0.095680 
453.000000	0.097760 
452.000000	0.099480 
451.000000	0.101370 
450.000000	0.103260 
449.000000	0.105000 
448.000000	0.106760 
447.000000	0.108480 
446.000000	0.110070 
445.000000	0.111820 
444.000000	0.113630 
443.000000	0.115300 
442.000000	0.116850 
441.000000	0.118470 
440.000000	0.119810 
439.000000	0.121320 
438.000000	0.122650 
437.000000	0.124050 
436.000000	0.125290 
435.000000	0.126620 
434.000000	0.127790 
433.000000	0.129040 
432.000000	0.130260 
431.000000	0.131380 
430.000000	0.132430 
429.000000	0.133450 
428.000000	0.134370 
427.000000	0.135620 
426.000000	0.136570 
425.000000	0.137420 
424.000000	0.138610 
423.000000	0.139530 
422.000000	0.140490 
421.000000	0.141410 
420.000000	0.142360 
419.000000	0.143370 
418.000000	0.144180 
417.000000	0.145150 
416.000000	0.146130 
415.000000	0.147130 
414.000000	0.148120 
413.000000	0.149080 
412.000000	0.150040 
411.000000	0.151110 
410.000000	0.152060 
409.000000	0.153170 
408.000000	0.154180 
407.000000	0.155270 
406.000000	0.156470 
405.000000	0.157590 
404.000000	0.158560 
403.000000	0.159560 
402.000000	0.160590 
401.000000	0.161710 
400.000000	0.162740 

