PE UV                   SPECTRUM    ASCII       PEDS        1.60        
  -1
23MS219.SP
24/10/25
15:24:37.00
24/10/25
15:25:44.00


300.000000
1









4444

SCAN
1
1


0.0
480.0
2.00
MANUAL



UV/VIS




































#HDR
-1
-1
#GR
NM
A
0.00000011920928955078
0.0
600.000000
1.000000
301
8
0.725520
0.019870
#DATA
600.000000	0.019870 
599.000000	0.019880 
598.000000	0.019990 
597.000000	0.019960 
596.000000	0.020070 
595.000000	0.020200 
594.000000	0.020250 
593.000000	0.020350 
592.000000	0.020360 
591.000000	0.020430 
590.000000	0.020460 
589.000000	0.020580 
588.000000	0.020650 
587.000000	0.020730 
586.000000	0.020790 
585.000000	0.020910 
584.000000	0.020960 
583.000000	0.021020 
582.000000	0.021010 
581.000000	0.021110 
580.000000	0.021180 
579.000000	0.021260 
578.000000	0.021350 
577.000000	0.021420 
576.000000	0.021530 
575.000000	0.021590 
574.000000	0.021650 
573.000000	0.021760 
572.000000	0.021780 
571.000000	0.021860 
570.000000	0.021980 
569.000000	0.022070 
568.000000	0.022180 
567.000000	0.022280 
566.000000	0.022310 
565.000000	0.022370 
564.000000	0.022560 
563.000000	0.022550 
562.000000	0.022760 
561.000000	0.022800 
560.000000	0.022900 
559.000000	0.023010 
558.000000	0.023180 
557.000000	0.023320 
556.000000	0.023480 
555.000000	0.023560 
554.000000	0.023650 
553.000000	0.023810 
552.000000	0.023970 
551.000000	0.024100 
550.000000	0.024270 
549.000000	0.024430 
548.000000	0.024610 
547.000000	0.024820 
546.000000	0.024980 
545.000000	0.025070 
544.000000	0.025390 
543.000000	0.025550 
542.000000	0.025810 
541.000000	0.026030 
540.000000	0.026220 
539.000000	0.026450 
538.000000	0.026720 
537.000000	0.027070 
536.000000	0.027290 
535.000000	0.027550 
534.000000	0.027900 
533.000000	0.028210 
532.000000	0.028570 
531.000000	0.028910 
530.000000	0.029280 
529.000000	0.029690 
528.000000	0.030180 
527.000000	0.030630 
526.000000	0.031030 
525.000000	0.031530 
524.000000	0.031990 
523.000000	0.032500 
522.000000	0.033160 
521.000000	0.033710 
520.000000	0.034250 
519.000000	0.034960 
518.000000	0.035540 
517.000000	0.036130 
516.000000	0.036840 
515.000000	0.037650 
514.000000	0.038370 
513.000000	0.039250 
512.000000	0.039940 
511.000000	0.040860 
510.000000	0.041820 
509.000000	0.042780 
508.000000	0.043800 
507.000000	0.044920 
506.000000	0.045920 
505.000000	0.046980 
504.000000	0.048320 
503.000000	0.049450 
502.000000	0.050820 
501.000000	0.052200 
500.000000	0.053830 
499.000000	0.055420 
498.000000	0.056940 
497.000000	0.058670 
496.000000	0.060430 
495.000000	0.062190 
494.000000	0.064089 
493.000000	0.066110 
492.000000	0.068290 
491.000000	0.070280 
490.000000	0.072570 
489.000000	0.074890 
488.000000	0.077320 
487.000000	0.079610 
486.000000	0.082100 
485.000000	0.084680 
484.000000	0.087400 
483.000000	0.090270 
482.000000	0.093460 
481.000000	0.096560 
480.000000	0.099770 
479.000000	0.103060 
478.000000	0.106410 
477.000000	0.109710 
476.000000	0.113240 
475.000000	0.116750 
474.000000	0.120620 
473.000000	0.124400 
472.000000	0.128430 
471.000000	0.132460 
470.000000	0.136540 
469.000000	0.140570 
468.000000	0.144570 
467.000000	0.148530 
466.000000	0.152620 
465.000000	0.156760 
464.000000	0.160980 
463.000000	0.165170 
462.000000	0.169120 
461.000000	0.173030 
460.000000	0.176620 
459.000000	0.180390 
458.000000	0.184010 
457.000000	0.187480 
456.000000	0.191050 
455.000000	0.194650 
454.000000	0.198160 
453.000000	0.201580 
452.000000	0.204920 
451.000000	0.208080 
450.000000	0.211020 
449.000000	0.213970 
448.000000	0.216860 
447.000000	0.219510 
446.000000	0.222400 
445.000000	0.225050 
444.000000	0.227610 
443.000000	0.230280 
442.000000	0.232920 
441.000000	0.235240 
440.000000	0.237490 
439.000000	0.239690 
438.000000	0.241720 
437.000000	0.243950 
436.000000	0.246150 
435.000000	0.248250 
434.000000	0.250420 
433.000000	0.252450 
432.000000	0.254480 
431.000000	0.256340 
430.000000	0.258150 
429.000000	0.260120 
428.000000	0.261980 
427.000000	0.263990 
426.000000	0.265730 
425.000000	0.267740 
424.000000	0.269740 
423.000000	0.271650 
422.000000	0.273650 
421.000000	0.275060 
420.000000	0.277010 
419.000000	0.278930 
418.000000	0.280850 
417.000000	0.282770 
416.000000	0.284810 
415.000000	0.286880 
414.000000	0.288970 
413.000000	0.291200 
412.000000	0.293190 
411.000000	0.295340 
410.000000	0.297370 
409.000000	0.299530 
408.000000	0.301900 
407.000000	0.304060 
406.000000	0.306400 
405.000000	0.308730 
404.000000	0.310980 
403.000000	0.313090 
402.000000	0.315230 
401.000000	0.317450 
400.000000	0.319630 
399.000000	0.321820 
398.000000	0.324080 
397.000000	0.326430 
396.000000	0.328630 
395.000000	0.330900 
394.000000	0.333180 
393.000000	0.335400 
392.000000	0.337580 
391.000000	0.339690 
390.000000	0.341770 
389.000000	0.344040 
388.000000	0.346200 
387.000000	0.348430 
386.000000	0.350550 
385.000000	0.352510 
384.000000	0.359420 
383.000000	0.376530 
382.000000	0.378700 
381.000000	0.381810 
380.000000	0.384720 
379.000000	0.388040 
378.000000	0.391050 
377.000000	0.393950 
376.000000	0.396980 
375.000000	0.400270 
374.000000	0.402900 
373.000000	0.406260 
372.000000	0.409090 
371.000000	0.412110 
370.000000	0.414970 
369.000000	0.417780 
368.000000	0.420810 
367.000000	0.423920 
366.000000	0.427070 
365.000000	0.430330 
364.000000	0.433350 
363.000000	0.436450 
362.000000	0.439290 
361.000000	0.442440 
360.000000	0.445650 
359.000000	0.448890 
358.000000	0.451920 
357.000000	0.455450 
356.000000	0.458800 
355.000000	0.462240 
354.000000	0.465630 
353.000000	0.468940 
352.000000	0.472350 
351.000000	0.475710 
350.000000	0.479170 
349.000000	0.483040 
348.000000	0.486650 
347.000000	0.490210 
346.000000	0.493880 
345.000000	0.497540 
344.000000	0.500800 
343.000000	0.504600 
342.000000	0.507920 
341.000000	0.512050 
340.000000	0.515960 
339.000000	0.519620 
338.000000	0.523370 
337.000000	0.527150 
336.000000	0.531170 
335.000000	0.534430 
334.000000	0.537920 
333.000000	0.542240 
332.000000	0.546060 
331.000000	0.550289 
330.000000	0.554470 
329.000000	0.558500 
328.000000	0.562870 
327.000000	0.566389 
326.000000	0.570640 
325.000000	0.574740 
324.000000	0.579660 
323.000000	0.584630 
322.000000	0.589400 
321.000000	0.594470 
320.000000	0.599640 
319.000000	0.604580 
318.000000	0.609630 
317.000000	0.615880 
316.000000	0.621110 
315.000000	0.626810 
314.000000	0.632340 
313.000000	0.638080 
312.000000	0.644270 
311.000000	0.650320 
310.000000	0.655380 
309.000000	0.662480 
308.000000	0.668980 
307.000000	0.675580 
306.000000	0.682220 
305.000000	0.689169 
304.000000	0.695620 
303.000000	0.703230 
302.000000	0.709490 
301.000000	0.717710 
300.000000	0.725520 

