PE UV                   SPECTRUM    ASCII       PEDS        1.60        
  -1
23MS166.SP
24/10/24
16:08:55.00
24/10/24
16:10:14.00


400.000000
1









4444

SCAN
1
1


0.0
480.0
2.00
MANUAL



UV/VIS




































#HDR
-1
-1
#GR
NM
A
0.00000011920928955078
0.0
700.000000
1.000000
301
8
0.099210
0.004380
#DATA
700.000000	0.004490 
699.000000	0.004540 
698.000000	0.004530 
697.000000	0.004500 
696.000000	0.004380 
695.000000	0.004520 
694.000000	0.004470 
693.000000	0.004480 
692.000000	0.004480 
691.000000	0.004560 
690.000000	0.004500 
689.000000	0.004470 
688.000000	0.004430 
687.000000	0.004520 
686.000000	0.004530 
685.000000	0.004380 
684.000000	0.004480 
683.000000	0.004540 
682.000000	0.004500 
681.000000	0.004460 
680.000000	0.004480 
679.000000	0.004540 
678.000000	0.004580 
677.000000	0.004550 
676.000000	0.004560 
675.000000	0.004550 
674.000000	0.004620 
673.000000	0.004620 
672.000000	0.004610 
671.000000	0.004590 
670.000000	0.004610 
669.000000	0.004690 
668.000000	0.004670 
667.000000	0.004600 
666.000000	0.004640 
665.000000	0.004680 
664.000000	0.004650 
663.000000	0.004670 
662.000000	0.004670 
661.000000	0.004680 
660.000000	0.004670 
659.000000	0.004670 
658.000000	0.004700 
657.000000	0.004670 
656.000000	0.004690 
655.000000	0.004750 
654.000000	0.004680 
653.000000	0.004720 
652.000000	0.004750 
651.000000	0.004730 
650.000000	0.004790 
649.000000	0.004790 
648.000000	0.004790 
647.000000	0.004750 
646.000000	0.004800 
645.000000	0.004750 
644.000000	0.004710 
643.000000	0.004790 
642.000000	0.004820 
641.000000	0.004810 
640.000000	0.004720 
639.000000	0.004830 
638.000000	0.004850 
637.000000	0.004820 
636.000000	0.004870 
635.000000	0.004870 
634.000000	0.004830 
633.000000	0.004910 
632.000000	0.004950 
631.000000	0.004890 
630.000000	0.004960 
629.000000	0.004890 
628.000000	0.005000 
627.000000	0.004980 
626.000000	0.004960 
625.000000	0.005000 
624.000000	0.005000 
623.000000	0.005000 
622.000000	0.004960 
621.000000	0.005060 
620.000000	0.005030 
619.000000	0.005030 
618.000000	0.005010 
617.000000	0.005060 
616.000000	0.005120 
615.000000	0.005160 
614.000000	0.005200 
613.000000	0.005160 
612.000000	0.005060 
611.000000	0.005090 
610.000000	0.005230 
609.000000	0.005170 
608.000000	0.005170 
607.000000	0.005130 
606.000000	0.005190 
605.000000	0.005180 
604.000000	0.005190 
603.000000	0.005190 
602.000000	0.005210 
601.000000	0.005280 
600.000000	0.005250 
599.000000	0.005310 
598.000000	0.005210 
597.000000	0.005290 
596.000000	0.005400 
595.000000	0.005390 
594.000000	0.005450 
593.000000	0.005350 
592.000000	0.005350 
591.000000	0.005400 
590.000000	0.005390 
589.000000	0.005310 
588.000000	0.005480 
587.000000	0.005450 
586.000000	0.005520 
585.000000	0.005450 
584.000000	0.005440 
583.000000	0.005510 
582.000000	0.005560 
581.000000	0.005500 
580.000000	0.005570 
579.000000	0.005570 
578.000000	0.005610 
577.000000	0.005540 
576.000000	0.005600 
575.000000	0.005610 
574.000000	0.005630 
573.000000	0.005680 
572.000000	0.005680 
571.000000	0.005700 
570.000000	0.005750 
569.000000	0.005700 
568.000000	0.005720 
567.000000	0.005800 
566.000000	0.005840 
565.000000	0.005870 
564.000000	0.005900 
563.000000	0.005900 
562.000000	0.005970 
561.000000	0.005970 
560.000000	0.006010 
559.000000	0.005940 
558.000000	0.006130 
557.000000	0.006220 
556.000000	0.006270 
555.000000	0.006280 
554.000000	0.006270 
553.000000	0.006330 
552.000000	0.006430 
551.000000	0.006430 
550.000000	0.006470 
549.000000	0.006590 
548.000000	0.006570 
547.000000	0.006650 
546.000000	0.006680 
545.000000	0.006830 
544.000000	0.006840 
543.000000	0.006870 
542.000000	0.006860 
541.000000	0.006970 
540.000000	0.007040 
539.000000	0.007090 
538.000000	0.007190 
537.000000	0.007290 
536.000000	0.007320 
535.000000	0.007430 
534.000000	0.007560 
533.000000	0.007630 
532.000000	0.007740 
531.000000	0.007849 
530.000000	0.007939 
529.000000	0.008080 
528.000000	0.008210 
527.000000	0.008250 
526.000000	0.008430 
525.000000	0.008600 
524.000000	0.008720 
523.000000	0.008910 
522.000000	0.009060 
521.000000	0.009299 
520.000000	0.009370 
519.000000	0.009590 
518.000000	0.009830 
517.000000	0.009930 
516.000000	0.010190 
515.000000	0.010480 
514.000000	0.010780 
513.000000	0.010990 
512.000000	0.011240 
511.000000	0.011640 
510.000000	0.011930 
509.000000	0.012230 
508.000000	0.012540 
507.000000	0.012920 
506.000000	0.013330 
505.000000	0.013690 
504.000000	0.014130 
503.000000	0.014630 
502.000000	0.015050 
501.000000	0.015600 
500.000000	0.016240 
499.000000	0.016720 
498.000000	0.017280 
497.000000	0.017820 
496.000000	0.018590 
495.000000	0.019230 
494.000000	0.019820 
493.000000	0.020620 
492.000000	0.021490 
491.000000	0.022220 
490.000000	0.023140 
489.000000	0.023970 
488.000000	0.024870 
487.000000	0.025690 
486.000000	0.026520 
485.000000	0.027500 
484.000000	0.028570 
483.000000	0.029610 
482.000000	0.030710 
481.000000	0.031770 
480.000000	0.032980 
479.000000	0.033980 
478.000000	0.035160 
477.000000	0.036430 
476.000000	0.037600 
475.000000	0.038770 
474.000000	0.040040 
473.000000	0.041260 
472.000000	0.042530 
471.000000	0.043810 
470.000000	0.045150 
469.000000	0.046380 
468.000000	0.047610 
467.000000	0.048760 
466.000000	0.050080 
465.000000	0.051380 
464.000000	0.052510 
463.000000	0.053810 
462.000000	0.054890 
461.000000	0.055890 
460.000000	0.056910 
459.000000	0.057980 
458.000000	0.059010 
457.000000	0.059970 
456.000000	0.061000 
455.000000	0.061940 
454.000000	0.062720 
453.000000	0.063760 
452.000000	0.064530 
451.000000	0.065610 
450.000000	0.066460 
449.000000	0.067200 
448.000000	0.068000 
447.000000	0.068779 
446.000000	0.069370 
445.000000	0.070209 
444.000000	0.071020 
443.000000	0.071780 
442.000000	0.072420 
441.000000	0.073060 
440.000000	0.073550 
439.000000	0.074210 
438.000000	0.074790 
437.000000	0.075550 
436.000000	0.076100 
435.000000	0.076759 
434.000000	0.077380 
433.000000	0.077900 
432.000000	0.078450 
431.000000	0.079120 
430.000000	0.079690 
429.000000	0.080250 
428.000000	0.080780 
427.000000	0.081540 
426.000000	0.082070 
425.000000	0.082630 
424.000000	0.083450 
423.000000	0.083980 
422.000000	0.084570 
421.000000	0.085080 
420.000000	0.085720 
419.000000	0.086360 
418.000000	0.086950 
417.000000	0.087570 
416.000000	0.088260 
415.000000	0.089000 
414.000000	0.089730 
413.000000	0.090410 
412.000000	0.091030 
411.000000	0.091680 
410.000000	0.092280 
409.000000	0.093090 
408.000000	0.093850 
407.000000	0.094540 
406.000000	0.095310 
405.000000	0.096040 
404.000000	0.096640 
403.000000	0.097190 
402.000000	0.097840 
401.000000	0.098599 
400.000000	0.099210 

