PE UV                   SPECTRUM    ASCII       PEDS        1.60        
  -1
23MS012.SP
24/10/28
15:18:18.00
24/10/28
15:19:24.00


300.000000
1









4444

SCAN
1
1


0.0
480.0
2.00
MANUAL



UV/VIS




































#HDR
-1
-1
#GR
NM
A
0.00000011920928955078
0.0
600.000000
1.000000
301
8
0.429410
0.015980
#DATA
600.000000	0.015980 
599.000000	0.015980 
598.000000	0.016070 
597.000000	0.016100 
596.000000	0.016250 
595.000000	0.016240 
594.000000	0.016220 
593.000000	0.016270 
592.000000	0.016370 
591.000000	0.016480 
590.000000	0.016420 
589.000000	0.016500 
588.000000	0.016460 
587.000000	0.016530 
586.000000	0.016610 
585.000000	0.016610 
584.000000	0.016730 
583.000000	0.016840 
582.000000	0.016800 
581.000000	0.016810 
580.000000	0.016880 
579.000000	0.016990 
578.000000	0.016900 
577.000000	0.017020 
576.000000	0.017080 
575.000000	0.017050 
574.000000	0.017070 
573.000000	0.017120 
572.000000	0.017190 
571.000000	0.017150 
570.000000	0.017170 
569.000000	0.017250 
568.000000	0.017260 
567.000000	0.017390 
566.000000	0.017360 
565.000000	0.017530 
564.000000	0.017550 
563.000000	0.017600 
562.000000	0.017620 
561.000000	0.017730 
560.000000	0.017620 
559.000000	0.017780 
558.000000	0.017950 
557.000000	0.018100 
556.000000	0.018120 
555.000000	0.018140 
554.000000	0.018230 
553.000000	0.018320 
552.000000	0.018410 
551.000000	0.018470 
550.000000	0.018490 
549.000000	0.018630 
548.000000	0.018680 
547.000000	0.018790 
546.000000	0.018840 
545.000000	0.018980 
544.000000	0.019120 
543.000000	0.019250 
542.000000	0.019270 
541.000000	0.019440 
540.000000	0.019550 
539.000000	0.019690 
538.000000	0.019780 
537.000000	0.019910 
536.000000	0.020000 
535.000000	0.020200 
534.000000	0.020320 
533.000000	0.020530 
532.000000	0.020650 
531.000000	0.020930 
530.000000	0.021040 
529.000000	0.021260 
528.000000	0.021470 
527.000000	0.021710 
526.000000	0.021910 
525.000000	0.022130 
524.000000	0.022310 
523.000000	0.022640 
522.000000	0.022930 
521.000000	0.023190 
520.000000	0.023430 
519.000000	0.023740 
518.000000	0.024120 
517.000000	0.024450 
516.000000	0.024760 
515.000000	0.025130 
514.000000	0.025620 
513.000000	0.026010 
512.000000	0.026420 
511.000000	0.026960 
510.000000	0.027360 
509.000000	0.027920 
508.000000	0.028360 
507.000000	0.028970 
506.000000	0.029660 
505.000000	0.030280 
504.000000	0.030950 
503.000000	0.031680 
502.000000	0.032490 
501.000000	0.033350 
500.000000	0.034110 
499.000000	0.035020 
498.000000	0.035900 
497.000000	0.036900 
496.000000	0.038030 
495.000000	0.039080 
494.000000	0.040200 
493.000000	0.041490 
492.000000	0.042870 
491.000000	0.044060 
490.000000	0.045620 
489.000000	0.046970 
488.000000	0.048440 
487.000000	0.050070 
486.000000	0.051640 
485.000000	0.053290 
484.000000	0.055090 
483.000000	0.056990 
482.000000	0.058920 
481.000000	0.060880 
480.000000	0.062900 
479.000000	0.065000 
478.000000	0.067150 
477.000000	0.069380 
476.000000	0.071770 
475.000000	0.074260 
474.000000	0.076710 
473.000000	0.079320 
472.000000	0.081780 
471.000000	0.084279 
470.000000	0.086900 
469.000000	0.089530 
468.000000	0.092130 
467.000000	0.094860 
466.000000	0.097559 
465.000000	0.100240 
464.000000	0.102830 
463.000000	0.105360 
462.000000	0.107950 
461.000000	0.110210 
460.000000	0.112640 
459.000000	0.114940 
458.000000	0.117400 
457.000000	0.119730 
456.000000	0.122080 
455.000000	0.124150 
454.000000	0.126330 
453.000000	0.128300 
452.000000	0.130180 
451.000000	0.132050 
450.000000	0.133870 
449.000000	0.135660 
448.000000	0.137300 
447.000000	0.139040 
446.000000	0.140720 
445.000000	0.142230 
444.000000	0.143770 
443.000000	0.145170 
442.000000	0.146390 
441.000000	0.147650 
440.000000	0.148880 
439.000000	0.150080 
438.000000	0.151290 
437.000000	0.152610 
436.000000	0.153780 
435.000000	0.154880 
434.000000	0.156030 
433.000000	0.157080 
432.000000	0.158050 
431.000000	0.159070 
430.000000	0.160230 
429.000000	0.161220 
428.000000	0.162200 
427.000000	0.163170 
426.000000	0.164540 
425.000000	0.165460 
424.000000	0.166510 
423.000000	0.167500 
422.000000	0.168420 
421.000000	0.169430 
420.000000	0.170450 
419.000000	0.171530 
418.000000	0.172660 
417.000000	0.173920 
416.000000	0.175070 
415.000000	0.176130 
414.000000	0.177290 
413.000000	0.178510 
412.000000	0.179700 
411.000000	0.180930 
410.000000	0.182120 
409.000000	0.183530 
408.000000	0.184860 
407.000000	0.186260 
406.000000	0.187520 
405.000000	0.188850 
404.000000	0.190050 
403.000000	0.191350 
402.000000	0.192560 
401.000000	0.193950 
400.000000	0.195340 
399.000000	0.196580 
398.000000	0.197990 
397.000000	0.199440 
396.000000	0.200730 
395.000000	0.202120 
394.000000	0.203700 
393.000000	0.205090 
392.000000	0.206510 
391.000000	0.207830 
390.000000	0.209140 
389.000000	0.210590 
388.000000	0.212090 
387.000000	0.213440 
386.000000	0.214750 
385.000000	0.216080 
384.000000	0.219260 
383.000000	0.227420 
382.000000	0.228600 
381.000000	0.230450 
380.000000	0.232440 
379.000000	0.233860 
378.000000	0.235910 
377.000000	0.237400 
376.000000	0.238960 
375.000000	0.240470 
374.000000	0.242100 
373.000000	0.243930 
372.000000	0.245780 
371.000000	0.247300 
370.000000	0.249080 
369.000000	0.250660 
368.000000	0.252400 
367.000000	0.254000 
366.000000	0.255770 
365.000000	0.257420 
364.000000	0.259070 
363.000000	0.260710 
362.000000	0.262760 
361.000000	0.264390 
360.000000	0.266320 
359.000000	0.268040 
358.000000	0.269700 
357.000000	0.271580 
356.000000	0.273510 
355.000000	0.275350 
354.000000	0.277200 
353.000000	0.279300 
352.000000	0.281290 
351.000000	0.283310 
350.000000	0.285100 
349.000000	0.287400 
348.000000	0.289520 
347.000000	0.291490 
346.000000	0.293480 
345.000000	0.295610 
344.000000	0.297730 
343.000000	0.299840 
342.000000	0.301680 
341.000000	0.304190 
340.000000	0.306420 
339.000000	0.308510 
338.000000	0.310930 
337.000000	0.312800 
336.000000	0.314960 
335.000000	0.317100 
334.000000	0.319280 
333.000000	0.322070 
332.000000	0.324490 
331.000000	0.326920 
330.000000	0.329260 
329.000000	0.331690 
328.000000	0.333730 
327.000000	0.338680 
326.000000	0.342360 
325.000000	0.344940 
324.000000	0.347560 
323.000000	0.350670 
322.000000	0.353410 
321.000000	0.356620 
320.000000	0.359660 
319.000000	0.362620 
318.000000	0.365390 
317.000000	0.368560 
316.000000	0.371600 
315.000000	0.374890 
314.000000	0.378390 
313.000000	0.381700 
312.000000	0.385110 
311.000000	0.388300 
310.000000	0.391370 
309.000000	0.395130 
308.000000	0.398290 
307.000000	0.402130 
306.000000	0.406020 
305.000000	0.409620 
304.000000	0.413600 
303.000000	0.417120 
302.000000	0.421160 
301.000000	0.425550 
300.000000	0.429410 

