PE UV                   SPECTRUM    ASCII       PEDS        1.60        
  -1
23MS261.SP
24/10/25
15:29:39.00
24/10/25
15:30:47.00


300.000000
1









4444

SCAN
1
1


0.0
480.0
2.00
MANUAL



UV/VIS




































#HDR
-1
-1
#GR
NM
A
0.00000011920928955078
0.0
600.000000
1.000000
301
8
0.403230
0.035530
#DATA
600.000000	0.035550 
599.000000	0.035530 
598.000000	0.035590 
597.000000	0.035630 
596.000000	0.035700 
595.000000	0.035800 
594.000000	0.035810 
593.000000	0.035950 
592.000000	0.036030 
591.000000	0.036060 
590.000000	0.036040 
589.000000	0.036160 
588.000000	0.036180 
587.000000	0.036190 
586.000000	0.036340 
585.000000	0.036420 
584.000000	0.036480 
583.000000	0.036530 
582.000000	0.036510 
581.000000	0.036560 
580.000000	0.036700 
579.000000	0.036750 
578.000000	0.036810 
577.000000	0.036810 
576.000000	0.036910 
575.000000	0.036990 
574.000000	0.037060 
573.000000	0.037120 
572.000000	0.037190 
571.000000	0.037170 
570.000000	0.037300 
569.000000	0.037380 
568.000000	0.037400 
567.000000	0.037440 
566.000000	0.037580 
565.000000	0.037570 
564.000000	0.037700 
563.000000	0.037750 
562.000000	0.037950 
561.000000	0.037890 
560.000000	0.038070 
559.000000	0.038190 
558.000000	0.038230 
557.000000	0.038240 
556.000000	0.038360 
555.000000	0.038430 
554.000000	0.038530 
553.000000	0.038650 
552.000000	0.038760 
551.000000	0.038870 
550.000000	0.039020 
549.000000	0.039240 
548.000000	0.039360 
547.000000	0.039520 
546.000000	0.039640 
545.000000	0.039770 
544.000000	0.039930 
543.000000	0.040140 
542.000000	0.040350 
541.000000	0.040500 
540.000000	0.040540 
539.000000	0.040790 
538.000000	0.041010 
537.000000	0.041240 
536.000000	0.041500 
535.000000	0.041660 
534.000000	0.041940 
533.000000	0.042200 
532.000000	0.042420 
531.000000	0.042630 
530.000000	0.042990 
529.000000	0.043260 
528.000000	0.043640 
527.000000	0.043970 
526.000000	0.044260 
525.000000	0.044700 
524.000000	0.044990 
523.000000	0.045420 
522.000000	0.045850 
521.000000	0.046230 
520.000000	0.046620 
519.000000	0.047200 
518.000000	0.047540 
517.000000	0.047980 
516.000000	0.048500 
515.000000	0.049130 
514.000000	0.049550 
513.000000	0.050120 
512.000000	0.050570 
511.000000	0.051230 
510.000000	0.051780 
509.000000	0.052440 
508.000000	0.053140 
507.000000	0.053770 
506.000000	0.054470 
505.000000	0.055170 
504.000000	0.055990 
503.000000	0.056630 
502.000000	0.057370 
501.000000	0.058170 
500.000000	0.059070 
499.000000	0.059910 
498.000000	0.060760 
497.000000	0.061730 
496.000000	0.062600 
495.000000	0.063470 
494.000000	0.064430 
493.000000	0.065430 
492.000000	0.066400 
491.000000	0.067390 
490.000000	0.068410 
489.000000	0.069470 
488.000000	0.070550 
487.000000	0.071520 
486.000000	0.072590 
485.000000	0.073740 
484.000000	0.074730 
483.000000	0.075860 
482.000000	0.077020 
481.000000	0.078150 
480.000000	0.079330 
479.000000	0.080600 
478.000000	0.081830 
477.000000	0.082980 
476.000000	0.084279 
475.000000	0.085510 
474.000000	0.086810 
473.000000	0.088039 
472.000000	0.089260 
471.000000	0.090660 
470.000000	0.092020 
469.000000	0.093420 
468.000000	0.094820 
467.000000	0.096199 
466.000000	0.097470 
465.000000	0.098849 
464.000000	0.100220 
463.000000	0.101660 
462.000000	0.103110 
461.000000	0.104550 
460.000000	0.105740 
459.000000	0.107270 
458.000000	0.108590 
457.000000	0.110120 
456.000000	0.111600 
455.000000	0.113050 
454.000000	0.114480 
453.000000	0.115880 
452.000000	0.117370 
451.000000	0.118870 
450.000000	0.120310 
449.000000	0.121770 
448.000000	0.123380 
447.000000	0.124700 
446.000000	0.126250 
445.000000	0.127680 
444.000000	0.129160 
443.000000	0.130640 
442.000000	0.132260 
441.000000	0.133750 
440.000000	0.135300 
439.000000	0.136710 
438.000000	0.138160 
437.000000	0.139800 
436.000000	0.141210 
435.000000	0.142680 
434.000000	0.144120 
433.000000	0.145740 
432.000000	0.147160 
431.000000	0.148480 
430.000000	0.149820 
429.000000	0.151360 
428.000000	0.152670 
427.000000	0.154180 
426.000000	0.155340 
425.000000	0.156750 
424.000000	0.158120 
423.000000	0.159410 
422.000000	0.160800 
421.000000	0.161850 
420.000000	0.163250 
419.000000	0.164480 
418.000000	0.165780 
417.000000	0.166990 
416.000000	0.168200 
415.000000	0.169450 
414.000000	0.170760 
413.000000	0.172030 
412.000000	0.173240 
411.000000	0.174580 
410.000000	0.175760 
409.000000	0.176940 
408.000000	0.178170 
407.000000	0.179380 
406.000000	0.180600 
405.000000	0.181860 
404.000000	0.183020 
403.000000	0.184100 
402.000000	0.185220 
401.000000	0.186380 
400.000000	0.187420 
399.000000	0.188480 
398.000000	0.189640 
397.000000	0.190820 
396.000000	0.191800 
395.000000	0.193010 
394.000000	0.194170 
393.000000	0.195380 
392.000000	0.196480 
391.000000	0.197530 
390.000000	0.198630 
389.000000	0.199820 
388.000000	0.200750 
387.000000	0.201940 
386.000000	0.203070 
385.000000	0.204040 
384.000000	0.207230 
383.000000	0.214500 
382.000000	0.216190 
381.000000	0.217790 
380.000000	0.219260 
379.000000	0.220930 
378.000000	0.222530 
377.000000	0.223940 
376.000000	0.225430 
375.000000	0.227050 
374.000000	0.228600 
373.000000	0.230310 
372.000000	0.231840 
371.000000	0.233440 
370.000000	0.235120 
369.000000	0.236480 
368.000000	0.238030 
367.000000	0.239610 
366.000000	0.241240 
365.000000	0.243020 
364.000000	0.244890 
363.000000	0.246780 
362.000000	0.248350 
361.000000	0.250170 
360.000000	0.251970 
359.000000	0.253720 
358.000000	0.255370 
357.000000	0.257210 
356.000000	0.259330 
355.000000	0.261130 
354.000000	0.262940 
353.000000	0.264790 
352.000000	0.266970 
351.000000	0.268800 
350.000000	0.270840 
349.000000	0.273000 
348.000000	0.275000 
347.000000	0.276970 
346.000000	0.279020 
345.000000	0.281040 
344.000000	0.283040 
343.000000	0.284950 
342.000000	0.287060 
341.000000	0.289220 
340.000000	0.291200 
339.000000	0.293150 
338.000000	0.295260 
337.000000	0.297020 
336.000000	0.298830 
335.000000	0.300930 
334.000000	0.302800 
333.000000	0.305010 
332.000000	0.307070 
331.000000	0.309140 
330.000000	0.310930 
329.000000	0.312890 
328.000000	0.315330 
327.000000	0.314890 
326.000000	0.316440 
325.000000	0.318860 
324.000000	0.321350 
323.000000	0.323650 
322.000000	0.326380 
321.000000	0.328780 
320.000000	0.331540 
319.000000	0.334190 
318.000000	0.336930 
317.000000	0.340030 
316.000000	0.343200 
315.000000	0.346240 
314.000000	0.349190 
313.000000	0.352570 
312.000000	0.355980 
311.000000	0.359160 
310.000000	0.362790 
309.000000	0.366760 
308.000000	0.370360 
307.000000	0.374250 
306.000000	0.378380 
305.000000	0.382170 
304.000000	0.386370 
303.000000	0.390550 
302.000000	0.394240 
301.000000	0.398800 
300.000000	0.403230 

