PE UV                   SPECTRUM    ASCII       PEDS        1.60        
  -1
23MS079.SP
24/10/29
15:02:46.00
24/10/29
15:04:05.00


300.000000
1









4444

SCAN
1
1


0.0
480.0
2.00
MANUAL



UV/VIS




































#HDR
-1
-1
#GR
NM
A
0.00000011920928955078
0.0
600.000000
1.000000
301
8
0.646720
0.019850
#DATA
600.000000	0.019850 
599.000000	0.019850 
598.000000	0.019890 
597.000000	0.020020 
596.000000	0.020050 
595.000000	0.020120 
594.000000	0.020130 
593.000000	0.020190 
592.000000	0.020220 
591.000000	0.020200 
590.000000	0.020270 
589.000000	0.020310 
588.000000	0.020330 
587.000000	0.020440 
586.000000	0.020390 
585.000000	0.020390 
584.000000	0.020380 
583.000000	0.020390 
582.000000	0.020460 
581.000000	0.020500 
580.000000	0.020670 
579.000000	0.020660 
578.000000	0.020650 
577.000000	0.020700 
576.000000	0.020730 
575.000000	0.020800 
574.000000	0.020850 
573.000000	0.020870 
572.000000	0.020980 
571.000000	0.021040 
570.000000	0.021030 
569.000000	0.021110 
568.000000	0.021250 
567.000000	0.021170 
566.000000	0.021340 
565.000000	0.021400 
564.000000	0.021430 
563.000000	0.021490 
562.000000	0.021520 
561.000000	0.021660 
560.000000	0.021750 
559.000000	0.021860 
558.000000	0.022010 
557.000000	0.022040 
556.000000	0.022160 
555.000000	0.022310 
554.000000	0.022430 
553.000000	0.022530 
552.000000	0.022670 
551.000000	0.022880 
550.000000	0.022960 
549.000000	0.023100 
548.000000	0.023380 
547.000000	0.023440 
546.000000	0.023630 
545.000000	0.023770 
544.000000	0.024020 
543.000000	0.024130 
542.000000	0.024370 
541.000000	0.024620 
540.000000	0.024890 
539.000000	0.025070 
538.000000	0.025400 
537.000000	0.025630 
536.000000	0.025810 
535.000000	0.026130 
534.000000	0.026510 
533.000000	0.026830 
532.000000	0.027100 
531.000000	0.027470 
530.000000	0.027860 
529.000000	0.028300 
528.000000	0.028580 
527.000000	0.029110 
526.000000	0.029550 
525.000000	0.029980 
524.000000	0.030450 
523.000000	0.030960 
522.000000	0.031460 
521.000000	0.032010 
520.000000	0.032580 
519.000000	0.033210 
518.000000	0.033710 
517.000000	0.034340 
516.000000	0.034910 
515.000000	0.035600 
514.000000	0.036260 
513.000000	0.036980 
512.000000	0.037730 
511.000000	0.038500 
510.000000	0.039300 
509.000000	0.040070 
508.000000	0.040940 
507.000000	0.041870 
506.000000	0.042660 
505.000000	0.043610 
504.000000	0.044610 
503.000000	0.045540 
502.000000	0.046620 
501.000000	0.047780 
500.000000	0.048780 
499.000000	0.050020 
498.000000	0.051130 
497.000000	0.052440 
496.000000	0.053610 
495.000000	0.054920 
494.000000	0.056200 
493.000000	0.057500 
492.000000	0.058900 
491.000000	0.060120 
490.000000	0.061650 
489.000000	0.062950 
488.000000	0.064380 
487.000000	0.065840 
486.000000	0.067160 
485.000000	0.068730 
484.000000	0.070160 
483.000000	0.071850 
482.000000	0.073520 
481.000000	0.075270 
480.000000	0.076900 
479.000000	0.078690 
478.000000	0.080350 
477.000000	0.082129 
476.000000	0.083980 
475.000000	0.085850 
474.000000	0.087880 
473.000000	0.089770 
472.000000	0.091920 
471.000000	0.094120 
470.000000	0.096199 
469.000000	0.098390 
468.000000	0.100580 
467.000000	0.102730 
466.000000	0.105130 
465.000000	0.107440 
464.000000	0.109810 
463.000000	0.112350 
462.000000	0.114870 
461.000000	0.117250 
460.000000	0.119680 
459.000000	0.122330 
458.000000	0.124990 
457.000000	0.127540 
456.000000	0.130270 
455.000000	0.132950 
454.000000	0.135760 
453.000000	0.138630 
452.000000	0.141550 
451.000000	0.144380 
450.000000	0.147280 
449.000000	0.150230 
448.000000	0.153060 
447.000000	0.156000 
446.000000	0.158910 
445.000000	0.161950 
444.000000	0.165170 
443.000000	0.168360 
442.000000	0.171480 
441.000000	0.174450 
440.000000	0.177360 
439.000000	0.180410 
438.000000	0.183400 
437.000000	0.186480 
436.000000	0.189490 
435.000000	0.192670 
434.000000	0.195600 
433.000000	0.198640 
432.000000	0.201530 
431.000000	0.204370 
430.000000	0.207050 
429.000000	0.209840 
428.000000	0.212610 
427.000000	0.215320 
426.000000	0.218160 
425.000000	0.220800 
424.000000	0.223460 
423.000000	0.226030 
422.000000	0.228590 
421.000000	0.231050 
420.000000	0.233450 
419.000000	0.235810 
418.000000	0.238290 
417.000000	0.240680 
416.000000	0.243090 
415.000000	0.245530 
414.000000	0.247860 
413.000000	0.250300 
412.000000	0.252560 
411.000000	0.254860 
410.000000	0.256950 
409.000000	0.259260 
408.000000	0.261630 
407.000000	0.263770 
406.000000	0.265920 
405.000000	0.268150 
404.000000	0.269980 
403.000000	0.272000 
402.000000	0.273950 
401.000000	0.276110 
400.000000	0.278080 
399.000000	0.280030 
398.000000	0.281860 
397.000000	0.283960 
396.000000	0.285890 
395.000000	0.287790 
394.000000	0.289610 
393.000000	0.291550 
392.000000	0.293300 
391.000000	0.295130 
390.000000	0.296790 
389.000000	0.298740 
388.000000	0.300570 
387.000000	0.302520 
386.000000	0.304300 
385.000000	0.306110 
384.000000	0.309810 
383.000000	0.323070 
382.000000	0.324540 
381.000000	0.327320 
380.000000	0.329740 
379.000000	0.331900 
378.000000	0.334520 
377.000000	0.336900 
376.000000	0.339700 
375.000000	0.341990 
374.000000	0.344730 
373.000000	0.347060 
372.000000	0.349620 
371.000000	0.352100 
370.000000	0.354600 
369.000000	0.356960 
368.000000	0.359860 
367.000000	0.362500 
366.000000	0.365140 
365.000000	0.367960 
364.000000	0.370680 
363.000000	0.373400 
362.000000	0.376150 
361.000000	0.379060 
360.000000	0.381840 
359.000000	0.384780 
358.000000	0.387630 
357.000000	0.390820 
356.000000	0.393880 
355.000000	0.397080 
354.000000	0.400030 
353.000000	0.403300 
352.000000	0.406510 
351.000000	0.409700 
350.000000	0.412840 
349.000000	0.416410 
348.000000	0.419940 
347.000000	0.423550 
346.000000	0.426950 
345.000000	0.430180 
344.000000	0.433800 
343.000000	0.437120 
342.000000	0.440450 
341.000000	0.444570 
340.000000	0.448030 
339.000000	0.451510 
338.000000	0.455020 
337.000000	0.458870 
336.000000	0.462400 
335.000000	0.466090 
334.000000	0.469760 
333.000000	0.473490 
332.000000	0.477440 
331.000000	0.481570 
330.000000	0.485590 
329.000000	0.489720 
328.000000	0.493870 
327.000000	0.498490 
326.000000	0.502700 
325.000000	0.507160 
324.000000	0.511400 
323.000000	0.515840 
322.000000	0.520660 
321.000000	0.525580 
320.000000	0.530630 
319.000000	0.535640 
318.000000	0.540060 
317.000000	0.545849 
316.000000	0.550960 
315.000000	0.556160 
314.000000	0.561540 
313.000000	0.566620 
312.000000	0.572650 
311.000000	0.578180 
310.000000	0.583400 
309.000000	0.589960 
308.000000	0.595570 
307.000000	0.601700 
306.000000	0.607450 
305.000000	0.613630 
304.000000	0.619850 
303.000000	0.626100 
302.000000	0.632210 
301.000000	0.639870 
300.000000	0.646720 

