PE UV                   SPECTRUM    ASCII       PEDS        1.60        
  -1
23MS201.SP
24/09/02
16:34:00.00
24/09/02
16:35:21.00


400.000000
1









4444

SCAN
1
1


0.0
480.0
2.00
MANUAL



UV/VIS




































#HDR
-1
-1
#GR
NM
A
0.00000011920928955078
0.0
700.000000
1.000000
301
8
0.492410
0.004660
#DATA
700.000000	0.004660 
699.000000	0.004740 
698.000000	0.004760 
697.000000	0.004770 
696.000000	0.004690 
695.000000	0.004870 
694.000000	0.004820 
693.000000	0.004770 
692.000000	0.004810 
691.000000	0.004890 
690.000000	0.004800 
689.000000	0.004790 
688.000000	0.004830 
687.000000	0.004800 
686.000000	0.004900 
685.000000	0.004880 
684.000000	0.004960 
683.000000	0.005030 
682.000000	0.004950 
681.000000	0.004890 
680.000000	0.004980 
679.000000	0.004930 
678.000000	0.005000 
677.000000	0.005020 
676.000000	0.005050 
675.000000	0.005120 
674.000000	0.005270 
673.000000	0.005330 
672.000000	0.005310 
671.000000	0.005100 
670.000000	0.005370 
669.000000	0.005320 
668.000000	0.005350 
667.000000	0.005450 
666.000000	0.005450 
665.000000	0.005490 
664.000000	0.005540 
663.000000	0.005540 
662.000000	0.005680 
661.000000	0.005700 
660.000000	0.005700 
659.000000	0.005770 
658.000000	0.005630 
657.000000	0.005830 
656.000000	0.005810 
655.000000	0.005910 
654.000000	0.006030 
653.000000	0.006070 
652.000000	0.006170 
651.000000	0.006160 
650.000000	0.006080 
649.000000	0.006110 
648.000000	0.006260 
647.000000	0.006390 
646.000000	0.006360 
645.000000	0.006400 
644.000000	0.006540 
643.000000	0.006660 
642.000000	0.006750 
641.000000	0.006810 
640.000000	0.006820 
639.000000	0.006950 
638.000000	0.006990 
637.000000	0.007110 
636.000000	0.007200 
635.000000	0.007230 
634.000000	0.006940 
633.000000	0.007610 
632.000000	0.007320 
631.000000	0.007560 
630.000000	0.007770 
629.000000	0.009910 
628.000000	0.008200 
627.000000	0.007800 
626.000000	0.008120 
625.000000	0.008319 
624.000000	0.008510 
623.000000	0.008740 
622.000000	0.008750 
621.000000	0.008930 
620.000000	0.009060 
619.000000	0.009240 
618.000000	0.009530 
617.000000	0.009719 
616.000000	0.009860 
615.000000	0.010200 
614.000000	0.010360 
613.000000	0.010470 
612.000000	0.010610 
611.000000	0.010990 
610.000000	0.011320 
609.000000	0.011480 
608.000000	0.011730 
607.000000	0.012180 
606.000000	0.012400 
605.000000	0.012810 
604.000000	0.013150 
603.000000	0.013470 
602.000000	0.013920 
601.000000	0.014410 
600.000000	0.014770 
599.000000	0.015150 
598.000000	0.015740 
597.000000	0.016360 
596.000000	0.016810 
595.000000	0.017350 
594.000000	0.018040 
593.000000	0.018650 
592.000000	0.019410 
591.000000	0.020160 
590.000000	0.020970 
589.000000	0.021820 
588.000000	0.022760 
587.000000	0.023730 
586.000000	0.024730 
585.000000	0.025720 
584.000000	0.026880 
583.000000	0.028060 
582.000000	0.029120 
581.000000	0.030400 
580.000000	0.031720 
579.000000	0.033190 
578.000000	0.034550 
577.000000	0.036100 
576.000000	0.037700 
575.000000	0.039380 
574.000000	0.041150 
573.000000	0.043010 
572.000000	0.044950 
571.000000	0.046970 
570.000000	0.049140 
569.000000	0.051540 
568.000000	0.053730 
567.000000	0.056110 
566.000000	0.058560 
565.000000	0.061240 
564.000000	0.063970 
563.000000	0.066830 
562.000000	0.069920 
561.000000	0.073400 
560.000000	0.076580 
559.000000	0.080110 
558.000000	0.084200 
557.000000	0.087820 
556.000000	0.091610 
555.000000	0.095490 
554.000000	0.099360 
553.000000	0.103450 
552.000000	0.107510 
551.000000	0.111600 
550.000000	0.116000 
549.000000	0.120630 
548.000000	0.125270 
547.000000	0.129800 
546.000000	0.134200 
545.000000	0.138960 
544.000000	0.143790 
543.000000	0.149090 
542.000000	0.154080 
541.000000	0.159420 
540.000000	0.164730 
539.000000	0.170070 
538.000000	0.175290 
537.000000	0.180710 
536.000000	0.186090 
535.000000	0.191640 
534.000000	0.197300 
533.000000	0.203250 
532.000000	0.209090 
531.000000	0.215010 
530.000000	0.221000 
529.000000	0.226790 
528.000000	0.232450 
527.000000	0.238090 
526.000000	0.243940 
525.000000	0.249530 
524.000000	0.255290 
523.000000	0.260750 
522.000000	0.266430 
521.000000	0.271760 
520.000000	0.277350 
519.000000	0.282520 
518.000000	0.287430 
517.000000	0.292260 
516.000000	0.297130 
515.000000	0.301920 
514.000000	0.306700 
513.000000	0.311330 
512.000000	0.315980 
511.000000	0.320380 
510.000000	0.324370 
509.000000	0.328270 
508.000000	0.331980 
507.000000	0.335540 
506.000000	0.339090 
505.000000	0.342430 
504.000000	0.345640 
503.000000	0.348760 
502.000000	0.351380 
501.000000	0.353900 
500.000000	0.356160 
499.000000	0.358340 
498.000000	0.359850 
497.000000	0.361590 
496.000000	0.363110 
495.000000	0.364040 
494.000000	0.365040 
493.000000	0.365550 
492.000000	0.366040 
491.000000	0.366290 
490.000000	0.365970 
489.000000	0.365870 
488.000000	0.365340 
487.000000	0.364590 
486.000000	0.363470 
485.000000	0.362340 
484.000000	0.360650 
483.000000	0.359000 
482.000000	0.357060 
481.000000	0.355180 
480.000000	0.353100 
479.000000	0.350560 
478.000000	0.348040 
477.000000	0.345240 
476.000000	0.342070 
475.000000	0.339070 
474.000000	0.335070 
473.000000	0.331910 
472.000000	0.328070 
471.000000	0.324220 
470.000000	0.320140 
469.000000	0.316100 
468.000000	0.311880 
467.000000	0.307430 
466.000000	0.302960 
465.000000	0.298110 
464.000000	0.293540 
463.000000	0.288860 
462.000000	0.284240 
461.000000	0.279390 
460.000000	0.274940 
459.000000	0.270200 
458.000000	0.265490 
457.000000	0.260630 
456.000000	0.255760 
455.000000	0.250500 
454.000000	0.245810 
453.000000	0.241170 
452.000000	0.236510 
451.000000	0.232030 
450.000000	0.227310 
449.000000	0.222980 
448.000000	0.218450 
447.000000	0.214230 
446.000000	0.210020 
445.000000	0.205850 
444.000000	0.202010 
443.000000	0.198230 
442.000000	0.194630 
441.000000	0.191430 
440.000000	0.188520 
439.000000	0.185710 
438.000000	0.182890 
437.000000	0.180800 
436.000000	0.178560 
435.000000	0.177030 
434.000000	0.175510 
433.000000	0.175030 
432.000000	0.174230 
431.000000	0.174250 
430.000000	0.174470 
429.000000	0.175130 
428.000000	0.176220 
427.000000	0.177970 
426.000000	0.179810 
425.000000	0.182820 
424.000000	0.186080 
423.000000	0.189970 
422.000000	0.194200 
421.000000	0.199750 
420.000000	0.205430 
419.000000	0.211820 
418.000000	0.219270 
417.000000	0.227330 
416.000000	0.236390 
415.000000	0.245970 
414.000000	0.256540 
413.000000	0.267450 
412.000000	0.279390 
411.000000	0.292250 
410.000000	0.306510 
409.000000	0.321930 
408.000000	0.338450 
407.000000	0.355640 
406.000000	0.373240 
405.000000	0.391330 
404.000000	0.409830 
403.000000	0.429200 
402.000000	0.449240 
401.000000	0.470110 
400.000000	0.492410 

