PE UV                   SPECTRUM    ASCII       PEDS        1.60        
  -1
23MS195.SP
24/08/30
17:29:47.00
24/08/30
17:31:33.00


400.000000
1









4444

SCAN
1
1


0.0
480.0
2.00
MANUAL



UV/VIS




































#HDR
-1
-1
#GR
NM
A
0.00000011920928955078
0.0
700.000000
1.000000
301
8
0.307020
0.024460
#DATA
700.000000	0.024460 
699.000000	0.024470 
698.000000	0.024580 
697.000000	0.024690 
696.000000	0.024610 
695.000000	0.024690 
694.000000	0.024710 
693.000000	0.024730 
692.000000	0.024780 
691.000000	0.024900 
690.000000	0.024950 
689.000000	0.024970 
688.000000	0.025060 
687.000000	0.025160 
686.000000	0.025000 
685.000000	0.028560 
684.000000	0.036480 
683.000000	0.035810 
682.000000	0.035760 
681.000000	0.035550 
680.000000	0.035400 
679.000000	0.035260 
678.000000	0.035140 
677.000000	0.035020 
676.000000	0.035030 
675.000000	0.034800 
674.000000	0.034740 
673.000000	0.034600 
672.000000	0.034490 
671.000000	0.034580 
670.000000	0.034500 
669.000000	0.034350 
668.000000	0.034230 
667.000000	0.034260 
666.000000	0.034160 
665.000000	0.034140 
664.000000	0.034080 
663.000000	0.034040 
662.000000	0.033970 
661.000000	0.033990 
660.000000	0.033820 
659.000000	0.033740 
658.000000	0.033830 
657.000000	0.033770 
656.000000	0.033760 
655.000000	0.033730 
654.000000	0.033630 
653.000000	0.033680 
652.000000	0.033570 
651.000000	0.033670 
650.000000	0.033490 
649.000000	0.033530 
648.000000	0.033580 
647.000000	0.033620 
646.000000	0.033570 
645.000000	0.033570 
644.000000	0.033600 
643.000000	0.033520 
642.000000	0.033470 
641.000000	0.033490 
640.000000	0.033560 
639.000000	0.033470 
638.000000	0.033560 
637.000000	0.033560 
636.000000	0.033580 
635.000000	0.033680 
634.000000	0.033750 
633.000000	0.033830 
632.000000	0.033860 
631.000000	0.033970 
630.000000	0.034070 
629.000000	0.034070 
628.000000	0.034160 
627.000000	0.034180 
626.000000	0.034390 
625.000000	0.034460 
624.000000	0.034520 
623.000000	0.034730 
622.000000	0.034840 
621.000000	0.034930 
620.000000	0.035150 
619.000000	0.035270 
618.000000	0.035490 
617.000000	0.035700 
616.000000	0.035880 
615.000000	0.036110 
614.000000	0.036340 
613.000000	0.036560 
612.000000	0.036730 
611.000000	0.037000 
610.000000	0.037250 
609.000000	0.037630 
608.000000	0.037860 
607.000000	0.038190 
606.000000	0.038580 
605.000000	0.038890 
604.000000	0.039250 
603.000000	0.039620 
602.000000	0.039970 
601.000000	0.040430 
600.000000	0.040870 
599.000000	0.041190 
598.000000	0.041700 
597.000000	0.042120 
596.000000	0.042610 
595.000000	0.043160 
594.000000	0.043630 
593.000000	0.044060 
592.000000	0.044610 
591.000000	0.045160 
590.000000	0.045750 
589.000000	0.046170 
588.000000	0.046930 
587.000000	0.047550 
586.000000	0.048250 
585.000000	0.048900 
584.000000	0.049620 
583.000000	0.050230 
582.000000	0.050910 
581.000000	0.051650 
580.000000	0.052290 
579.000000	0.053080 
578.000000	0.053850 
577.000000	0.054740 
576.000000	0.055580 
575.000000	0.056530 
574.000000	0.057370 
573.000000	0.058320 
572.000000	0.059250 
571.000000	0.060240 
570.000000	0.061230 
569.000000	0.062290 
568.000000	0.063479 
567.000000	0.064620 
566.000000	0.065879 
565.000000	0.067169 
564.000000	0.068450 
563.000000	0.069850 
562.000000	0.071179 
561.000000	0.072470 
560.000000	0.077770 
559.000000	0.081540 
558.000000	0.082720 
557.000000	0.084050 
556.000000	0.085440 
555.000000	0.086880 
554.000000	0.088310 
553.000000	0.089800 
552.000000	0.091350 
551.000000	0.092790 
550.000000	0.094200 
549.000000	0.095780 
548.000000	0.097550 
547.000000	0.099130 
546.000000	0.100690 
545.000000	0.102490 
544.000000	0.104310 
543.000000	0.106120 
542.000000	0.107850 
541.000000	0.109590 
540.000000	0.111410 
539.000000	0.113340 
538.000000	0.115190 
537.000000	0.117100 
536.000000	0.119020 
535.000000	0.120960 
534.000000	0.122840 
533.000000	0.124810 
532.000000	0.126750 
531.000000	0.128700 
530.000000	0.130730 
529.000000	0.132690 
528.000000	0.134810 
527.000000	0.136800 
526.000000	0.138890 
525.000000	0.140770 
524.000000	0.142670 
523.000000	0.144710 
522.000000	0.146440 
521.000000	0.148380 
520.000000	0.150350 
519.000000	0.151990 
518.000000	0.153860 
517.000000	0.155760 
516.000000	0.157550 
515.000000	0.159120 
514.000000	0.160810 
513.000000	0.162470 
512.000000	0.164120 
511.000000	0.165750 
510.000000	0.167550 
509.000000	0.168950 
508.000000	0.170520 
507.000000	0.171990 
506.000000	0.173290 
505.000000	0.174640 
504.000000	0.176140 
503.000000	0.177190 
502.000000	0.178500 
501.000000	0.179640 
500.000000	0.180840 
499.000000	0.181940 
498.000000	0.182820 
497.000000	0.183750 
496.000000	0.184830 
495.000000	0.185710 
494.000000	0.186290 
493.000000	0.187120 
492.000000	0.187800 
491.000000	0.188490 
490.000000	0.188900 
489.000000	0.189490 
488.000000	0.189910 
487.000000	0.190090 
486.000000	0.190490 
485.000000	0.190680 
484.000000	0.191030 
483.000000	0.191030 
482.000000	0.191240 
481.000000	0.191220 
480.000000	0.191380 
479.000000	0.191380 
478.000000	0.191400 
477.000000	0.191390 
476.000000	0.191350 
475.000000	0.191050 
474.000000	0.190670 
473.000000	0.190630 
472.000000	0.190290 
471.000000	0.189930 
470.000000	0.189650 
469.000000	0.189510 
468.000000	0.188930 
467.000000	0.188870 
466.000000	0.188410 
465.000000	0.188170 
464.000000	0.188030 
463.000000	0.187440 
462.000000	0.187070 
461.000000	0.186670 
460.000000	0.186410 
459.000000	0.186140 
458.000000	0.185850 
457.000000	0.185680 
456.000000	0.185460 
455.000000	0.185250 
454.000000	0.185090 
453.000000	0.184730 
452.000000	0.184930 
451.000000	0.184970 
450.000000	0.185100 
449.000000	0.185610 
448.000000	0.185690 
447.000000	0.185690 
446.000000	0.185950 
445.000000	0.186310 
444.000000	0.186830 
443.000000	0.187380 
442.000000	0.188450 
441.000000	0.190030 
440.000000	0.190700 
439.000000	0.192270 
438.000000	0.193940 
437.000000	0.195660 
436.000000	0.197440 
435.000000	0.199600 
434.000000	0.202030 
433.000000	0.204500 
432.000000	0.207160 
431.000000	0.209920 
430.000000	0.213150 
429.000000	0.216440 
428.000000	0.220170 
427.000000	0.224180 
426.000000	0.228760 
425.000000	0.234060 
424.000000	0.239400 
423.000000	0.245160 
422.000000	0.256580 
421.000000	0.179460 
420.000000	0.158180 
419.000000	0.163680 
418.000000	0.167890 
417.000000	0.172680 
416.000000	0.177770 
415.000000	0.183270 
414.000000	0.189230 
413.000000	0.195450 
412.000000	0.202050 
411.000000	0.208860 
410.000000	0.216070 
409.000000	0.223730 
408.000000	0.231630 
407.000000	0.239990 
406.000000	0.248820 
405.000000	0.257590 
404.000000	0.266780 
403.000000	0.276450 
402.000000	0.286060 
401.000000	0.296620 
400.000000	0.307020 

