PE UV                   SPECTRUM    ASCII       PEDS        1.60        
  -1
23MS240.SP
24/09/02
16:44:45.00
24/09/02
16:46:29.00


400.000000
1









4444

SCAN
1
1


0.0
480.0
2.00
MANUAL



UV/VIS




































#HDR
-1
-1
#GR
NM
A
0.00000011920928955078
0.0
700.000000
1.000000
301
8
1.210880
0.065320
#DATA
700.000000	0.065320 
699.000000	0.065699 
698.000000	0.065590 
697.000000	0.065770 
696.000000	0.066160 
695.000000	0.066390 
694.000000	0.066440 
693.000000	0.066620 
692.000000	0.066870 
691.000000	0.067220 
690.000000	0.067330 
689.000000	0.067580 
688.000000	0.067860 
687.000000	0.068000 
686.000000	0.068340 
685.000000	0.068529 
684.000000	0.069000 
683.000000	0.069459 
682.000000	0.069650 
681.000000	0.069900 
680.000000	0.070190 
679.000000	0.070400 
678.000000	0.070860 
677.000000	0.071030 
676.000000	0.071380 
675.000000	0.071710 
674.000000	0.071929 
673.000000	0.072130 
672.000000	0.072320 
671.000000	0.072570 
670.000000	0.072940 
669.000000	0.073289 
668.000000	0.073500 
667.000000	0.073880 
666.000000	0.074100 
665.000000	0.074289 
664.000000	0.074620 
663.000000	0.074880 
662.000000	0.075329 
661.000000	0.075670 
660.000000	0.075970 
659.000000	0.076270 
658.000000	0.076509 
657.000000	0.076799 
656.000000	0.077140 
655.000000	0.077479 
654.000000	0.077780 
653.000000	0.078140 
652.000000	0.078440 
651.000000	0.078800 
650.000000	0.079070 
649.000000	0.079490 
648.000000	0.079750 
647.000000	0.080210 
646.000000	0.080470 
645.000000	0.080879 
644.000000	0.081280 
643.000000	0.081610 
642.000000	0.082090 
641.000000	0.082500 
640.000000	0.082780 
639.000000	0.083200 
638.000000	0.083580 
637.000000	0.084029 
636.000000	0.084490 
635.000000	0.084880 
634.000000	0.085279 
633.000000	0.085770 
632.000000	0.086290 
631.000000	0.086760 
630.000000	0.087220 
629.000000	0.087690 
628.000000	0.088210 
627.000000	0.088660 
626.000000	0.089210 
625.000000	0.089850 
624.000000	0.090509 
623.000000	0.091120 
622.000000	0.091670 
621.000000	0.092310 
620.000000	0.092950 
619.000000	0.093619 
618.000000	0.094299 
617.000000	0.095030 
616.000000	0.095880 
615.000000	0.096650 
614.000000	0.097540 
613.000000	0.098370 
612.000000	0.099190 
611.000000	0.100070 
610.000000	0.101080 
609.000000	0.101880 
608.000000	0.102880 
607.000000	0.103990 
606.000000	0.105040 
605.000000	0.106160 
604.000000	0.107450 
603.000000	0.108650 
602.000000	0.109880 
601.000000	0.111270 
600.000000	0.112530 
599.000000	0.114010 
598.000000	0.115320 
597.000000	0.117030 
596.000000	0.118760 
595.000000	0.120440 
594.000000	0.122270 
593.000000	0.124290 
592.000000	0.126300 
591.000000	0.128310 
590.000000	0.130430 
589.000000	0.132690 
588.000000	0.135010 
587.000000	0.137660 
586.000000	0.140510 
585.000000	0.143250 
584.000000	0.146100 
583.000000	0.148900 
582.000000	0.151900 
581.000000	0.154870 
580.000000	0.158070 
579.000000	0.161550 
578.000000	0.164980 
577.000000	0.168740 
576.000000	0.172670 
575.000000	0.176660 
574.000000	0.180870 
573.000000	0.185080 
572.000000	0.189450 
571.000000	0.193950 
570.000000	0.198700 
569.000000	0.203670 
568.000000	0.208870 
567.000000	0.214240 
566.000000	0.219960 
565.000000	0.225690 
564.000000	0.231790 
563.000000	0.237850 
562.000000	0.244100 
561.000000	0.250850 
560.000000	0.257570 
559.000000	0.264820 
558.000000	0.272920 
557.000000	0.280920 
556.000000	0.288960 
555.000000	0.296880 
554.000000	0.304690 
553.000000	0.312710 
552.000000	0.320880 
551.000000	0.329300 
550.000000	0.337820 
549.000000	0.347100 
548.000000	0.356400 
547.000000	0.365520 
546.000000	0.374390 
545.000000	0.384200 
544.000000	0.393640 
543.000000	0.403300 
542.000000	0.412980 
541.000000	0.422880 
540.000000	0.433150 
539.000000	0.443550 
538.000000	0.454190 
537.000000	0.465020 
536.000000	0.475600 
535.000000	0.486330 
534.000000	0.496830 
533.000000	0.507440 
532.000000	0.518280 
531.000000	0.529270 
530.000000	0.540310 
529.000000	0.551550 
528.000000	0.562950 
527.000000	0.573650 
526.000000	0.584610 
525.000000	0.595050 
524.000000	0.605460 
523.000000	0.615730 
522.000000	0.625669 
521.000000	0.635900 
520.000000	0.646380 
519.000000	0.655919 
518.000000	0.665420 
517.000000	0.674500 
516.000000	0.683590 
515.000000	0.692150 
514.000000	0.700840 
513.000000	0.709090 
512.000000	0.717080 
511.000000	0.725350 
510.000000	0.732980 
509.000000	0.740470 
508.000000	0.747700 
507.000000	0.754109 
506.000000	0.760280 
505.000000	0.766530 
504.000000	0.771930 
503.000000	0.777650 
502.000000	0.782470 
501.000000	0.787340 
500.000000	0.791560 
499.000000	0.795610 
498.000000	0.798670 
497.000000	0.801970 
496.000000	0.804500 
495.000000	0.806600 
494.000000	0.808330 
493.000000	0.809880 
492.000000	0.810710 
491.000000	0.811600 
490.000000	0.810710 
489.000000	0.810800 
488.000000	0.810250 
487.000000	0.809210 
486.000000	0.807180 
485.000000	0.805710 
484.000000	0.803540 
483.000000	0.801030 
482.000000	0.797270 
481.000000	0.794730 
480.000000	0.790910 
479.000000	0.786530 
478.000000	0.782470 
477.000000	0.777950 
476.000000	0.772600 
475.000000	0.767870 
474.000000	0.761610 
473.000000	0.756270 
472.000000	0.749740 
471.000000	0.743180 
470.000000	0.736760 
469.000000	0.729820 
468.000000	0.722750 
467.000000	0.715450 
466.000000	0.707790 
465.000000	0.700940 
464.000000	0.692790 
463.000000	0.685020 
462.000000	0.677400 
461.000000	0.670050 
460.000000	0.662330 
459.000000	0.654470 
458.000000	0.646550 
457.000000	0.639379 
456.000000	0.631880 
455.000000	0.624610 
454.000000	0.616600 
453.000000	0.608790 
452.000000	0.601670 
451.000000	0.594390 
450.000000	0.586750 
449.000000	0.580420 
448.000000	0.574300 
447.000000	0.568090 
446.000000	0.561940 
445.000000	0.556170 
444.000000	0.550400 
443.000000	0.545600 
442.000000	0.540370 
441.000000	0.536460 
440.000000	0.532660 
439.000000	0.529699 
438.000000	0.527380 
437.000000	0.525450 
436.000000	0.523730 
435.000000	0.523240 
434.000000	0.522530 
433.000000	0.523780 
432.000000	0.525400 
431.000000	0.527640 
430.000000	0.530220 
429.000000	0.534350 
428.000000	0.539470 
427.000000	0.545210 
426.000000	0.551450 
425.000000	0.559750 
424.000000	0.569530 
423.000000	0.580190 
422.000000	0.592470 
421.000000	0.606750 
420.000000	0.620770 
419.000000	0.635880 
418.000000	0.652450 
417.000000	0.670900 
416.000000	0.691020 
415.000000	0.713130 
414.000000	0.736920 
413.000000	0.762070 
412.000000	0.788990 
411.000000	0.817050 
410.000000	0.846870 
409.000000	0.878290 
408.000000	0.911550 
407.000000	0.946560 
406.000000	0.982070 
405.000000	1.018980 
404.000000	1.056100 
403.000000	1.093890 
402.000000	1.131500 
401.000000	1.171930 
400.000000	1.210880 

