PE UV                   SPECTRUM    ASCII       PEDS        1.60        
  -1
23MS188.SP
24/08/30
17:32:34.00
24/08/30
17:33:52.00


400.000000
1









4444

SCAN
1
1


0.0
480.0
2.00
MANUAL



UV/VIS




































#HDR
-1
-1
#GR
NM
A
0.00000011920928955078
0.0
700.000000
1.000000
301
8
0.275630
0.031950
#DATA
700.000000	0.031950 
699.000000	0.032030 
698.000000	0.032120 
697.000000	0.032140 
696.000000	0.032080 
695.000000	0.032110 
694.000000	0.032130 
693.000000	0.032070 
692.000000	0.032280 
691.000000	0.032340 
690.000000	0.032440 
689.000000	0.032350 
688.000000	0.032410 
687.000000	0.032450 
686.000000	0.032260 
685.000000	0.035960 
684.000000	0.044460 
683.000000	0.043710 
682.000000	0.043480 
681.000000	0.043300 
680.000000	0.043130 
679.000000	0.042930 
678.000000	0.042710 
677.000000	0.042670 
676.000000	0.042610 
675.000000	0.042350 
674.000000	0.042270 
673.000000	0.042150 
672.000000	0.042020 
671.000000	0.042010 
670.000000	0.041780 
669.000000	0.041860 
668.000000	0.041650 
667.000000	0.041690 
666.000000	0.041550 
665.000000	0.041470 
664.000000	0.041380 
663.000000	0.041330 
662.000000	0.041270 
661.000000	0.041280 
660.000000	0.041210 
659.000000	0.041040 
658.000000	0.040940 
657.000000	0.040950 
656.000000	0.040820 
655.000000	0.040800 
654.000000	0.040700 
653.000000	0.040650 
652.000000	0.040470 
651.000000	0.040600 
650.000000	0.040490 
649.000000	0.040360 
648.000000	0.040410 
647.000000	0.040420 
646.000000	0.040330 
645.000000	0.040180 
644.000000	0.040200 
643.000000	0.040140 
642.000000	0.040150 
641.000000	0.040050 
640.000000	0.040110 
639.000000	0.040090 
638.000000	0.040110 
637.000000	0.039960 
636.000000	0.040070 
635.000000	0.040100 
634.000000	0.040050 
633.000000	0.040120 
632.000000	0.040170 
631.000000	0.040150 
630.000000	0.040190 
629.000000	0.040140 
628.000000	0.040240 
627.000000	0.040360 
626.000000	0.040420 
625.000000	0.040440 
624.000000	0.040490 
623.000000	0.040610 
622.000000	0.040650 
621.000000	0.040730 
620.000000	0.040870 
619.000000	0.040890 
618.000000	0.041130 
617.000000	0.041180 
616.000000	0.041310 
615.000000	0.041410 
614.000000	0.041610 
613.000000	0.041700 
612.000000	0.041890 
611.000000	0.041980 
610.000000	0.042210 
609.000000	0.042400 
608.000000	0.042570 
607.000000	0.042750 
606.000000	0.043040 
605.000000	0.043240 
604.000000	0.043460 
603.000000	0.043720 
602.000000	0.043950 
601.000000	0.044280 
600.000000	0.044570 
599.000000	0.044910 
598.000000	0.045250 
597.000000	0.045630 
596.000000	0.045940 
595.000000	0.046240 
594.000000	0.046640 
593.000000	0.047000 
592.000000	0.047370 
591.000000	0.047800 
590.000000	0.048230 
589.000000	0.048660 
588.000000	0.049190 
587.000000	0.049690 
586.000000	0.050280 
585.000000	0.050740 
584.000000	0.051340 
583.000000	0.051910 
582.000000	0.052440 
581.000000	0.053090 
580.000000	0.053670 
579.000000	0.054250 
578.000000	0.055080 
577.000000	0.055700 
576.000000	0.056610 
575.000000	0.057480 
574.000000	0.058230 
573.000000	0.059190 
572.000000	0.060090 
571.000000	0.061060 
570.000000	0.062070 
569.000000	0.063089 
568.000000	0.064250 
567.000000	0.065400 
566.000000	0.066660 
565.000000	0.067919 
564.000000	0.069300 
563.000000	0.070720 
562.000000	0.072109 
561.000000	0.073430 
560.000000	0.078420 
559.000000	0.081879 
558.000000	0.083120 
557.000000	0.084670 
556.000000	0.086200 
555.000000	0.087810 
554.000000	0.089469 
553.000000	0.091110 
552.000000	0.092890 
551.000000	0.094550 
550.000000	0.096250 
549.000000	0.098180 
548.000000	0.100180 
547.000000	0.102040 
546.000000	0.103960 
545.000000	0.105960 
544.000000	0.107990 
543.000000	0.110240 
542.000000	0.112380 
541.000000	0.114580 
540.000000	0.116810 
539.000000	0.119160 
538.000000	0.121450 
537.000000	0.123650 
536.000000	0.125980 
535.000000	0.128270 
534.000000	0.130730 
533.000000	0.133210 
532.000000	0.135700 
531.000000	0.138280 
530.000000	0.140810 
529.000000	0.143300 
528.000000	0.145750 
527.000000	0.148200 
526.000000	0.150770 
525.000000	0.153340 
524.000000	0.155790 
523.000000	0.158260 
522.000000	0.160680 
521.000000	0.163080 
520.000000	0.165550 
519.000000	0.167720 
518.000000	0.170090 
517.000000	0.172330 
516.000000	0.174620 
515.000000	0.176750 
514.000000	0.179110 
513.000000	0.181430 
512.000000	0.183570 
511.000000	0.185540 
510.000000	0.187570 
509.000000	0.189370 
508.000000	0.191270 
507.000000	0.193090 
506.000000	0.194690 
505.000000	0.196640 
504.000000	0.198380 
503.000000	0.199860 
502.000000	0.201430 
501.000000	0.202850 
500.000000	0.204260 
499.000000	0.205600 
498.000000	0.206680 
497.000000	0.207760 
496.000000	0.208960 
495.000000	0.209890 
494.000000	0.210800 
493.000000	0.211660 
492.000000	0.212520 
491.000000	0.213070 
490.000000	0.213500 
489.000000	0.214000 
488.000000	0.214300 
487.000000	0.214700 
486.000000	0.214900 
485.000000	0.215040 
484.000000	0.215420 
483.000000	0.215090 
482.000000	0.215230 
481.000000	0.215040 
480.000000	0.214820 
479.000000	0.214570 
478.000000	0.214260 
477.000000	0.213960 
476.000000	0.213620 
475.000000	0.213010 
474.000000	0.212250 
473.000000	0.211770 
472.000000	0.210740 
471.000000	0.210010 
470.000000	0.209540 
469.000000	0.208760 
468.000000	0.207940 
467.000000	0.206810 
466.000000	0.205600 
465.000000	0.204730 
464.000000	0.203610 
463.000000	0.202500 
462.000000	0.201560 
461.000000	0.200580 
460.000000	0.199500 
459.000000	0.198400 
458.000000	0.197300 
457.000000	0.196620 
456.000000	0.195600 
455.000000	0.194810 
454.000000	0.193860 
453.000000	0.192900 
452.000000	0.192200 
451.000000	0.191330 
450.000000	0.190280 
449.000000	0.189480 
448.000000	0.188750 
447.000000	0.187600 
446.000000	0.187170 
445.000000	0.186600 
444.000000	0.186150 
443.000000	0.185710 
442.000000	0.185170 
441.000000	0.185120 
440.000000	0.185010 
439.000000	0.185000 
438.000000	0.185340 
437.000000	0.185510 
436.000000	0.186030 
435.000000	0.187050 
434.000000	0.188000 
433.000000	0.189180 
432.000000	0.190510 
431.000000	0.192160 
430.000000	0.194070 
429.000000	0.196040 
428.000000	0.198810 
427.000000	0.201230 
426.000000	0.204580 
425.000000	0.208360 
424.000000	0.212320 
423.000000	0.216310 
422.000000	0.225470 
421.000000	0.154690 
420.000000	0.134570 
419.000000	0.139070 
418.000000	0.142790 
417.000000	0.146910 
416.000000	0.151330 
415.000000	0.156030 
414.000000	0.161160 
413.000000	0.166440 
412.000000	0.172230 
411.000000	0.178490 
410.000000	0.185370 
409.000000	0.192780 
408.000000	0.200760 
407.000000	0.208830 
406.000000	0.217280 
405.000000	0.225940 
404.000000	0.235080 
403.000000	0.244610 
402.000000	0.254370 
401.000000	0.264680 
400.000000	0.275630 

