PE UV                   SPECTRUM    ASCII       PEDS        1.60        
  -1
23MS125.SP
24/08/30
17:38:09.00
24/08/30
17:39:41.00


400.000000
1









4444

SCAN
1
1


0.0
480.0
2.00
MANUAL



UV/VIS




































#HDR
-1
-1
#GR
NM
A
0.00000011920928955078
0.0
700.000000
1.000000
301
8
0.517460
0.020540
#DATA
700.000000	0.020540 
699.000000	0.020690 
698.000000	0.020720 
697.000000	0.020770 
696.000000	0.020740 
695.000000	0.020770 
694.000000	0.020770 
693.000000	0.020760 
692.000000	0.020870 
691.000000	0.020950 
690.000000	0.021100 
689.000000	0.021100 
688.000000	0.021150 
687.000000	0.021200 
686.000000	0.020980 
685.000000	0.024560 
684.000000	0.032870 
683.000000	0.032020 
682.000000	0.031990 
681.000000	0.031820 
680.000000	0.031810 
679.000000	0.031490 
678.000000	0.031280 
677.000000	0.031180 
676.000000	0.031220 
675.000000	0.031050 
674.000000	0.031030 
673.000000	0.030950 
672.000000	0.030810 
671.000000	0.030890 
670.000000	0.030790 
669.000000	0.030770 
668.000000	0.030660 
667.000000	0.030610 
666.000000	0.030460 
665.000000	0.030490 
664.000000	0.030400 
663.000000	0.030440 
662.000000	0.030390 
661.000000	0.030400 
660.000000	0.030320 
659.000000	0.030210 
658.000000	0.030250 
657.000000	0.030260 
656.000000	0.030180 
655.000000	0.030160 
654.000000	0.030120 
653.000000	0.030110 
652.000000	0.030050 
651.000000	0.030120 
650.000000	0.029970 
649.000000	0.029950 
648.000000	0.029960 
647.000000	0.030080 
646.000000	0.029990 
645.000000	0.030000 
644.000000	0.030040 
643.000000	0.029990 
642.000000	0.030100 
641.000000	0.030000 
640.000000	0.030030 
639.000000	0.030090 
638.000000	0.030080 
637.000000	0.030100 
636.000000	0.030230 
635.000000	0.030340 
634.000000	0.030340 
633.000000	0.030520 
632.000000	0.030570 
631.000000	0.030730 
630.000000	0.030790 
629.000000	0.030830 
628.000000	0.030990 
627.000000	0.031090 
626.000000	0.031340 
625.000000	0.031410 
624.000000	0.031500 
623.000000	0.031770 
622.000000	0.031920 
621.000000	0.031980 
620.000000	0.032200 
619.000000	0.032400 
618.000000	0.032680 
617.000000	0.032940 
616.000000	0.033070 
615.000000	0.033410 
614.000000	0.033730 
613.000000	0.034010 
612.000000	0.034350 
611.000000	0.034590 
610.000000	0.034930 
609.000000	0.035270 
608.000000	0.035660 
607.000000	0.035950 
606.000000	0.036390 
605.000000	0.036880 
604.000000	0.037320 
603.000000	0.037810 
602.000000	0.038340 
601.000000	0.038790 
600.000000	0.039390 
599.000000	0.039970 
598.000000	0.040650 
597.000000	0.041240 
596.000000	0.041960 
595.000000	0.042710 
594.000000	0.043410 
593.000000	0.044160 
592.000000	0.044930 
591.000000	0.045670 
590.000000	0.046670 
589.000000	0.047540 
588.000000	0.048490 
587.000000	0.049550 
586.000000	0.050680 
585.000000	0.051660 
584.000000	0.052870 
583.000000	0.054070 
582.000000	0.055160 
581.000000	0.056360 
580.000000	0.057640 
579.000000	0.059060 
578.000000	0.060480 
577.000000	0.061960 
576.000000	0.063580 
575.000000	0.065100 
574.000000	0.066880 
573.000000	0.068620 
572.000000	0.070420 
571.000000	0.072320 
570.000000	0.074380 
569.000000	0.076490 
568.000000	0.078729 
567.000000	0.080990 
566.000000	0.083570 
565.000000	0.085920 
564.000000	0.088450 
563.000000	0.090970 
562.000000	0.093890 
561.000000	0.096830 
560.000000	0.103900 
559.000000	0.109650 
558.000000	0.112410 
557.000000	0.115660 
556.000000	0.118920 
555.000000	0.122150 
554.000000	0.125520 
553.000000	0.128850 
552.000000	0.132430 
551.000000	0.136030 
550.000000	0.139570 
549.000000	0.143510 
548.000000	0.147510 
547.000000	0.151430 
546.000000	0.155240 
545.000000	0.159310 
544.000000	0.163420 
543.000000	0.167740 
542.000000	0.172130 
541.000000	0.176550 
540.000000	0.181150 
539.000000	0.185840 
538.000000	0.190350 
537.000000	0.195070 
536.000000	0.199600 
535.000000	0.204280 
534.000000	0.208940 
533.000000	0.213980 
532.000000	0.219040 
531.000000	0.224170 
530.000000	0.229320 
529.000000	0.234570 
528.000000	0.239570 
527.000000	0.244630 
526.000000	0.249600 
525.000000	0.254590 
524.000000	0.259470 
523.000000	0.264480 
522.000000	0.269260 
521.000000	0.274220 
520.000000	0.279220 
519.000000	0.283960 
518.000000	0.288400 
517.000000	0.293010 
516.000000	0.297480 
515.000000	0.301760 
514.000000	0.306130 
513.000000	0.310520 
512.000000	0.314960 
511.000000	0.319060 
510.000000	0.323310 
509.000000	0.327200 
508.000000	0.330990 
507.000000	0.334800 
506.000000	0.338070 
505.000000	0.341750 
504.000000	0.345170 
503.000000	0.348380 
502.000000	0.351460 
501.000000	0.354550 
500.000000	0.357460 
499.000000	0.360120 
498.000000	0.362480 
497.000000	0.364740 
496.000000	0.367310 
495.000000	0.369330 
494.000000	0.371110 
493.000000	0.372820 
492.000000	0.374370 
491.000000	0.375530 
490.000000	0.376380 
489.000000	0.377690 
488.000000	0.378200 
487.000000	0.378950 
486.000000	0.379380 
485.000000	0.379460 
484.000000	0.379950 
483.000000	0.379770 
482.000000	0.379530 
481.000000	0.378950 
480.000000	0.378410 
479.000000	0.378010 
478.000000	0.377010 
477.000000	0.375960 
476.000000	0.374900 
475.000000	0.373470 
474.000000	0.371630 
473.000000	0.370290 
472.000000	0.368380 
471.000000	0.366250 
470.000000	0.364470 
469.000000	0.362240 
468.000000	0.360010 
467.000000	0.357710 
466.000000	0.355100 
465.000000	0.352760 
464.000000	0.349970 
463.000000	0.347180 
462.000000	0.344610 
461.000000	0.342090 
460.000000	0.339360 
459.000000	0.336630 
458.000000	0.333700 
457.000000	0.331390 
456.000000	0.328410 
455.000000	0.325590 
454.000000	0.322900 
453.000000	0.319930 
452.000000	0.317430 
451.000000	0.315010 
450.000000	0.312280 
449.000000	0.309620 
448.000000	0.307420 
447.000000	0.304620 
446.000000	0.302390 
445.000000	0.300320 
444.000000	0.298580 
443.000000	0.296710 
442.000000	0.294740 
441.000000	0.293840 
440.000000	0.292540 
439.000000	0.291860 
438.000000	0.291230 
437.000000	0.290890 
436.000000	0.291310 
435.000000	0.291880 
434.000000	0.292470 
433.000000	0.293860 
432.000000	0.295720 
431.000000	0.297790 
430.000000	0.300660 
429.000000	0.303890 
428.000000	0.307690 
427.000000	0.312110 
426.000000	0.317170 
425.000000	0.323300 
424.000000	0.330130 
423.000000	0.337700 
422.000000	0.352090 
421.000000	0.258400 
420.000000	0.233460 
419.000000	0.241400 
418.000000	0.248140 
417.000000	0.256070 
416.000000	0.264640 
415.000000	0.273990 
414.000000	0.283940 
413.000000	0.294600 
412.000000	0.305930 
411.000000	0.318150 
410.000000	0.331620 
409.000000	0.346070 
408.000000	0.362030 
407.000000	0.378430 
406.000000	0.395730 
405.000000	0.413550 
404.000000	0.432310 
403.000000	0.451980 
402.000000	0.472240 
401.000000	0.494290 
400.000000	0.517460 

