PE UV                   SPECTRUM    ASCII       PEDS        1.60        
  -1
23MS263.SP
24/09/02
16:54:07.00
24/09/02
16:55:14.00


400.000000
1









4444

SCAN
1
1


0.0
480.0
2.00
MANUAL



UV/VIS




































#HDR
-1
-1
#GR
NM
A
0.00000011920928955078
0.0
700.000000
1.000000
301
8
0.579620
0.008359
#DATA
700.000000	0.008399 
699.000000	0.008529 
698.000000	0.008529 
697.000000	0.008390 
696.000000	0.008359 
695.000000	0.008650 
694.000000	0.008610 
693.000000	0.008650 
692.000000	0.008580 
691.000000	0.008670 
690.000000	0.008640 
689.000000	0.008670 
688.000000	0.008710 
687.000000	0.008670 
686.000000	0.008840 
685.000000	0.008820 
684.000000	0.008850 
683.000000	0.008550 
682.000000	0.008460 
681.000000	0.008520 
680.000000	0.008540 
679.000000	0.008560 
678.000000	0.008699 
677.000000	0.008680 
676.000000	0.008760 
675.000000	0.008820 
674.000000	0.008789 
673.000000	0.008869 
672.000000	0.008930 
671.000000	0.008880 
670.000000	0.008980 
669.000000	0.008999 
668.000000	0.009090 
667.000000	0.009200 
666.000000	0.009230 
665.000000	0.009270 
664.000000	0.009350 
663.000000	0.009410 
662.000000	0.009610 
661.000000	0.009610 
660.000000	0.009650 
659.000000	0.009820 
658.000000	0.009679 
657.000000	0.009820 
656.000000	0.009930 
655.000000	0.010000 
654.000000	0.010150 
653.000000	0.010170 
652.000000	0.010250 
651.000000	0.010410 
650.000000	0.010450 
649.000000	0.010490 
648.000000	0.010550 
647.000000	0.010690 
646.000000	0.010730 
645.000000	0.010870 
644.000000	0.011080 
643.000000	0.011130 
642.000000	0.011300 
641.000000	0.011380 
640.000000	0.011440 
639.000000	0.011610 
638.000000	0.011720 
637.000000	0.011900 
636.000000	0.012000 
635.000000	0.012140 
634.000000	0.012290 
633.000000	0.012500 
632.000000	0.012560 
631.000000	0.012760 
630.000000	0.012960 
629.000000	0.013190 
628.000000	0.013360 
627.000000	0.013450 
626.000000	0.013620 
625.000000	0.013910 
624.000000	0.014200 
623.000000	0.014530 
622.000000	0.014630 
621.000000	0.014890 
620.000000	0.015160 
619.000000	0.015490 
618.000000	0.015730 
617.000000	0.016050 
616.000000	0.016300 
615.000000	0.016780 
614.000000	0.017060 
613.000000	0.017540 
612.000000	0.017840 
611.000000	0.018220 
610.000000	0.018730 
609.000000	0.019110 
608.000000	0.019530 
607.000000	0.020110 
606.000000	0.020600 
605.000000	0.021150 
604.000000	0.021710 
603.000000	0.022360 
602.000000	0.023020 
601.000000	0.023620 
600.000000	0.024320 
599.000000	0.025110 
598.000000	0.025800 
597.000000	0.026740 
596.000000	0.027630 
595.000000	0.028460 
594.000000	0.029450 
593.000000	0.030590 
592.000000	0.031660 
591.000000	0.032740 
590.000000	0.033910 
589.000000	0.035170 
588.000000	0.036600 
587.000000	0.037960 
586.000000	0.039640 
585.000000	0.041150 
584.000000	0.042780 
583.000000	0.044390 
582.000000	0.046180 
581.000000	0.047860 
580.000000	0.049850 
579.000000	0.051850 
578.000000	0.053900 
577.000000	0.056150 
576.000000	0.058470 
575.000000	0.060880 
574.000000	0.063320 
573.000000	0.065770 
572.000000	0.068500 
571.000000	0.071300 
570.000000	0.074190 
569.000000	0.077320 
568.000000	0.080560 
567.000000	0.084000 
566.000000	0.087420 
565.000000	0.090990 
564.000000	0.094860 
563.000000	0.098650 
562.000000	0.102580 
561.000000	0.106930 
560.000000	0.111170 
559.000000	0.115760 
558.000000	0.121640 
557.000000	0.126740 
556.000000	0.131750 
555.000000	0.136800 
554.000000	0.141800 
553.000000	0.147020 
552.000000	0.152270 
551.000000	0.157510 
550.000000	0.163190 
549.000000	0.169090 
548.000000	0.175100 
547.000000	0.181040 
546.000000	0.186630 
545.000000	0.192720 
544.000000	0.198700 
543.000000	0.205050 
542.000000	0.211230 
541.000000	0.217780 
540.000000	0.224670 
539.000000	0.231400 
538.000000	0.238200 
537.000000	0.245000 
536.000000	0.251720 
535.000000	0.258500 
534.000000	0.265160 
533.000000	0.272220 
532.000000	0.279290 
531.000000	0.286370 
530.000000	0.293620 
529.000000	0.300930 
528.000000	0.308180 
527.000000	0.315110 
526.000000	0.322010 
525.000000	0.328770 
524.000000	0.335360 
523.000000	0.341970 
522.000000	0.348480 
521.000000	0.355030 
520.000000	0.361630 
519.000000	0.367800 
518.000000	0.373780 
517.000000	0.379690 
516.000000	0.385180 
515.000000	0.390870 
514.000000	0.396090 
513.000000	0.401450 
512.000000	0.406820 
511.000000	0.411970 
510.000000	0.416730 
509.000000	0.421570 
508.000000	0.425810 
507.000000	0.429930 
506.000000	0.433680 
505.000000	0.437440 
504.000000	0.441060 
503.000000	0.444210 
502.000000	0.447370 
501.000000	0.450190 
500.000000	0.452740 
499.000000	0.454960 
498.000000	0.456620 
497.000000	0.458380 
496.000000	0.459780 
495.000000	0.460820 
494.000000	0.461590 
493.000000	0.462110 
492.000000	0.462480 
491.000000	0.462320 
490.000000	0.461580 
489.000000	0.461180 
488.000000	0.460320 
487.000000	0.459120 
486.000000	0.457760 
485.000000	0.455980 
484.000000	0.454070 
483.000000	0.451810 
482.000000	0.449140 
481.000000	0.446660 
480.000000	0.443720 
479.000000	0.440370 
478.000000	0.437020 
477.000000	0.433630 
476.000000	0.429690 
475.000000	0.425610 
474.000000	0.421030 
473.000000	0.416570 
472.000000	0.411660 
471.000000	0.406740 
470.000000	0.401620 
469.000000	0.396420 
468.000000	0.391090 
467.000000	0.385640 
466.000000	0.380240 
465.000000	0.374360 
464.000000	0.368320 
463.000000	0.362380 
462.000000	0.356650 
461.000000	0.350860 
460.000000	0.344670 
459.000000	0.339010 
458.000000	0.333050 
457.000000	0.327330 
456.000000	0.321400 
455.000000	0.315310 
454.000000	0.309040 
453.000000	0.303190 
452.000000	0.297340 
451.000000	0.291550 
450.000000	0.285740 
449.000000	0.280480 
448.000000	0.275100 
447.000000	0.270000 
446.000000	0.264610 
445.000000	0.259430 
444.000000	0.254400 
443.000000	0.249880 
442.000000	0.245170 
441.000000	0.241100 
440.000000	0.237210 
439.000000	0.233790 
438.000000	0.230470 
437.000000	0.227550 
436.000000	0.224880 
435.000000	0.222790 
434.000000	0.221140 
433.000000	0.219730 
432.000000	0.218830 
431.000000	0.218290 
430.000000	0.218550 
429.000000	0.219330 
428.000000	0.220170 
427.000000	0.221690 
426.000000	0.223860 
425.000000	0.227230 
424.000000	0.230750 
423.000000	0.235430 
422.000000	0.240240 
421.000000	0.246290 
420.000000	0.252570 
419.000000	0.259680 
418.000000	0.267780 
417.000000	0.276820 
416.000000	0.287110 
415.000000	0.298220 
414.000000	0.310450 
413.000000	0.323500 
412.000000	0.337330 
411.000000	0.352210 
410.000000	0.367930 
409.000000	0.385140 
408.000000	0.403810 
407.000000	0.423490 
406.000000	0.443710 
405.000000	0.464610 
404.000000	0.485990 
403.000000	0.508540 
402.000000	0.531090 
401.000000	0.554740 
400.000000	0.579620 

