PE UV                   SPECTRUM    ASCII       PEDS        1.60        
  -1
23MS015.SP
24/09/03
16:30:14.00
24/09/03
16:31:23.00


400.000000
1









4444

SCAN
1
1


0.0
480.0
2.00
MANUAL



UV/VIS




































#HDR
-1
-1
#GR
NM
A
0.00000011920928955078
0.0
700.000000
1.000000
301
8
0.563360
0.019920
#DATA
700.000000	0.019960 
699.000000	0.019920 
698.000000	0.020170 
697.000000	0.020380 
696.000000	0.020400 
695.000000	0.020490 
694.000000	0.020580 
693.000000	0.020830 
692.000000	0.020870 
691.000000	0.021110 
690.000000	0.021010 
689.000000	0.021200 
688.000000	0.021390 
687.000000	0.021480 
686.000000	0.021510 
685.000000	0.021560 
684.000000	0.021750 
683.000000	0.022110 
682.000000	0.022330 
681.000000	0.022350 
680.000000	0.022400 
679.000000	0.022370 
678.000000	0.022270 
677.000000	0.022240 
676.000000	0.021960 
675.000000	0.022010 
674.000000	0.021910 
673.000000	0.021820 
672.000000	0.022010 
671.000000	0.022000 
670.000000	0.022000 
669.000000	0.022160 
668.000000	0.022120 
667.000000	0.022260 
666.000000	0.022290 
665.000000	0.022420 
664.000000	0.022580 
663.000000	0.022600 
662.000000	0.022650 
661.000000	0.022760 
660.000000	0.023020 
659.000000	0.022960 
658.000000	0.023160 
657.000000	0.023290 
656.000000	0.023420 
655.000000	0.023510 
654.000000	0.023580 
653.000000	0.023750 
652.000000	0.023850 
651.000000	0.024020 
650.000000	0.024110 
649.000000	0.024220 
648.000000	0.024470 
647.000000	0.024580 
646.000000	0.024750 
645.000000	0.024820 
644.000000	0.024980 
643.000000	0.025090 
642.000000	0.025290 
641.000000	0.025490 
640.000000	0.025570 
639.000000	0.025730 
638.000000	0.025970 
637.000000	0.026050 
636.000000	0.026250 
635.000000	0.026480 
634.000000	0.026670 
633.000000	0.026800 
632.000000	0.027010 
631.000000	0.027260 
630.000000	0.027500 
629.000000	0.027700 
628.000000	0.028040 
627.000000	0.028190 
626.000000	0.028480 
625.000000	0.028670 
624.000000	0.028950 
623.000000	0.029280 
622.000000	0.029630 
621.000000	0.029850 
620.000000	0.030230 
619.000000	0.030500 
618.000000	0.030900 
617.000000	0.031220 
616.000000	0.031640 
615.000000	0.032040 
614.000000	0.032500 
613.000000	0.032830 
612.000000	0.033320 
611.000000	0.033840 
610.000000	0.034220 
609.000000	0.034750 
608.000000	0.035220 
607.000000	0.035720 
606.000000	0.036230 
605.000000	0.036790 
604.000000	0.037530 
603.000000	0.038090 
602.000000	0.038780 
601.000000	0.039460 
600.000000	0.040170 
599.000000	0.040880 
598.000000	0.041630 
597.000000	0.042490 
596.000000	0.043270 
595.000000	0.044240 
594.000000	0.045120 
593.000000	0.046150 
592.000000	0.047120 
591.000000	0.048350 
590.000000	0.049420 
589.000000	0.050490 
588.000000	0.051780 
587.000000	0.053110 
586.000000	0.054430 
585.000000	0.056040 
584.000000	0.057450 
583.000000	0.058940 
582.000000	0.060460 
581.000000	0.062120 
580.000000	0.063740 
579.000000	0.065449 
578.000000	0.067150 
577.000000	0.069200 
576.000000	0.071090 
575.000000	0.073260 
574.000000	0.075350 
573.000000	0.077710 
572.000000	0.079860 
571.000000	0.082270 
570.000000	0.084540 
569.000000	0.087120 
568.000000	0.089810 
567.000000	0.092619 
566.000000	0.095490 
565.000000	0.098520 
564.000000	0.101700 
563.000000	0.104880 
562.000000	0.108200 
561.000000	0.111580 
560.000000	0.114950 
559.000000	0.118610 
558.000000	0.123160 
557.000000	0.127220 
556.000000	0.131280 
555.000000	0.135450 
554.000000	0.139510 
553.000000	0.143790 
552.000000	0.147920 
551.000000	0.152140 
550.000000	0.156560 
549.000000	0.161270 
548.000000	0.165800 
547.000000	0.170660 
546.000000	0.175250 
545.000000	0.180110 
544.000000	0.185080 
543.000000	0.190060 
542.000000	0.195000 
541.000000	0.200080 
540.000000	0.205120 
539.000000	0.210420 
538.000000	0.216060 
537.000000	0.221350 
536.000000	0.226790 
535.000000	0.232440 
534.000000	0.237880 
533.000000	0.243340 
532.000000	0.248780 
531.000000	0.254240 
530.000000	0.259810 
529.000000	0.265640 
528.000000	0.271140 
527.000000	0.276760 
526.000000	0.282310 
525.000000	0.287740 
524.000000	0.292930 
523.000000	0.298010 
522.000000	0.303020 
521.000000	0.308180 
520.000000	0.313230 
519.000000	0.318220 
518.000000	0.322890 
517.000000	0.327580 
516.000000	0.332000 
515.000000	0.336340 
514.000000	0.340630 
513.000000	0.344860 
512.000000	0.348710 
511.000000	0.352530 
510.000000	0.356220 
509.000000	0.360200 
508.000000	0.363630 
507.000000	0.366830 
506.000000	0.369910 
505.000000	0.372980 
504.000000	0.375610 
503.000000	0.377920 
502.000000	0.380200 
501.000000	0.382480 
500.000000	0.384420 
499.000000	0.386220 
498.000000	0.387590 
497.000000	0.389090 
496.000000	0.389920 
495.000000	0.390510 
494.000000	0.391250 
493.000000	0.391500 
492.000000	0.391510 
491.000000	0.391480 
490.000000	0.391350 
489.000000	0.390810 
488.000000	0.389950 
487.000000	0.389100 
486.000000	0.387790 
485.000000	0.386480 
484.000000	0.384930 
483.000000	0.383230 
482.000000	0.381010 
481.000000	0.378830 
480.000000	0.376600 
479.000000	0.374110 
478.000000	0.371260 
477.000000	0.368580 
476.000000	0.365450 
475.000000	0.362180 
474.000000	0.358930 
473.000000	0.355440 
472.000000	0.351960 
471.000000	0.347980 
470.000000	0.344160 
469.000000	0.339830 
468.000000	0.336020 
467.000000	0.331600 
466.000000	0.327360 
465.000000	0.323280 
464.000000	0.318910 
463.000000	0.314290 
462.000000	0.310060 
461.000000	0.305630 
460.000000	0.301260 
459.000000	0.296760 
458.000000	0.292080 
457.000000	0.287990 
456.000000	0.283620 
455.000000	0.279290 
454.000000	0.275020 
453.000000	0.270800 
452.000000	0.266500 
451.000000	0.262260 
450.000000	0.258300 
449.000000	0.254220 
448.000000	0.250620 
447.000000	0.247070 
446.000000	0.243620 
445.000000	0.239980 
444.000000	0.236950 
443.000000	0.233900 
442.000000	0.230630 
441.000000	0.228370 
440.000000	0.226050 
439.000000	0.223870 
438.000000	0.222100 
437.000000	0.220640 
436.000000	0.219580 
435.000000	0.218630 
434.000000	0.217980 
433.000000	0.218130 
432.000000	0.218640 
431.000000	0.219310 
430.000000	0.220420 
429.000000	0.222040 
428.000000	0.223800 
427.000000	0.226280 
426.000000	0.229150 
425.000000	0.233100 
424.000000	0.237260 
423.000000	0.241920 
422.000000	0.247630 
421.000000	0.254060 
420.000000	0.260670 
419.000000	0.267980 
418.000000	0.275870 
417.000000	0.284650 
416.000000	0.294110 
415.000000	0.304730 
414.000000	0.316200 
413.000000	0.328510 
412.000000	0.341810 
411.000000	0.355850 
410.000000	0.370900 
409.000000	0.386800 
408.000000	0.403540 
407.000000	0.420920 
406.000000	0.439210 
405.000000	0.458120 
404.000000	0.477730 
403.000000	0.498140 
402.000000	0.519140 
401.000000	0.541030 
400.000000	0.563360 

