PE UV                   SPECTRUM    ASCII       PEDS        1.60        
  -1
23MS191.SP
24/08/30
17:41:00.00
24/08/30
17:42:18.00


400.000000
1









4444

SCAN
1
1


0.0
480.0
2.00
MANUAL



UV/VIS




































#HDR
-1
-1
#GR
NM
A
0.00000011920928955078
0.0
700.000000
1.000000
301
8
0.903160
0.046860
#DATA
700.000000	0.046860 
699.000000	0.047220 
698.000000	0.047470 
697.000000	0.047750 
696.000000	0.047890 
695.000000	0.048200 
694.000000	0.048490 
693.000000	0.048690 
692.000000	0.049040 
691.000000	0.049350 
690.000000	0.049520 
689.000000	0.049780 
688.000000	0.050080 
687.000000	0.050390 
686.000000	0.050750 
685.000000	0.050980 
684.000000	0.051330 
683.000000	0.051560 
682.000000	0.051790 
681.000000	0.052120 
680.000000	0.052340 
679.000000	0.052560 
678.000000	0.052790 
677.000000	0.052940 
676.000000	0.053410 
675.000000	0.053620 
674.000000	0.053860 
673.000000	0.054110 
672.000000	0.054350 
671.000000	0.054710 
670.000000	0.054970 
669.000000	0.055260 
668.000000	0.055540 
667.000000	0.055880 
666.000000	0.056090 
665.000000	0.056520 
664.000000	0.056750 
663.000000	0.056950 
662.000000	0.057130 
661.000000	0.057550 
660.000000	0.057860 
659.000000	0.058080 
658.000000	0.058340 
657.000000	0.058750 
656.000000	0.059120 
655.000000	0.059340 
654.000000	0.059640 
653.000000	0.059980 
652.000000	0.060270 
651.000000	0.060560 
650.000000	0.060830 
649.000000	0.061140 
648.000000	0.061440 
647.000000	0.061910 
646.000000	0.062170 
645.000000	0.062480 
644.000000	0.062820 
643.000000	0.063159 
642.000000	0.063530 
641.000000	0.063780 
640.000000	0.064110 
639.000000	0.064530 
638.000000	0.064760 
637.000000	0.065070 
636.000000	0.065400 
635.000000	0.065820 
634.000000	0.066140 
633.000000	0.066610 
632.000000	0.066980 
631.000000	0.067300 
630.000000	0.067650 
629.000000	0.067910 
628.000000	0.068430 
627.000000	0.068779 
626.000000	0.069240 
625.000000	0.069600 
624.000000	0.069950 
623.000000	0.070470 
622.000000	0.070770 
621.000000	0.071280 
620.000000	0.071700 
619.000000	0.072190 
618.000000	0.072670 
617.000000	0.073140 
616.000000	0.073590 
615.000000	0.074170 
614.000000	0.074719 
613.000000	0.075250 
612.000000	0.075730 
611.000000	0.076320 
610.000000	0.076820 
609.000000	0.077510 
608.000000	0.078030 
607.000000	0.078640 
606.000000	0.079350 
605.000000	0.080050 
604.000000	0.080690 
603.000000	0.081400 
602.000000	0.082140 
601.000000	0.082980 
600.000000	0.083810 
599.000000	0.084630 
598.000000	0.085500 
597.000000	0.086389 
596.000000	0.087310 
595.000000	0.088240 
594.000000	0.089270 
593.000000	0.090310 
592.000000	0.091470 
591.000000	0.092610 
590.000000	0.093920 
589.000000	0.095140 
588.000000	0.096430 
587.000000	0.097840 
586.000000	0.099340 
585.000000	0.100810 
584.000000	0.102340 
583.000000	0.104100 
582.000000	0.105760 
581.000000	0.107370 
580.000000	0.109050 
579.000000	0.110900 
578.000000	0.112760 
577.000000	0.114840 
576.000000	0.116860 
575.000000	0.119040 
574.000000	0.121280 
573.000000	0.123840 
572.000000	0.126250 
571.000000	0.128800 
570.000000	0.131400 
569.000000	0.134040 
568.000000	0.136850 
567.000000	0.139620 
566.000000	0.142700 
565.000000	0.145820 
564.000000	0.149220 
563.000000	0.152560 
562.000000	0.156050 
561.000000	0.159850 
560.000000	0.163320 
559.000000	0.167000 
558.000000	0.170960 
557.000000	0.175030 
556.000000	0.179300 
555.000000	0.183630 
554.000000	0.188060 
553.000000	0.192470 
552.000000	0.197050 
551.000000	0.201750 
550.000000	0.206370 
549.000000	0.211160 
548.000000	0.216210 
547.000000	0.221100 
546.000000	0.225630 
545.000000	0.231250 
544.000000	0.236790 
543.000000	0.242150 
542.000000	0.247790 
541.000000	0.253310 
540.000000	0.258920 
539.000000	0.264510 
538.000000	0.270020 
537.000000	0.275840 
536.000000	0.281700 
535.000000	0.287710 
534.000000	0.293850 
533.000000	0.300080 
532.000000	0.306290 
531.000000	0.312410 
530.000000	0.318580 
529.000000	0.324710 
528.000000	0.330700 
527.000000	0.336920 
526.000000	0.343060 
525.000000	0.349080 
524.000000	0.355110 
523.000000	0.361000 
522.000000	0.366700 
521.000000	0.372510 
520.000000	0.378290 
519.000000	0.383640 
518.000000	0.388880 
517.000000	0.394460 
516.000000	0.399780 
515.000000	0.404810 
514.000000	0.410030 
513.000000	0.415040 
512.000000	0.419870 
511.000000	0.424310 
510.000000	0.428850 
509.000000	0.433110 
508.000000	0.437500 
507.000000	0.441530 
506.000000	0.445340 
505.000000	0.449410 
504.000000	0.452930 
503.000000	0.456410 
502.000000	0.459510 
501.000000	0.462350 
500.000000	0.465320 
499.000000	0.467980 
498.000000	0.469940 
497.000000	0.472330 
496.000000	0.474500 
495.000000	0.476150 
494.000000	0.477610 
493.000000	0.478970 
492.000000	0.479990 
491.000000	0.480610 
490.000000	0.481230 
489.000000	0.481690 
488.000000	0.481730 
487.000000	0.482190 
486.000000	0.481870 
485.000000	0.481420 
484.000000	0.480930 
483.000000	0.479970 
482.000000	0.478970 
481.000000	0.478130 
480.000000	0.476640 
479.000000	0.475370 
478.000000	0.473520 
477.000000	0.471840 
476.000000	0.469830 
475.000000	0.467740 
474.000000	0.465170 
473.000000	0.463020 
472.000000	0.460370 
471.000000	0.457740 
470.000000	0.454890 
469.000000	0.452120 
468.000000	0.449110 
467.000000	0.446020 
466.000000	0.442490 
465.000000	0.439430 
464.000000	0.436200 
463.000000	0.432770 
462.000000	0.429740 
461.000000	0.426280 
460.000000	0.423210 
459.000000	0.419780 
458.000000	0.416270 
457.000000	0.413160 
456.000000	0.409960 
455.000000	0.406660 
454.000000	0.403820 
453.000000	0.400650 
452.000000	0.397790 
451.000000	0.394760 
450.000000	0.391730 
449.000000	0.389620 
448.000000	0.387060 
447.000000	0.384760 
446.000000	0.382470 
445.000000	0.380550 
444.000000	0.378880 
443.000000	0.377320 
442.000000	0.375620 
441.000000	0.375370 
440.000000	0.374600 
439.000000	0.374550 
438.000000	0.374610 
437.000000	0.374970 
436.000000	0.375570 
435.000000	0.377030 
434.000000	0.378710 
433.000000	0.381050 
432.000000	0.383730 
431.000000	0.386830 
430.000000	0.390640 
429.000000	0.394840 
428.000000	0.400230 
427.000000	0.405330 
426.000000	0.411230 
425.000000	0.418870 
424.000000	0.426360 
423.000000	0.434600 
422.000000	0.444210 
421.000000	0.455730 
420.000000	0.467740 
419.000000	0.479720 
418.000000	0.492810 
417.000000	0.507040 
416.000000	0.521850 
415.000000	0.537730 
414.000000	0.554680 
413.000000	0.572730 
412.000000	0.592470 
411.000000	0.613090 
410.000000	0.635510 
409.000000	0.659150 
408.000000	0.683970 
407.000000	0.708990 
406.000000	0.734370 
405.000000	0.760210 
404.000000	0.787250 
403.000000	0.815280 
402.000000	0.842770 
401.000000	0.872590 
400.000000	0.903160 

