PE UV                   SPECTRUM    ASCII       PEDS        1.60        
  -1
23MS222.SP
24/09/02
17:08:18.00
24/09/02
17:09:27.00


400.000000
1









4444

SCAN
1
1


0.0
480.0
2.00
MANUAL



UV/VIS




































#HDR
-1
-1
#GR
NM
A
0.00000011920928955078
0.0
700.000000
1.000000
301
8
1.113670
0.134850
#DATA
700.000000	0.134850 
699.000000	0.135260 
698.000000	0.135650 
697.000000	0.136100 
696.000000	0.136370 
695.000000	0.136820 
694.000000	0.137270 
693.000000	0.137650 
692.000000	0.138110 
691.000000	0.138580 
690.000000	0.138960 
689.000000	0.139420 
688.000000	0.139890 
687.000000	0.140310 
686.000000	0.140740 
685.000000	0.141130 
684.000000	0.141560 
683.000000	0.142250 
682.000000	0.142730 
681.000000	0.143140 
680.000000	0.143680 
679.000000	0.144230 
678.000000	0.144630 
677.000000	0.145020 
676.000000	0.145420 
675.000000	0.145910 
674.000000	0.146280 
673.000000	0.146870 
672.000000	0.147350 
671.000000	0.147730 
670.000000	0.148280 
669.000000	0.148750 
668.000000	0.149320 
667.000000	0.149800 
666.000000	0.150120 
665.000000	0.150620 
664.000000	0.151060 
663.000000	0.151630 
662.000000	0.152190 
661.000000	0.152670 
660.000000	0.153140 
659.000000	0.153720 
658.000000	0.154060 
657.000000	0.154610 
656.000000	0.155140 
655.000000	0.155630 
654.000000	0.156250 
653.000000	0.156700 
652.000000	0.157340 
651.000000	0.157890 
650.000000	0.158350 
649.000000	0.158940 
648.000000	0.159450 
647.000000	0.160060 
646.000000	0.160600 
645.000000	0.161080 
644.000000	0.161690 
643.000000	0.162240 
642.000000	0.162860 
641.000000	0.163410 
640.000000	0.163920 
639.000000	0.164470 
638.000000	0.165040 
637.000000	0.165660 
636.000000	0.166280 
635.000000	0.166930 
634.000000	0.167380 
633.000000	0.168150 
632.000000	0.168770 
631.000000	0.169400 
630.000000	0.170110 
629.000000	0.170710 
628.000000	0.171360 
627.000000	0.172000 
626.000000	0.172680 
625.000000	0.173370 
624.000000	0.174170 
623.000000	0.174990 
622.000000	0.175710 
621.000000	0.176540 
620.000000	0.177360 
619.000000	0.178140 
618.000000	0.178980 
617.000000	0.179880 
616.000000	0.180760 
615.000000	0.181780 
614.000000	0.182630 
613.000000	0.183530 
612.000000	0.184490 
611.000000	0.185490 
610.000000	0.186510 
609.000000	0.187430 
608.000000	0.188510 
607.000000	0.189560 
606.000000	0.190610 
605.000000	0.191710 
604.000000	0.192910 
603.000000	0.194120 
602.000000	0.195310 
601.000000	0.196560 
600.000000	0.197840 
599.000000	0.199190 
598.000000	0.200460 
597.000000	0.201990 
596.000000	0.203540 
595.000000	0.204980 
594.000000	0.206510 
593.000000	0.208340 
592.000000	0.210010 
591.000000	0.211770 
590.000000	0.213420 
589.000000	0.215170 
588.000000	0.217190 
587.000000	0.219280 
586.000000	0.221410 
585.000000	0.223500 
584.000000	0.225710 
583.000000	0.227930 
582.000000	0.230120 
581.000000	0.232380 
580.000000	0.234760 
579.000000	0.237220 
578.000000	0.239570 
577.000000	0.242400 
576.000000	0.244980 
575.000000	0.247760 
574.000000	0.250640 
573.000000	0.253500 
572.000000	0.256400 
571.000000	0.259400 
570.000000	0.262600 
569.000000	0.265840 
568.000000	0.269240 
567.000000	0.272640 
566.000000	0.276420 
565.000000	0.280110 
564.000000	0.283890 
563.000000	0.287850 
562.000000	0.291840 
561.000000	0.296070 
560.000000	0.300110 
559.000000	0.304480 
558.000000	0.308780 
557.000000	0.313530 
556.000000	0.318360 
555.000000	0.323290 
554.000000	0.327810 
553.000000	0.332780 
552.000000	0.337530 
551.000000	0.342540 
550.000000	0.347480 
549.000000	0.352970 
548.000000	0.358330 
547.000000	0.363690 
546.000000	0.368830 
545.000000	0.374450 
544.000000	0.379860 
543.000000	0.385640 
542.000000	0.391110 
541.000000	0.396700 
540.000000	0.402430 
539.000000	0.408360 
538.000000	0.414260 
537.000000	0.420390 
536.000000	0.426550 
535.000000	0.432560 
534.000000	0.438720 
533.000000	0.444830 
532.000000	0.450980 
531.000000	0.457000 
530.000000	0.463240 
529.000000	0.469610 
528.000000	0.476050 
527.000000	0.482290 
526.000000	0.488420 
525.000000	0.494460 
524.000000	0.500320 
523.000000	0.506020 
522.000000	0.511800 
521.000000	0.517740 
520.000000	0.523590 
519.000000	0.529280 
518.000000	0.534710 
517.000000	0.539930 
516.000000	0.545420 
515.000000	0.550410 
514.000000	0.555240 
513.000000	0.560240 
512.000000	0.565100 
511.000000	0.569950 
510.000000	0.574520 
509.000000	0.579240 
508.000000	0.583759 
507.000000	0.588000 
506.000000	0.591760 
505.000000	0.595940 
504.000000	0.599750 
503.000000	0.603460 
502.000000	0.606700 
501.000000	0.610170 
500.000000	0.613390 
499.000000	0.616240 
498.000000	0.618770 
497.000000	0.621740 
496.000000	0.624120 
495.000000	0.626210 
494.000000	0.628279 
493.000000	0.630080 
492.000000	0.631750 
491.000000	0.633350 
490.000000	0.634080 
489.000000	0.635440 
488.000000	0.636510 
487.000000	0.636940 
486.000000	0.637190 
485.000000	0.637830 
484.000000	0.637599 
483.000000	0.637430 
482.000000	0.637040 
481.000000	0.637100 
480.000000	0.636650 
479.000000	0.635910 
478.000000	0.634980 
477.000000	0.634290 
476.000000	0.633290 
475.000000	0.632070 
474.000000	0.630310 
473.000000	0.629200 
472.000000	0.627520 
471.000000	0.625790 
470.000000	0.623840 
469.000000	0.622120 
468.000000	0.620210 
467.000000	0.618350 
466.000000	0.615940 
465.000000	0.614170 
464.000000	0.612000 
463.000000	0.609930 
462.000000	0.607880 
461.000000	0.605900 
460.000000	0.603550 
459.000000	0.601290 
458.000000	0.599340 
457.000000	0.597249 
456.000000	0.595290 
455.000000	0.593650 
454.000000	0.591780 
453.000000	0.589680 
452.000000	0.588260 
451.000000	0.586420 
450.000000	0.584050 
449.000000	0.583340 
448.000000	0.582260 
447.000000	0.581099 
446.000000	0.580440 
445.000000	0.580120 
444.000000	0.579480 
443.000000	0.579270 
442.000000	0.579180 
441.000000	0.579830 
440.000000	0.580920 
439.000000	0.582220 
438.000000	0.583290 
437.000000	0.584980 
436.000000	0.587360 
435.000000	0.589900 
434.000000	0.592010 
433.000000	0.596990 
432.000000	0.600070 
431.000000	0.603980 
430.000000	0.609080 
429.000000	0.614390 
428.000000	0.620460 
427.000000	0.626790 
426.000000	0.633030 
425.000000	0.641230 
424.000000	0.650040 
423.000000	0.659080 
422.000000	0.670030 
421.000000	0.682790 
420.000000	0.694160 
419.000000	0.706450 
418.000000	0.719080 
417.000000	0.733190 
416.000000	0.748150 
415.000000	0.764270 
414.000000	0.781870 
413.000000	0.799860 
412.000000	0.819060 
411.000000	0.839380 
410.000000	0.860150 
409.000000	0.882580 
408.000000	0.905900 
407.000000	0.930000 
406.000000	0.954470 
405.000000	0.979720 
404.000000	1.005500 
403.000000	1.031830 
402.000000	1.058200 
401.000000	1.086250 
400.000000	1.113670 

