PE UV                   SPECTRUM    ASCII       PEDS        1.60        
  -1
23MS052.SP
24/09/05
16:29:28.00
24/09/05
16:30:34.00


400.000000
1









4444

SCAN
1
1


0.0
480.0
2.00
MANUAL



UV/VIS




































#HDR
-1
-1
#GR
NM
A
0.00000011920928955078
0.0
700.000000
1.000000
301
8
0.215930
0.009379
#DATA
700.000000	0.009379 
699.000000	0.009390 
698.000000	0.009469 
697.000000	0.009420 
696.000000	0.009500 
695.000000	0.009620 
694.000000	0.009590 
693.000000	0.009599 
692.000000	0.009630 
691.000000	0.009639 
690.000000	0.009599 
689.000000	0.009639 
688.000000	0.009760 
687.000000	0.009760 
686.000000	0.009820 
685.000000	0.009780 
684.000000	0.009900 
683.000000	0.009750 
682.000000	0.009679 
681.000000	0.009690 
680.000000	0.009740 
679.000000	0.009730 
678.000000	0.009849 
677.000000	0.009950 
676.000000	0.009910 
675.000000	0.009920 
674.000000	0.009950 
673.000000	0.010010 
672.000000	0.010100 
671.000000	0.010020 
670.000000	0.010060 
669.000000	0.010030 
668.000000	0.010080 
667.000000	0.010190 
666.000000	0.010190 
665.000000	0.010230 
664.000000	0.010240 
663.000000	0.010190 
662.000000	0.010190 
661.000000	0.010170 
660.000000	0.010330 
659.000000	0.010330 
658.000000	0.010370 
657.000000	0.010340 
656.000000	0.010410 
655.000000	0.010470 
654.000000	0.010420 
653.000000	0.010510 
652.000000	0.010550 
651.000000	0.010560 
650.000000	0.010660 
649.000000	0.010620 
648.000000	0.010720 
647.000000	0.010730 
646.000000	0.010720 
645.000000	0.010770 
644.000000	0.010770 
643.000000	0.010870 
642.000000	0.010840 
641.000000	0.010880 
640.000000	0.010950 
639.000000	0.010910 
638.000000	0.011010 
637.000000	0.011050 
636.000000	0.011130 
635.000000	0.011090 
634.000000	0.011170 
633.000000	0.011200 
632.000000	0.011220 
631.000000	0.011300 
630.000000	0.011380 
629.000000	0.011400 
628.000000	0.011510 
627.000000	0.011560 
626.000000	0.011670 
625.000000	0.011710 
624.000000	0.011740 
623.000000	0.011970 
622.000000	0.011970 
621.000000	0.012090 
620.000000	0.012140 
619.000000	0.012340 
618.000000	0.012380 
617.000000	0.012490 
616.000000	0.012550 
615.000000	0.012760 
614.000000	0.012830 
613.000000	0.012960 
612.000000	0.013040 
611.000000	0.013260 
610.000000	0.013410 
609.000000	0.013500 
608.000000	0.013700 
607.000000	0.013870 
606.000000	0.014130 
605.000000	0.014290 
604.000000	0.014500 
603.000000	0.014800 
602.000000	0.015020 
601.000000	0.015270 
600.000000	0.015470 
599.000000	0.015700 
598.000000	0.015960 
597.000000	0.016260 
596.000000	0.016550 
595.000000	0.016850 
594.000000	0.017190 
593.000000	0.017620 
592.000000	0.017910 
591.000000	0.018350 
590.000000	0.018750 
589.000000	0.019130 
588.000000	0.019540 
587.000000	0.020010 
586.000000	0.020540 
585.000000	0.021160 
584.000000	0.021780 
583.000000	0.022350 
582.000000	0.022870 
581.000000	0.023510 
580.000000	0.024150 
579.000000	0.024820 
578.000000	0.025630 
577.000000	0.026230 
576.000000	0.027100 
575.000000	0.027870 
574.000000	0.028790 
573.000000	0.029600 
572.000000	0.030520 
571.000000	0.031440 
570.000000	0.032320 
569.000000	0.033440 
568.000000	0.034470 
567.000000	0.035510 
566.000000	0.036780 
565.000000	0.038050 
564.000000	0.039310 
563.000000	0.040560 
562.000000	0.041910 
561.000000	0.043240 
560.000000	0.044600 
559.000000	0.046080 
558.000000	0.048160 
557.000000	0.049790 
556.000000	0.051470 
555.000000	0.053260 
554.000000	0.054910 
553.000000	0.056510 
552.000000	0.058330 
551.000000	0.060070 
550.000000	0.062040 
549.000000	0.063870 
548.000000	0.065780 
547.000000	0.067700 
546.000000	0.069730 
545.000000	0.071730 
544.000000	0.073830 
543.000000	0.075829 
542.000000	0.077750 
541.000000	0.079930 
540.000000	0.082080 
539.000000	0.084290 
538.000000	0.086650 
537.000000	0.088920 
536.000000	0.091220 
535.000000	0.093470 
534.000000	0.095670 
533.000000	0.098059 
532.000000	0.100300 
531.000000	0.102690 
530.000000	0.104930 
529.000000	0.107500 
528.000000	0.109730 
527.000000	0.112220 
526.000000	0.114560 
525.000000	0.116780 
524.000000	0.119050 
523.000000	0.121120 
522.000000	0.123310 
521.000000	0.125390 
520.000000	0.127740 
519.000000	0.129530 
518.000000	0.131570 
517.000000	0.133580 
516.000000	0.135470 
515.000000	0.137280 
514.000000	0.139250 
513.000000	0.141160 
512.000000	0.142800 
511.000000	0.144610 
510.000000	0.146120 
509.000000	0.147560 
508.000000	0.149100 
507.000000	0.150450 
506.000000	0.151790 
505.000000	0.153110 
504.000000	0.154160 
503.000000	0.155090 
502.000000	0.156120 
501.000000	0.156950 
500.000000	0.157820 
499.000000	0.158460 
498.000000	0.159240 
497.000000	0.159640 
496.000000	0.160200 
495.000000	0.160610 
494.000000	0.160740 
493.000000	0.160950 
492.000000	0.160970 
491.000000	0.160820 
490.000000	0.160630 
489.000000	0.160360 
488.000000	0.160120 
487.000000	0.159730 
486.000000	0.159170 
485.000000	0.158600 
484.000000	0.157730 
483.000000	0.157080 
482.000000	0.156180 
481.000000	0.155260 
480.000000	0.154190 
479.000000	0.153130 
478.000000	0.151950 
477.000000	0.150590 
476.000000	0.149410 
475.000000	0.148280 
474.000000	0.146620 
473.000000	0.145090 
472.000000	0.143400 
471.000000	0.141660 
470.000000	0.140140 
469.000000	0.138240 
468.000000	0.136570 
467.000000	0.134750 
466.000000	0.132780 
465.000000	0.131030 
464.000000	0.128870 
463.000000	0.126970 
462.000000	0.125100 
461.000000	0.123190 
460.000000	0.121170 
459.000000	0.119270 
458.000000	0.117200 
457.000000	0.115130 
456.000000	0.113360 
455.000000	0.111360 
454.000000	0.109290 
453.000000	0.107720 
452.000000	0.105610 
451.000000	0.103500 
450.000000	0.102130 
449.000000	0.100070 
448.000000	0.098140 
447.000000	0.096560 
446.000000	0.095130 
445.000000	0.093440 
444.000000	0.091990 
443.000000	0.090700 
442.000000	0.089289 
441.000000	0.087990 
440.000000	0.086800 
439.000000	0.085610 
438.000000	0.084690 
437.000000	0.083919 
436.000000	0.083239 
435.000000	0.082790 
434.000000	0.082100 
433.000000	0.081970 
432.000000	0.082030 
431.000000	0.081970 
430.000000	0.082100 
429.000000	0.082530 
428.000000	0.083239 
427.000000	0.083849 
426.000000	0.084860 
425.000000	0.086380 
424.000000	0.087890 
423.000000	0.089460 
422.000000	0.091530 
421.000000	0.093979 
420.000000	0.096449 
419.000000	0.099169 
418.000000	0.102080 
417.000000	0.105580 
416.000000	0.109200 
415.000000	0.113200 
414.000000	0.117830 
413.000000	0.122500 
412.000000	0.127670 
411.000000	0.133160 
410.000000	0.139360 
409.000000	0.145440 
408.000000	0.152080 
407.000000	0.158930 
406.000000	0.166350 
405.000000	0.173760 
404.000000	0.181540 
403.000000	0.189700 
402.000000	0.198160 
401.000000	0.206940 
400.000000	0.215930 

