PE UV                   SPECTRUM    ASCII       PEDS        1.60        
  -1
23MS266.SP
24/09/02
17:01:30.00
24/09/02
17:02:54.00


400.000000
1









4444

SCAN
1
1


0.0
480.0
2.00
MANUAL



UV/VIS




































#HDR
-1
-1
#GR
NM
A
0.00000011920928955078
0.0
700.000000
1.000000
301
8
0.668380
0.030680
#DATA
700.000000	0.030680 
699.000000	0.030830 
698.000000	0.030920 
697.000000	0.030970 
696.000000	0.031020 
695.000000	0.031210 
694.000000	0.031360 
693.000000	0.031420 
692.000000	0.031520 
691.000000	0.031680 
690.000000	0.031680 
689.000000	0.031810 
688.000000	0.031930 
687.000000	0.031980 
686.000000	0.032190 
685.000000	0.032330 
684.000000	0.032420 
683.000000	0.032720 
682.000000	0.032640 
681.000000	0.032610 
680.000000	0.032730 
679.000000	0.032910 
678.000000	0.033150 
677.000000	0.033160 
676.000000	0.033410 
675.000000	0.033580 
674.000000	0.033630 
673.000000	0.033830 
672.000000	0.033920 
671.000000	0.034010 
670.000000	0.034210 
669.000000	0.034380 
668.000000	0.034460 
667.000000	0.034750 
666.000000	0.034620 
665.000000	0.034830 
664.000000	0.034960 
663.000000	0.035200 
662.000000	0.035420 
661.000000	0.035530 
660.000000	0.035680 
659.000000	0.035830 
658.000000	0.035930 
657.000000	0.036110 
656.000000	0.036340 
655.000000	0.036490 
654.000000	0.036650 
653.000000	0.036870 
652.000000	0.037050 
651.000000	0.037200 
650.000000	0.037300 
649.000000	0.037480 
648.000000	0.037660 
647.000000	0.037870 
646.000000	0.038090 
645.000000	0.038330 
644.000000	0.038520 
643.000000	0.038680 
642.000000	0.038880 
641.000000	0.039110 
640.000000	0.039230 
639.000000	0.039490 
638.000000	0.039730 
637.000000	0.039920 
636.000000	0.040180 
635.000000	0.040400 
634.000000	0.040560 
633.000000	0.040910 
632.000000	0.041120 
631.000000	0.041340 
630.000000	0.041670 
629.000000	0.041950 
628.000000	0.042200 
627.000000	0.042400 
626.000000	0.042690 
625.000000	0.043060 
624.000000	0.043430 
623.000000	0.043770 
622.000000	0.044000 
621.000000	0.044470 
620.000000	0.044790 
619.000000	0.045120 
618.000000	0.045560 
617.000000	0.045930 
616.000000	0.046280 
615.000000	0.046810 
614.000000	0.047250 
613.000000	0.047710 
612.000000	0.048110 
611.000000	0.048580 
610.000000	0.049160 
609.000000	0.049640 
608.000000	0.050160 
607.000000	0.050800 
606.000000	0.051340 
605.000000	0.052010 
604.000000	0.052600 
603.000000	0.053240 
602.000000	0.053970 
601.000000	0.054710 
600.000000	0.055380 
599.000000	0.056270 
598.000000	0.056980 
597.000000	0.057920 
596.000000	0.058770 
595.000000	0.059660 
594.000000	0.060680 
593.000000	0.061710 
592.000000	0.062780 
591.000000	0.063850 
590.000000	0.064960 
589.000000	0.066290 
588.000000	0.067630 
587.000000	0.068980 
586.000000	0.070470 
585.000000	0.071850 
584.000000	0.073460 
583.000000	0.074899 
582.000000	0.076590 
581.000000	0.078190 
580.000000	0.079839 
579.000000	0.081750 
578.000000	0.083620 
577.000000	0.085670 
576.000000	0.087800 
575.000000	0.089800 
574.000000	0.092090 
573.000000	0.094310 
572.000000	0.096660 
571.000000	0.099150 
570.000000	0.101670 
569.000000	0.104330 
568.000000	0.107410 
567.000000	0.110340 
566.000000	0.113290 
565.000000	0.116490 
564.000000	0.119590 
563.000000	0.122740 
562.000000	0.126170 
561.000000	0.129840 
560.000000	0.133520 
559.000000	0.137430 
558.000000	0.141890 
557.000000	0.145980 
556.000000	0.150240 
555.000000	0.154450 
554.000000	0.158600 
553.000000	0.162930 
552.000000	0.167430 
551.000000	0.171960 
550.000000	0.176520 
549.000000	0.181530 
548.000000	0.186420 
547.000000	0.191360 
546.000000	0.196110 
545.000000	0.201180 
544.000000	0.206170 
543.000000	0.211460 
542.000000	0.216660 
541.000000	0.222120 
540.000000	0.227790 
539.000000	0.233450 
538.000000	0.238910 
537.000000	0.244680 
536.000000	0.250290 
535.000000	0.255930 
534.000000	0.261600 
533.000000	0.267260 
532.000000	0.273190 
531.000000	0.279320 
530.000000	0.285360 
529.000000	0.291370 
528.000000	0.297480 
527.000000	0.303240 
526.000000	0.309000 
525.000000	0.314700 
524.000000	0.320220 
523.000000	0.325910 
522.000000	0.331520 
521.000000	0.336980 
520.000000	0.342500 
519.000000	0.347890 
518.000000	0.352860 
517.000000	0.357760 
516.000000	0.362800 
515.000000	0.367280 
514.000000	0.371850 
513.000000	0.376860 
512.000000	0.381340 
511.000000	0.385820 
510.000000	0.390180 
509.000000	0.394260 
508.000000	0.398100 
507.000000	0.401590 
506.000000	0.405180 
505.000000	0.408520 
504.000000	0.411610 
503.000000	0.414730 
502.000000	0.417470 
501.000000	0.420380 
500.000000	0.422640 
499.000000	0.424920 
498.000000	0.426720 
497.000000	0.428610 
496.000000	0.429960 
495.000000	0.431290 
494.000000	0.432460 
493.000000	0.433090 
492.000000	0.434030 
491.000000	0.434470 
490.000000	0.434260 
489.000000	0.434530 
488.000000	0.434400 
487.000000	0.433820 
486.000000	0.432980 
485.000000	0.432020 
484.000000	0.430870 
483.000000	0.429530 
482.000000	0.427810 
481.000000	0.426430 
480.000000	0.424490 
479.000000	0.422570 
478.000000	0.420150 
477.000000	0.417920 
476.000000	0.415210 
475.000000	0.412460 
474.000000	0.409080 
473.000000	0.406400 
472.000000	0.402940 
471.000000	0.399490 
470.000000	0.395820 
469.000000	0.392400 
468.000000	0.388640 
467.000000	0.384890 
466.000000	0.380700 
465.000000	0.376830 
464.000000	0.372520 
463.000000	0.368380 
462.000000	0.364360 
461.000000	0.360180 
460.000000	0.355930 
459.000000	0.351940 
458.000000	0.347890 
457.000000	0.344000 
456.000000	0.339780 
455.000000	0.335620 
454.000000	0.331300 
453.000000	0.327100 
452.000000	0.323050 
451.000000	0.319280 
450.000000	0.315260 
449.000000	0.312050 
448.000000	0.308320 
447.000000	0.304890 
446.000000	0.301520 
445.000000	0.298330 
444.000000	0.295020 
443.000000	0.292540 
442.000000	0.289550 
441.000000	0.287530 
440.000000	0.285280 
439.000000	0.283710 
438.000000	0.282170 
437.000000	0.281250 
436.000000	0.280210 
435.000000	0.279580 
434.000000	0.279510 
433.000000	0.280210 
432.000000	0.280810 
431.000000	0.281820 
430.000000	0.283430 
429.000000	0.285570 
428.000000	0.288090 
427.000000	0.291130 
426.000000	0.294490 
425.000000	0.299110 
424.000000	0.304330 
423.000000	0.309920 
422.000000	0.316430 
421.000000	0.323650 
420.000000	0.331050 
419.000000	0.339250 
418.000000	0.348400 
417.000000	0.358550 
416.000000	0.369590 
415.000000	0.381770 
414.000000	0.394910 
413.000000	0.408560 
412.000000	0.423320 
411.000000	0.438660 
410.000000	0.455030 
409.000000	0.472840 
408.000000	0.492010 
407.000000	0.511900 
406.000000	0.532450 
405.000000	0.553560 
404.000000	0.575099 
403.000000	0.597480 
402.000000	0.620380 
401.000000	0.643610 
400.000000	0.668380 

