PE UV                   SPECTRUM    ASCII       PEDS        1.60        
  -1
23MS035.SP
24/09/03
16:26:44.00
24/09/03
16:28:06.00


400.000000
1









4444

SCAN
1
1


0.0
480.0
2.00
MANUAL



UV/VIS




































#HDR
-1
-1
#GR
NM
A
0.00000011920928955078
0.0
700.000000
1.000000
301
8
0.865000
0.035840
#DATA
700.000000	0.035840 
699.000000	0.035920 
698.000000	0.036250 
697.000000	0.036580 
696.000000	0.036870 
695.000000	0.037210 
694.000000	0.037460 
693.000000	0.037880 
692.000000	0.038120 
691.000000	0.038480 
690.000000	0.038790 
689.000000	0.039100 
688.000000	0.039550 
687.000000	0.039820 
686.000000	0.040270 
685.000000	0.040630 
684.000000	0.040940 
683.000000	0.041460 
682.000000	0.041860 
681.000000	0.042260 
680.000000	0.042620 
679.000000	0.042900 
678.000000	0.043290 
677.000000	0.043920 
676.000000	0.044280 
675.000000	0.044620 
674.000000	0.044950 
673.000000	0.045320 
672.000000	0.045830 
671.000000	0.046200 
670.000000	0.046590 
669.000000	0.046920 
668.000000	0.047320 
667.000000	0.047650 
666.000000	0.048080 
665.000000	0.048460 
664.000000	0.048930 
663.000000	0.049250 
662.000000	0.049620 
661.000000	0.049890 
660.000000	0.050420 
659.000000	0.050750 
658.000000	0.051160 
657.000000	0.051590 
656.000000	0.052010 
655.000000	0.052310 
654.000000	0.052730 
653.000000	0.053220 
652.000000	0.053500 
651.000000	0.054010 
650.000000	0.054390 
649.000000	0.054720 
648.000000	0.055220 
647.000000	0.055620 
646.000000	0.056180 
645.000000	0.056450 
644.000000	0.056990 
643.000000	0.057290 
642.000000	0.057820 
641.000000	0.058160 
640.000000	0.058500 
639.000000	0.058970 
638.000000	0.059410 
637.000000	0.059810 
636.000000	0.060210 
635.000000	0.060700 
634.000000	0.061110 
633.000000	0.061500 
632.000000	0.062020 
631.000000	0.062380 
630.000000	0.062880 
629.000000	0.063390 
628.000000	0.063880 
627.000000	0.064380 
626.000000	0.064820 
625.000000	0.065340 
624.000000	0.065840 
623.000000	0.066350 
622.000000	0.066870 
621.000000	0.067390 
620.000000	0.067830 
619.000000	0.068450 
618.000000	0.068990 
617.000000	0.069580 
616.000000	0.070290 
615.000000	0.070780 
614.000000	0.071450 
613.000000	0.071880 
612.000000	0.072700 
611.000000	0.073289 
610.000000	0.073890 
609.000000	0.074560 
608.000000	0.075280 
607.000000	0.076009 
606.000000	0.076650 
605.000000	0.077280 
604.000000	0.078250 
603.000000	0.079020 
602.000000	0.079810 
601.000000	0.080650 
600.000000	0.081559 
599.000000	0.082489 
598.000000	0.083380 
597.000000	0.084430 
596.000000	0.085279 
595.000000	0.086310 
594.000000	0.087249 
593.000000	0.088460 
592.000000	0.089580 
591.000000	0.090840 
590.000000	0.092100 
589.000000	0.093310 
588.000000	0.094690 
587.000000	0.096040 
586.000000	0.097530 
585.000000	0.098989 
584.000000	0.100500 
583.000000	0.101960 
582.000000	0.103560 
581.000000	0.105110 
580.000000	0.106750 
579.000000	0.108640 
578.000000	0.110330 
577.000000	0.112290 
576.000000	0.114080 
575.000000	0.116090 
574.000000	0.118060 
573.000000	0.120320 
572.000000	0.122690 
571.000000	0.124930 
570.000000	0.127250 
569.000000	0.129750 
568.000000	0.132190 
567.000000	0.134790 
566.000000	0.137340 
565.000000	0.140170 
564.000000	0.143070 
563.000000	0.146090 
562.000000	0.149230 
561.000000	0.152480 
560.000000	0.155700 
559.000000	0.159000 
558.000000	0.162840 
557.000000	0.166430 
556.000000	0.170090 
555.000000	0.173840 
554.000000	0.177600 
553.000000	0.181490 
552.000000	0.185150 
551.000000	0.189240 
550.000000	0.193360 
549.000000	0.197490 
548.000000	0.201580 
547.000000	0.205810 
546.000000	0.209950 
545.000000	0.214310 
544.000000	0.218920 
543.000000	0.223680 
542.000000	0.228360 
541.000000	0.233160 
540.000000	0.237830 
539.000000	0.242560 
538.000000	0.247340 
537.000000	0.252210 
536.000000	0.257020 
535.000000	0.262270 
534.000000	0.267230 
533.000000	0.272420 
532.000000	0.277750 
531.000000	0.282840 
530.000000	0.288050 
529.000000	0.293400 
528.000000	0.298350 
527.000000	0.303470 
526.000000	0.308610 
525.000000	0.313800 
524.000000	0.318910 
523.000000	0.323980 
522.000000	0.328930 
521.000000	0.333890 
520.000000	0.338820 
519.000000	0.343560 
518.000000	0.348090 
517.000000	0.352620 
516.000000	0.357130 
515.000000	0.361620 
514.000000	0.366320 
513.000000	0.370710 
512.000000	0.375000 
511.000000	0.379140 
510.000000	0.383010 
509.000000	0.386990 
508.000000	0.390860 
507.000000	0.394530 
506.000000	0.398080 
505.000000	0.401920 
504.000000	0.405420 
503.000000	0.408610 
502.000000	0.411740 
501.000000	0.414730 
500.000000	0.417500 
499.000000	0.420280 
498.000000	0.422660 
497.000000	0.425150 
496.000000	0.427530 
495.000000	0.429480 
494.000000	0.431530 
493.000000	0.433220 
492.000000	0.434830 
491.000000	0.436290 
490.000000	0.437560 
489.000000	0.438990 
488.000000	0.439730 
487.000000	0.440760 
486.000000	0.441400 
485.000000	0.441830 
484.000000	0.442400 
483.000000	0.442760 
482.000000	0.442660 
481.000000	0.442970 
480.000000	0.442820 
479.000000	0.442900 
478.000000	0.442230 
477.000000	0.442100 
476.000000	0.441680 
475.000000	0.440830 
474.000000	0.440100 
473.000000	0.439590 
472.000000	0.438860 
471.000000	0.437890 
470.000000	0.437100 
469.000000	0.436020 
468.000000	0.435230 
467.000000	0.433710 
466.000000	0.432420 
465.000000	0.431520 
464.000000	0.430420 
463.000000	0.428950 
462.000000	0.428110 
461.000000	0.426870 
460.000000	0.425860 
459.000000	0.424990 
458.000000	0.423570 
457.000000	0.423080 
456.000000	0.422010 
455.000000	0.421140 
454.000000	0.420150 
453.000000	0.419770 
452.000000	0.419150 
451.000000	0.418590 
450.000000	0.417810 
449.000000	0.417870 
448.000000	0.417670 
447.000000	0.417740 
446.000000	0.418130 
445.000000	0.418410 
444.000000	0.419160 
443.000000	0.419860 
442.000000	0.420480 
441.000000	0.422230 
440.000000	0.423640 
439.000000	0.425130 
438.000000	0.427670 
437.000000	0.429940 
436.000000	0.432780 
435.000000	0.435750 
434.000000	0.438990 
433.000000	0.442560 
432.000000	0.446610 
431.000000	0.451020 
430.000000	0.455650 
429.000000	0.460830 
428.000000	0.466210 
427.000000	0.472240 
426.000000	0.478370 
425.000000	0.486210 
424.000000	0.493460 
423.000000	0.501300 
422.000000	0.510180 
421.000000	0.520610 
420.000000	0.530430 
419.000000	0.540900 
418.000000	0.552069 
417.000000	0.563930 
416.000000	0.576280 
415.000000	0.589380 
414.000000	0.602909 
413.000000	0.617060 
412.000000	0.632150 
411.000000	0.648320 
410.000000	0.664969 
409.000000	0.683280 
408.000000	0.702200 
407.000000	0.720910 
406.000000	0.740410 
405.000000	0.759810 
404.000000	0.779680 
403.000000	0.800390 
402.000000	0.820659 
401.000000	0.842540 
400.000000	0.865000 

