PE UV                   SPECTRUM    ASCII       PEDS        1.60        
  -1
23MS262.SP
24/09/02
17:21:51.00
24/09/02
17:23:24.00


400.000000
1









4444

SCAN
1
1


0.0
480.0
2.00
MANUAL



UV/VIS




































#HDR
-1
-1
#GR
NM
A
0.00000011920928955078
0.0
700.000000
1.000000
301
8
1.035200
0.532320
#DATA
700.000000	0.532320 
699.000000	0.533030 
698.000000	0.533720 
697.000000	0.534320 
696.000000	0.534850 
695.000000	0.535560 
694.000000	0.536280 
693.000000	0.536930 
692.000000	0.537600 
691.000000	0.538310 
690.000000	0.539000 
689.000000	0.539630 
688.000000	0.540290 
687.000000	0.540920 
686.000000	0.541520 
685.000000	0.542070 
684.000000	0.542710 
683.000000	0.543560 
682.000000	0.544030 
681.000000	0.544930 
680.000000	0.545590 
679.000000	0.546320 
678.000000	0.547060 
677.000000	0.547530 
676.000000	0.548390 
675.000000	0.549069 
674.000000	0.549530 
673.000000	0.550480 
672.000000	0.550850 
671.000000	0.551280 
670.000000	0.552050 
669.000000	0.552860 
668.000000	0.553480 
667.000000	0.554270 
666.000000	0.554620 
665.000000	0.555490 
664.000000	0.556180 
663.000000	0.556940 
662.000000	0.557670 
661.000000	0.558310 
660.000000	0.558949 
659.000000	0.559710 
658.000000	0.560130 
657.000000	0.560880 
656.000000	0.561750 
655.000000	0.562620 
654.000000	0.563300 
653.000000	0.563970 
652.000000	0.564650 
651.000000	0.565110 
650.000000	0.565640 
649.000000	0.566320 
648.000000	0.566920 
647.000000	0.567760 
646.000000	0.568420 
645.000000	0.569130 
644.000000	0.570080 
643.000000	0.570720 
642.000000	0.571520 
641.000000	0.572320 
640.000000	0.572860 
639.000000	0.573680 
638.000000	0.574340 
637.000000	0.575090 
636.000000	0.575780 
635.000000	0.576450 
634.000000	0.577170 
633.000000	0.578060 
632.000000	0.578900 
631.000000	0.579670 
630.000000	0.580460 
629.000000	0.581190 
628.000000	0.581860 
627.000000	0.582600 
626.000000	0.583250 
625.000000	0.584290 
624.000000	0.585200 
623.000000	0.586090 
622.000000	0.586710 
621.000000	0.587650 
620.000000	0.588390 
619.000000	0.589050 
618.000000	0.589809 
617.000000	0.590660 
616.000000	0.591530 
615.000000	0.592710 
614.000000	0.593470 
613.000000	0.594440 
612.000000	0.595350 
611.000000	0.596280 
610.000000	0.597150 
609.000000	0.598079 
608.000000	0.599020 
607.000000	0.600030 
606.000000	0.600800 
605.000000	0.601850 
604.000000	0.602810 
603.000000	0.603689 
602.000000	0.604540 
601.000000	0.605510 
600.000000	0.606300 
599.000000	0.607280 
598.000000	0.608180 
597.000000	0.609260 
596.000000	0.610440 
595.000000	0.611280 
594.000000	0.612300 
593.000000	0.613410 
592.000000	0.614480 
591.000000	0.615590 
590.000000	0.616730 
589.000000	0.617960 
588.000000	0.619080 
587.000000	0.620449 
586.000000	0.621560 
585.000000	0.622880 
584.000000	0.624140 
583.000000	0.625480 
582.000000	0.626680 
581.000000	0.628040 
580.000000	0.629180 
579.000000	0.630370 
578.000000	0.631510 
577.000000	0.633020 
576.000000	0.634270 
575.000000	0.635640 
574.000000	0.637120 
573.000000	0.638390 
572.000000	0.639800 
571.000000	0.641280 
570.000000	0.642530 
569.000000	0.644170 
568.000000	0.645620 
567.000000	0.647050 
566.000000	0.648640 
565.000000	0.650380 
564.000000	0.652130 
563.000000	0.653820 
562.000000	0.655520 
561.000000	0.657510 
560.000000	0.659359 
559.000000	0.661240 
558.000000	0.662060 
557.000000	0.663960 
556.000000	0.665560 
555.000000	0.667530 
554.000000	0.669200 
553.000000	0.671239 
552.000000	0.673290 
551.000000	0.675110 
550.000000	0.676899 
549.000000	0.679240 
548.000000	0.681230 
547.000000	0.683230 
546.000000	0.684890 
545.000000	0.687380 
544.000000	0.689190 
543.000000	0.691450 
542.000000	0.693450 
541.000000	0.695560 
540.000000	0.697770 
539.000000	0.699800 
538.000000	0.701550 
537.000000	0.704140 
536.000000	0.706280 
535.000000	0.708590 
534.000000	0.710690 
533.000000	0.712990 
532.000000	0.715199 
531.000000	0.717620 
530.000000	0.719790 
529.000000	0.722360 
528.000000	0.724730 
527.000000	0.726940 
526.000000	0.729129 
525.000000	0.731280 
524.000000	0.733500 
523.000000	0.735540 
522.000000	0.737540 
521.000000	0.740260 
520.000000	0.742390 
519.000000	0.744449 
518.000000	0.746700 
517.000000	0.748710 
516.000000	0.750730 
515.000000	0.752920 
514.000000	0.754380 
513.000000	0.756329 
512.000000	0.758670 
511.000000	0.760840 
510.000000	0.762360 
509.000000	0.764540 
508.000000	0.766310 
507.000000	0.767970 
506.000000	0.769340 
505.000000	0.771090 
504.000000	0.772869 
503.000000	0.774750 
502.000000	0.776340 
501.000000	0.778000 
500.000000	0.779600 
499.000000	0.780770 
498.000000	0.781730 
497.000000	0.783780 
496.000000	0.785100 
495.000000	0.786330 
494.000000	0.787610 
493.000000	0.788870 
492.000000	0.790350 
491.000000	0.791000 
490.000000	0.791610 
489.000000	0.792890 
488.000000	0.793950 
487.000000	0.794960 
486.000000	0.795410 
485.000000	0.796070 
484.000000	0.796790 
483.000000	0.797710 
482.000000	0.797520 
481.000000	0.798690 
480.000000	0.799310 
479.000000	0.800410 
478.000000	0.800350 
477.000000	0.800830 
476.000000	0.801110 
475.000000	0.801060 
474.000000	0.800800 
473.000000	0.801670 
472.000000	0.802289 
471.000000	0.802190 
470.000000	0.802100 
469.000000	0.802560 
468.000000	0.802280 
467.000000	0.802390 
466.000000	0.801550 
465.000000	0.801670 
464.000000	0.802120 
463.000000	0.802090 
462.000000	0.802060 
461.000000	0.802150 
460.000000	0.801890 
459.000000	0.801630 
458.000000	0.801020 
457.000000	0.801890 
456.000000	0.801740 
455.000000	0.802069 
454.000000	0.802190 
453.000000	0.801990 
452.000000	0.802040 
451.000000	0.802100 
450.000000	0.801090 
449.000000	0.802390 
448.000000	0.802400 
447.000000	0.802440 
446.000000	0.802990 
445.000000	0.802930 
444.000000	0.803810 
443.000000	0.803790 
442.000000	0.803630 
441.000000	0.805290 
440.000000	0.805820 
439.000000	0.807530 
438.000000	0.807770 
437.000000	0.808780 
436.000000	0.809800 
435.000000	0.810500 
434.000000	0.810640 
433.000000	0.813910 
432.000000	0.815640 
431.000000	0.817580 
430.000000	0.819020 
429.000000	0.822360 
428.000000	0.824260 
427.000000	0.827030 
426.000000	0.828640 
425.000000	0.833830 
424.000000	0.837260 
423.000000	0.840990 
422.000000	0.845630 
421.000000	0.853090 
420.000000	0.857650 
419.000000	0.862580 
418.000000	0.867770 
417.000000	0.873720 
416.000000	0.880530 
415.000000	0.886760 
414.000000	0.894080 
413.000000	0.901550 
412.000000	0.909370 
411.000000	0.917680 
410.000000	0.925810 
409.000000	0.935250 
408.000000	0.945910 
407.000000	0.956270 
406.000000	0.966610 
405.000000	0.977180 
404.000000	0.988600 
403.000000	0.999260 
402.000000	1.010080 
401.000000	1.022600 
400.000000	1.035200 

