PE UV                   SPECTRUM    ASCII       PEDS        1.60        
  -1
23MS153.SP
24/08/30
17:25:10.00
24/08/30
17:26:40.00


400.000000
1









4444

SCAN
1
1


0.0
480.0
2.00
MANUAL



UV/VIS




































#HDR
-1
-1
#GR
NM
A
0.00000011920928955078
0.0
700.000000
1.000000
301
8
0.875010
0.071300
#DATA
700.000000	0.071300 
699.000000	0.071650 
698.000000	0.071950 
697.000000	0.072240 
696.000000	0.072480 
695.000000	0.072800 
694.000000	0.073070 
693.000000	0.073260 
692.000000	0.073690 
691.000000	0.074039 
690.000000	0.074329 
689.000000	0.074570 
688.000000	0.074870 
687.000000	0.075240 
686.000000	0.075500 
685.000000	0.075870 
684.000000	0.076500 
683.000000	0.076790 
682.000000	0.077200 
681.000000	0.077530 
680.000000	0.077830 
679.000000	0.077890 
678.000000	0.078229 
677.000000	0.078560 
676.000000	0.078940 
675.000000	0.079220 
674.000000	0.079470 
673.000000	0.079780 
672.000000	0.080140 
671.000000	0.080610 
670.000000	0.080910 
669.000000	0.081280 
668.000000	0.081480 
667.000000	0.081989 
666.000000	0.082270 
665.000000	0.082660 
664.000000	0.083030 
663.000000	0.083380 
662.000000	0.083720 
661.000000	0.084180 
660.000000	0.084540 
659.000000	0.084770 
658.000000	0.085180 
657.000000	0.085500 
656.000000	0.085850 
655.000000	0.086200 
654.000000	0.086510 
653.000000	0.086929 
652.000000	0.087350 
651.000000	0.087740 
650.000000	0.088039 
649.000000	0.088310 
648.000000	0.088820 
647.000000	0.089270 
646.000000	0.089700 
645.000000	0.090000 
644.000000	0.090469 
643.000000	0.090870 
642.000000	0.091350 
641.000000	0.091660 
640.000000	0.092009 
639.000000	0.092460 
638.000000	0.092799 
637.000000	0.093140 
636.000000	0.093600 
635.000000	0.094060 
634.000000	0.094490 
633.000000	0.094990 
632.000000	0.095400 
631.000000	0.095820 
630.000000	0.096220 
629.000000	0.096590 
628.000000	0.097129 
627.000000	0.097559 
626.000000	0.098110 
625.000000	0.098520 
624.000000	0.099000 
623.000000	0.099630 
622.000000	0.100070 
621.000000	0.100490 
620.000000	0.101110 
619.000000	0.101680 
618.000000	0.102280 
617.000000	0.102770 
616.000000	0.103360 
615.000000	0.104020 
614.000000	0.104740 
613.000000	0.105280 
612.000000	0.105880 
611.000000	0.106550 
610.000000	0.107290 
609.000000	0.108000 
608.000000	0.108580 
607.000000	0.109280 
606.000000	0.110030 
605.000000	0.110810 
604.000000	0.111570 
603.000000	0.112330 
602.000000	0.113130 
601.000000	0.113930 
600.000000	0.114900 
599.000000	0.115770 
598.000000	0.116740 
597.000000	0.117820 
596.000000	0.118740 
595.000000	0.119820 
594.000000	0.120870 
593.000000	0.121880 
592.000000	0.123030 
591.000000	0.124130 
590.000000	0.125470 
589.000000	0.126540 
588.000000	0.127990 
587.000000	0.129340 
586.000000	0.130750 
585.000000	0.132120 
584.000000	0.133700 
583.000000	0.135100 
582.000000	0.136570 
581.000000	0.138080 
580.000000	0.139640 
579.000000	0.141390 
578.000000	0.143180 
577.000000	0.144970 
576.000000	0.146780 
575.000000	0.148690 
574.000000	0.150600 
573.000000	0.152640 
572.000000	0.154530 
571.000000	0.156700 
570.000000	0.158810 
569.000000	0.161090 
568.000000	0.163550 
567.000000	0.165840 
566.000000	0.168520 
565.000000	0.170930 
564.000000	0.173550 
563.000000	0.176240 
562.000000	0.178880 
561.000000	0.181820 
560.000000	0.184660 
559.000000	0.187750 
558.000000	0.190980 
557.000000	0.194220 
556.000000	0.197430 
555.000000	0.200650 
554.000000	0.203810 
553.000000	0.207150 
552.000000	0.210540 
551.000000	0.214070 
550.000000	0.217450 
549.000000	0.221030 
548.000000	0.224970 
547.000000	0.228640 
546.000000	0.232300 
545.000000	0.236100 
544.000000	0.239950 
543.000000	0.243950 
542.000000	0.247950 
541.000000	0.251900 
540.000000	0.256010 
539.000000	0.260170 
538.000000	0.264340 
537.000000	0.268450 
536.000000	0.272560 
535.000000	0.276610 
534.000000	0.280810 
533.000000	0.285170 
532.000000	0.289510 
531.000000	0.293950 
530.000000	0.298540 
529.000000	0.302900 
528.000000	0.307190 
527.000000	0.311520 
526.000000	0.315800 
525.000000	0.320060 
524.000000	0.324280 
523.000000	0.328580 
522.000000	0.332660 
521.000000	0.336820 
520.000000	0.340980 
519.000000	0.344940 
518.000000	0.348800 
517.000000	0.352560 
516.000000	0.356280 
515.000000	0.359770 
514.000000	0.363410 
513.000000	0.367070 
512.000000	0.370760 
511.000000	0.374010 
510.000000	0.377520 
509.000000	0.380740 
508.000000	0.383790 
507.000000	0.386790 
506.000000	0.389480 
505.000000	0.392400 
504.000000	0.395230 
503.000000	0.397730 
502.000000	0.400270 
501.000000	0.402570 
500.000000	0.404850 
499.000000	0.407000 
498.000000	0.408580 
497.000000	0.410450 
496.000000	0.412200 
495.000000	0.413810 
494.000000	0.415150 
493.000000	0.416320 
492.000000	0.417310 
491.000000	0.418330 
490.000000	0.418980 
489.000000	0.419570 
488.000000	0.419840 
487.000000	0.420290 
486.000000	0.420420 
485.000000	0.420610 
484.000000	0.420770 
483.000000	0.420460 
482.000000	0.420180 
481.000000	0.419920 
480.000000	0.419410 
479.000000	0.418930 
478.000000	0.418220 
477.000000	0.417450 
476.000000	0.416610 
475.000000	0.415610 
474.000000	0.414180 
473.000000	0.413070 
472.000000	0.411880 
471.000000	0.410280 
470.000000	0.408900 
469.000000	0.407800 
468.000000	0.406270 
467.000000	0.404570 
466.000000	0.402790 
465.000000	0.401270 
464.000000	0.399760 
463.000000	0.398010 
462.000000	0.396350 
461.000000	0.394850 
460.000000	0.393030 
459.000000	0.391590 
458.000000	0.389720 
457.000000	0.388430 
456.000000	0.386760 
455.000000	0.385590 
454.000000	0.384090 
453.000000	0.382750 
452.000000	0.381610 
451.000000	0.380220 
450.000000	0.379210 
449.000000	0.378490 
448.000000	0.377880 
447.000000	0.377020 
446.000000	0.376520 
445.000000	0.376090 
444.000000	0.375970 
443.000000	0.375870 
442.000000	0.376090 
441.000000	0.377020 
440.000000	0.377690 
439.000000	0.379060 
438.000000	0.380400 
437.000000	0.382120 
436.000000	0.384200 
435.000000	0.386580 
434.000000	0.389300 
433.000000	0.392800 
432.000000	0.396360 
431.000000	0.400200 
430.000000	0.404710 
429.000000	0.409270 
428.000000	0.414980 
427.000000	0.420770 
426.000000	0.427360 
425.000000	0.435040 
424.000000	0.443030 
423.000000	0.451900 
422.000000	0.460900 
421.000000	0.471380 
420.000000	0.481960 
419.000000	0.493470 
418.000000	0.505560 
417.000000	0.519000 
416.000000	0.533310 
415.000000	0.548520 
414.000000	0.564680 
413.000000	0.581280 
412.000000	0.598850 
411.000000	0.617270 
410.000000	0.636870 
409.000000	0.657919 
408.000000	0.680520 
407.000000	0.703040 
406.000000	0.726550 
405.000000	0.749630 
404.000000	0.774030 
403.000000	0.798350 
402.000000	0.822780 
401.000000	0.848580 
400.000000	0.875010 

