PE UV                   SPECTRUM    ASCII       PEDS        1.60        
  -1
23MS008.SP
24/09/03
16:21:39.00
24/09/03
16:22:46.00


400.000000
1









4444

SCAN
1
1


0.0
480.0
2.00
MANUAL



UV/VIS




































#HDR
-1
-1
#GR
NM
A
0.00000011920928955078
0.0
700.000000
1.000000
301
8
0.707480
0.018910
#DATA
700.000000	0.019090 
699.000000	0.018910 
698.000000	0.018960 
697.000000	0.019060 
696.000000	0.019060 
695.000000	0.019100 
694.000000	0.018990 
693.000000	0.019090 
692.000000	0.019010 
691.000000	0.019080 
690.000000	0.019070 
689.000000	0.019040 
688.000000	0.019210 
687.000000	0.019200 
686.000000	0.019350 
685.000000	0.019280 
684.000000	0.019290 
683.000000	0.019310 
682.000000	0.019460 
681.000000	0.019590 
680.000000	0.019650 
679.000000	0.019610 
678.000000	0.019810 
677.000000	0.019840 
676.000000	0.019820 
675.000000	0.019960 
674.000000	0.019990 
673.000000	0.020040 
672.000000	0.020230 
671.000000	0.020310 
670.000000	0.020290 
669.000000	0.020360 
668.000000	0.020510 
667.000000	0.020520 
666.000000	0.020580 
665.000000	0.020640 
664.000000	0.020790 
663.000000	0.020820 
662.000000	0.020860 
661.000000	0.020890 
660.000000	0.021130 
659.000000	0.021030 
658.000000	0.021130 
657.000000	0.021230 
656.000000	0.021290 
655.000000	0.021370 
654.000000	0.021400 
653.000000	0.021560 
652.000000	0.021600 
651.000000	0.021750 
650.000000	0.021900 
649.000000	0.021860 
648.000000	0.022010 
647.000000	0.022060 
646.000000	0.022240 
645.000000	0.022220 
644.000000	0.022310 
643.000000	0.022400 
642.000000	0.022600 
641.000000	0.022730 
640.000000	0.022780 
639.000000	0.022850 
638.000000	0.022970 
637.000000	0.023090 
636.000000	0.023170 
635.000000	0.023370 
634.000000	0.023500 
633.000000	0.023630 
632.000000	0.023790 
631.000000	0.023920 
630.000000	0.024160 
629.000000	0.024250 
628.000000	0.024450 
627.000000	0.024560 
626.000000	0.024800 
625.000000	0.024950 
624.000000	0.025190 
623.000000	0.025450 
622.000000	0.025650 
621.000000	0.025870 
620.000000	0.026130 
619.000000	0.026420 
618.000000	0.026630 
617.000000	0.027000 
616.000000	0.027340 
615.000000	0.027700 
614.000000	0.027990 
613.000000	0.028320 
612.000000	0.028640 
611.000000	0.029170 
610.000000	0.029450 
609.000000	0.029940 
608.000000	0.030350 
607.000000	0.030790 
606.000000	0.031270 
605.000000	0.031790 
604.000000	0.032440 
603.000000	0.033050 
602.000000	0.033650 
601.000000	0.034250 
600.000000	0.034960 
599.000000	0.035700 
598.000000	0.036430 
597.000000	0.037320 
596.000000	0.038110 
595.000000	0.039180 
594.000000	0.040070 
593.000000	0.041250 
592.000000	0.042290 
591.000000	0.043550 
590.000000	0.044750 
589.000000	0.046000 
588.000000	0.047440 
587.000000	0.048900 
586.000000	0.050580 
585.000000	0.052260 
584.000000	0.054070 
583.000000	0.055770 
582.000000	0.057600 
581.000000	0.059600 
580.000000	0.061590 
579.000000	0.063700 
578.000000	0.066010 
577.000000	0.068430 
576.000000	0.070870 
575.000000	0.073580 
574.000000	0.076450 
573.000000	0.079400 
572.000000	0.082350 
571.000000	0.085389 
570.000000	0.088560 
569.000000	0.091960 
568.000000	0.095440 
567.000000	0.099230 
566.000000	0.103110 
565.000000	0.107120 
564.000000	0.111440 
563.000000	0.115810 
562.000000	0.120350 
561.000000	0.125030 
560.000000	0.129730 
559.000000	0.134770 
558.000000	0.140980 
557.000000	0.146570 
556.000000	0.152450 
555.000000	0.158290 
554.000000	0.164050 
553.000000	0.170100 
552.000000	0.176000 
551.000000	0.182160 
550.000000	0.188460 
549.000000	0.195080 
548.000000	0.201710 
547.000000	0.208550 
546.000000	0.215330 
545.000000	0.222460 
544.000000	0.229780 
543.000000	0.237100 
542.000000	0.244240 
541.000000	0.251670 
540.000000	0.259120 
539.000000	0.266880 
538.000000	0.274870 
537.000000	0.282840 
536.000000	0.290960 
535.000000	0.299180 
534.000000	0.307200 
533.000000	0.315470 
532.000000	0.323530 
531.000000	0.331580 
530.000000	0.339970 
529.000000	0.348460 
528.000000	0.356690 
527.000000	0.365150 
526.000000	0.373440 
525.000000	0.381570 
524.000000	0.389410 
523.000000	0.396860 
522.000000	0.404600 
521.000000	0.412330 
520.000000	0.420000 
519.000000	0.427360 
518.000000	0.434470 
517.000000	0.441430 
516.000000	0.448310 
515.000000	0.454880 
514.000000	0.461330 
513.000000	0.467600 
512.000000	0.473680 
511.000000	0.479320 
510.000000	0.484960 
509.000000	0.490770 
508.000000	0.496090 
507.000000	0.500980 
506.000000	0.505750 
505.000000	0.510100 
504.000000	0.514290 
503.000000	0.517930 
502.000000	0.521540 
501.000000	0.524649 
500.000000	0.527760 
499.000000	0.530660 
498.000000	0.532440 
497.000000	0.534700 
496.000000	0.536410 
495.000000	0.537340 
494.000000	0.538600 
493.000000	0.538680 
492.000000	0.538890 
491.000000	0.538960 
490.000000	0.538280 
489.000000	0.537470 
488.000000	0.536560 
487.000000	0.535160 
486.000000	0.533220 
485.000000	0.531230 
484.000000	0.528780 
483.000000	0.526330 
482.000000	0.522869 
481.000000	0.519720 
480.000000	0.516220 
479.000000	0.512400 
478.000000	0.508190 
477.000000	0.503800 
476.000000	0.499250 
475.000000	0.494360 
474.000000	0.488980 
473.000000	0.483770 
472.000000	0.478190 
471.000000	0.472190 
470.000000	0.466240 
469.000000	0.460030 
468.000000	0.453520 
467.000000	0.446960 
466.000000	0.440130 
465.000000	0.433710 
464.000000	0.427100 
463.000000	0.419720 
462.000000	0.413280 
461.000000	0.406490 
460.000000	0.399640 
459.000000	0.392350 
458.000000	0.385020 
457.000000	0.378600 
456.000000	0.371940 
455.000000	0.364920 
454.000000	0.358130 
453.000000	0.351250 
452.000000	0.344560 
451.000000	0.337890 
450.000000	0.331170 
449.000000	0.324910 
448.000000	0.318810 
447.000000	0.312850 
446.000000	0.306960 
445.000000	0.301400 
444.000000	0.295930 
443.000000	0.290800 
442.000000	0.285420 
441.000000	0.281180 
440.000000	0.276940 
439.000000	0.272750 
438.000000	0.269490 
437.000000	0.266500 
436.000000	0.264220 
435.000000	0.262010 
434.000000	0.260210 
433.000000	0.258960 
432.000000	0.258580 
431.000000	0.258550 
430.000000	0.259230 
429.000000	0.260400 
428.000000	0.262280 
427.000000	0.264760 
426.000000	0.267780 
425.000000	0.271710 
424.000000	0.277030 
423.000000	0.282690 
422.000000	0.289440 
421.000000	0.297110 
420.000000	0.305550 
419.000000	0.314850 
418.000000	0.324900 
417.000000	0.336250 
416.000000	0.348560 
415.000000	0.362420 
414.000000	0.377490 
413.000000	0.393800 
412.000000	0.411320 
411.000000	0.430140 
410.000000	0.450180 
409.000000	0.471240 
408.000000	0.493590 
407.000000	0.516780 
406.000000	0.541370 
405.000000	0.566800 
404.000000	0.593270 
403.000000	0.620260 
402.000000	0.648670 
401.000000	0.677950 
400.000000	0.707480 

