PE UV                   SPECTRUM    ASCII       PEDS        1.60        
  -1
23MS220.SP
24/09/02
16:47:59.00
24/09/02
16:49:13.00


400.000000
1









4444

SCAN
1
1


0.0
480.0
2.00
MANUAL



UV/VIS




































#HDR
-1
-1
#GR
NM
A
0.00000011920928955078
0.0
700.000000
1.000000
301
8
0.481770
0.009440
#DATA
700.000000	0.009440 
699.000000	0.009630 
698.000000	0.009549 
697.000000	0.009580 
696.000000	0.009560 
695.000000	0.009660 
694.000000	0.009639 
693.000000	0.009639 
692.000000	0.009610 
691.000000	0.009730 
690.000000	0.009679 
689.000000	0.009679 
688.000000	0.009690 
687.000000	0.009610 
686.000000	0.009719 
685.000000	0.009690 
684.000000	0.009780 
683.000000	0.009900 
682.000000	0.009900 
681.000000	0.009960 
680.000000	0.010040 
679.000000	0.010190 
678.000000	0.010330 
677.000000	0.010280 
676.000000	0.010320 
675.000000	0.010430 
674.000000	0.010430 
673.000000	0.010580 
672.000000	0.010590 
671.000000	0.010480 
670.000000	0.010650 
669.000000	0.010600 
668.000000	0.010620 
667.000000	0.010690 
666.000000	0.010590 
665.000000	0.010610 
664.000000	0.010630 
663.000000	0.010650 
662.000000	0.010770 
661.000000	0.010800 
660.000000	0.010800 
659.000000	0.010890 
658.000000	0.010820 
657.000000	0.010960 
656.000000	0.011040 
655.000000	0.011150 
654.000000	0.011240 
653.000000	0.011300 
652.000000	0.011370 
651.000000	0.011440 
650.000000	0.011380 
649.000000	0.011500 
648.000000	0.011550 
647.000000	0.011660 
646.000000	0.011730 
645.000000	0.011850 
644.000000	0.011980 
643.000000	0.012010 
642.000000	0.012100 
641.000000	0.012250 
640.000000	0.012260 
639.000000	0.012380 
638.000000	0.012450 
637.000000	0.012680 
636.000000	0.012740 
635.000000	0.012800 
634.000000	0.012880 
633.000000	0.013110 
632.000000	0.013220 
631.000000	0.013250 
630.000000	0.013460 
629.000000	0.013680 
628.000000	0.013850 
627.000000	0.013920 
626.000000	0.014110 
625.000000	0.014310 
624.000000	0.014580 
623.000000	0.014830 
622.000000	0.014930 
621.000000	0.015100 
620.000000	0.015340 
619.000000	0.015610 
618.000000	0.015860 
617.000000	0.016150 
616.000000	0.016420 
615.000000	0.016730 
614.000000	0.016900 
613.000000	0.017260 
612.000000	0.017540 
611.000000	0.017940 
610.000000	0.018360 
609.000000	0.018590 
608.000000	0.018970 
607.000000	0.019410 
606.000000	0.019930 
605.000000	0.020300 
604.000000	0.020810 
603.000000	0.021240 
602.000000	0.021760 
601.000000	0.022430 
600.000000	0.022980 
599.000000	0.023570 
598.000000	0.024210 
597.000000	0.024950 
596.000000	0.025680 
595.000000	0.026390 
594.000000	0.027160 
593.000000	0.028080 
592.000000	0.028950 
591.000000	0.029950 
590.000000	0.030930 
589.000000	0.031990 
588.000000	0.033230 
587.000000	0.034390 
586.000000	0.035600 
585.000000	0.036810 
584.000000	0.038150 
583.000000	0.039550 
582.000000	0.041010 
581.000000	0.042470 
580.000000	0.044100 
579.000000	0.045700 
578.000000	0.047440 
577.000000	0.049300 
576.000000	0.051180 
575.000000	0.053070 
574.000000	0.055210 
573.000000	0.057270 
572.000000	0.059470 
571.000000	0.061840 
570.000000	0.064320 
569.000000	0.066900 
568.000000	0.069560 
567.000000	0.072170 
566.000000	0.075060 
565.000000	0.077960 
564.000000	0.080940 
563.000000	0.084169 
562.000000	0.087600 
561.000000	0.091250 
560.000000	0.094810 
559.000000	0.098590 
558.000000	0.102800 
557.000000	0.106760 
556.000000	0.110780 
555.000000	0.114900 
554.000000	0.118990 
553.000000	0.123300 
552.000000	0.127780 
551.000000	0.132240 
550.000000	0.136690 
549.000000	0.141530 
548.000000	0.146430 
547.000000	0.151240 
546.000000	0.155750 
545.000000	0.160730 
544.000000	0.165740 
543.000000	0.171070 
542.000000	0.176340 
541.000000	0.181730 
540.000000	0.187240 
539.000000	0.192780 
538.000000	0.198100 
537.000000	0.203700 
536.000000	0.209160 
535.000000	0.214910 
534.000000	0.220520 
533.000000	0.226360 
532.000000	0.232260 
531.000000	0.238120 
530.000000	0.244130 
529.000000	0.249890 
528.000000	0.255630 
527.000000	0.261140 
526.000000	0.266830 
525.000000	0.272420 
524.000000	0.277910 
523.000000	0.283550 
522.000000	0.288930 
521.000000	0.294330 
520.000000	0.299630 
519.000000	0.304660 
518.000000	0.309450 
517.000000	0.314120 
516.000000	0.318750 
515.000000	0.323400 
514.000000	0.327810 
513.000000	0.332200 
512.000000	0.336540 
511.000000	0.340680 
510.000000	0.344480 
509.000000	0.348200 
508.000000	0.351830 
507.000000	0.355040 
506.000000	0.358200 
505.000000	0.361180 
504.000000	0.364160 
503.000000	0.367070 
502.000000	0.369230 
501.000000	0.371520 
500.000000	0.373530 
499.000000	0.375270 
498.000000	0.376630 
497.000000	0.377920 
496.000000	0.379040 
495.000000	0.379840 
494.000000	0.380420 
493.000000	0.380670 
492.000000	0.381070 
491.000000	0.380950 
490.000000	0.380060 
489.000000	0.379640 
488.000000	0.378940 
487.000000	0.378030 
486.000000	0.376440 
485.000000	0.375120 
484.000000	0.373290 
483.000000	0.371430 
482.000000	0.369200 
481.000000	0.367110 
480.000000	0.364440 
479.000000	0.361850 
478.000000	0.359160 
477.000000	0.355950 
476.000000	0.352650 
475.000000	0.349200 
474.000000	0.345140 
473.000000	0.341680 
472.000000	0.337610 
471.000000	0.333540 
470.000000	0.329450 
469.000000	0.325240 
468.000000	0.320770 
467.000000	0.316190 
466.000000	0.311600 
465.000000	0.306550 
464.000000	0.301680 
463.000000	0.296580 
462.000000	0.291870 
461.000000	0.287090 
460.000000	0.282260 
459.000000	0.277650 
458.000000	0.272770 
457.000000	0.268040 
456.000000	0.262980 
455.000000	0.257800 
454.000000	0.252690 
453.000000	0.247820 
452.000000	0.243260 
451.000000	0.238560 
450.000000	0.233810 
449.000000	0.229610 
448.000000	0.225140 
447.000000	0.220660 
446.000000	0.216460 
445.000000	0.212310 
444.000000	0.208030 
443.000000	0.204280 
442.000000	0.200630 
441.000000	0.197750 
440.000000	0.194400 
439.000000	0.191920 
438.000000	0.189060 
437.000000	0.186460 
436.000000	0.184660 
435.000000	0.182770 
434.000000	0.181460 
433.000000	0.180760 
432.000000	0.179920 
431.000000	0.179790 
430.000000	0.180010 
429.000000	0.180510 
428.000000	0.181590 
427.000000	0.183190 
426.000000	0.184950 
425.000000	0.187560 
424.000000	0.190780 
423.000000	0.194330 
422.000000	0.198630 
421.000000	0.204010 
420.000000	0.209420 
419.000000	0.215510 
418.000000	0.222530 
417.000000	0.230260 
416.000000	0.238840 
415.000000	0.248070 
414.000000	0.258090 
413.000000	0.268630 
412.000000	0.279930 
411.000000	0.292020 
410.000000	0.305520 
409.000000	0.319970 
408.000000	0.335900 
407.000000	0.352150 
406.000000	0.368920 
405.000000	0.386260 
404.000000	0.403910 
403.000000	0.422140 
402.000000	0.441100 
401.000000	0.460780 
400.000000	0.481770 

