PE UV                   SPECTRUM    ASCII       PEDS        1.60        
  -1
23MS234.SP
24/09/02
17:13:54.00
24/09/02
17:15:02.00


400.000000
1









4444

SCAN
1
1


0.0
480.0
2.00
MANUAL



UV/VIS




































#HDR
-1
-1
#GR
NM
A
0.00000011920928955078
0.0
700.000000
1.000000
301
8
0.172860
0.004960
#DATA
700.000000	0.005180 
699.000000	0.005270 
698.000000	0.005240 
697.000000	0.005330 
696.000000	0.005270 
695.000000	0.005380 
694.000000	0.005400 
693.000000	0.005450 
692.000000	0.005410 
691.000000	0.005430 
690.000000	0.005350 
689.000000	0.005400 
688.000000	0.005470 
687.000000	0.005350 
686.000000	0.005480 
685.000000	0.005380 
684.000000	0.005390 
683.000000	0.005320 
682.000000	0.005250 
681.000000	0.005100 
680.000000	0.005050 
679.000000	0.005140 
678.000000	0.005120 
677.000000	0.004960 
676.000000	0.005030 
675.000000	0.005170 
674.000000	0.005050 
673.000000	0.005020 
672.000000	0.005040 
671.000000	0.004970 
670.000000	0.005080 
669.000000	0.005100 
668.000000	0.005110 
667.000000	0.005140 
666.000000	0.005180 
665.000000	0.005190 
664.000000	0.005120 
663.000000	0.005260 
662.000000	0.005310 
661.000000	0.005340 
660.000000	0.005340 
659.000000	0.005370 
658.000000	0.005210 
657.000000	0.005330 
656.000000	0.005350 
655.000000	0.005420 
654.000000	0.005420 
653.000000	0.005530 
652.000000	0.005540 
651.000000	0.005630 
650.000000	0.005550 
649.000000	0.005510 
648.000000	0.005490 
647.000000	0.005660 
646.000000	0.005630 
645.000000	0.005750 
644.000000	0.005800 
643.000000	0.005800 
642.000000	0.005840 
641.000000	0.005890 
640.000000	0.005810 
639.000000	0.005940 
638.000000	0.006030 
637.000000	0.006050 
636.000000	0.006110 
635.000000	0.006090 
634.000000	0.006140 
633.000000	0.006230 
632.000000	0.006270 
631.000000	0.006310 
630.000000	0.006410 
629.000000	0.006520 
628.000000	0.006590 
627.000000	0.006630 
626.000000	0.006670 
625.000000	0.006760 
624.000000	0.006840 
623.000000	0.007060 
622.000000	0.007050 
621.000000	0.007150 
620.000000	0.007230 
619.000000	0.007330 
618.000000	0.007530 
617.000000	0.007510 
616.000000	0.007680 
615.000000	0.007900 
614.000000	0.007930 
613.000000	0.008130 
612.000000	0.008229 
611.000000	0.008390 
610.000000	0.008610 
609.000000	0.008730 
608.000000	0.008890 
607.000000	0.009100 
606.000000	0.009250 
605.000000	0.009410 
604.000000	0.009639 
603.000000	0.009910 
602.000000	0.010150 
601.000000	0.010400 
600.000000	0.010620 
599.000000	0.010940 
598.000000	0.011120 
597.000000	0.011390 
596.000000	0.011800 
595.000000	0.011910 
594.000000	0.012340 
593.000000	0.012740 
592.000000	0.013060 
591.000000	0.013490 
590.000000	0.013800 
589.000000	0.014180 
588.000000	0.014640 
587.000000	0.015030 
586.000000	0.015630 
585.000000	0.016060 
584.000000	0.016570 
583.000000	0.017100 
582.000000	0.017600 
581.000000	0.018060 
580.000000	0.018690 
579.000000	0.019390 
578.000000	0.019880 
577.000000	0.020530 
576.000000	0.021170 
575.000000	0.021840 
574.000000	0.022580 
573.000000	0.023280 
572.000000	0.024120 
571.000000	0.024920 
570.000000	0.025730 
569.000000	0.026660 
568.000000	0.027400 
567.000000	0.028350 
566.000000	0.029300 
565.000000	0.030220 
564.000000	0.031250 
563.000000	0.032280 
562.000000	0.033370 
561.000000	0.034650 
560.000000	0.035650 
559.000000	0.036930 
558.000000	0.038600 
557.000000	0.040050 
556.000000	0.041280 
555.000000	0.042680 
554.000000	0.044000 
553.000000	0.045340 
552.000000	0.046810 
551.000000	0.048010 
550.000000	0.049460 
549.000000	0.050990 
548.000000	0.052610 
547.000000	0.054050 
546.000000	0.055460 
545.000000	0.057090 
544.000000	0.058600 
543.000000	0.060450 
542.000000	0.061970 
541.000000	0.063659 
540.000000	0.065250 
539.000000	0.066970 
538.000000	0.068599 
537.000000	0.070370 
536.000000	0.072010 
535.000000	0.073880 
534.000000	0.075650 
533.000000	0.077400 
532.000000	0.079089 
531.000000	0.081010 
530.000000	0.082760 
529.000000	0.084580 
528.000000	0.086420 
527.000000	0.088109 
526.000000	0.090050 
525.000000	0.091740 
524.000000	0.093430 
523.000000	0.095150 
522.000000	0.096800 
521.000000	0.098320 
520.000000	0.100000 
519.000000	0.101590 
518.000000	0.103070 
517.000000	0.104460 
516.000000	0.105910 
515.000000	0.107390 
514.000000	0.108760 
513.000000	0.110030 
512.000000	0.111390 
511.000000	0.112590 
510.000000	0.113660 
509.000000	0.114930 
508.000000	0.116190 
507.000000	0.117200 
506.000000	0.118120 
505.000000	0.118990 
504.000000	0.119870 
503.000000	0.120780 
502.000000	0.121420 
501.000000	0.122100 
500.000000	0.122560 
499.000000	0.123230 
498.000000	0.123550 
497.000000	0.123850 
496.000000	0.124180 
495.000000	0.124420 
494.000000	0.124520 
493.000000	0.124470 
492.000000	0.124520 
491.000000	0.124510 
490.000000	0.124180 
489.000000	0.124050 
488.000000	0.123850 
487.000000	0.123330 
486.000000	0.122770 
485.000000	0.122350 
484.000000	0.121560 
483.000000	0.121190 
482.000000	0.120200 
481.000000	0.119640 
480.000000	0.118800 
479.000000	0.117890 
478.000000	0.116870 
477.000000	0.115940 
476.000000	0.114870 
475.000000	0.113770 
474.000000	0.112440 
473.000000	0.111460 
472.000000	0.110100 
471.000000	0.108760 
470.000000	0.107470 
469.000000	0.105950 
468.000000	0.104430 
467.000000	0.103080 
466.000000	0.101650 
465.000000	0.100140 
464.000000	0.098500 
463.000000	0.097010 
462.000000	0.095570 
461.000000	0.094130 
460.000000	0.092470 
459.000000	0.090950 
458.000000	0.089610 
457.000000	0.087950 
456.000000	0.086310 
455.000000	0.085070 
454.000000	0.083310 
453.000000	0.081870 
452.000000	0.080769 
451.000000	0.078990 
450.000000	0.077820 
449.000000	0.076300 
448.000000	0.074890 
447.000000	0.073600 
446.000000	0.072350 
445.000000	0.071130 
444.000000	0.069950 
443.000000	0.069060 
442.000000	0.067739 
441.000000	0.067030 
440.000000	0.066260 
439.000000	0.065379 
438.000000	0.064410 
437.000000	0.063950 
436.000000	0.063440 
435.000000	0.063030 
434.000000	0.062820 
433.000000	0.062750 
432.000000	0.062659 
431.000000	0.062700 
430.000000	0.063010 
429.000000	0.063519 
428.000000	0.063700 
427.000000	0.064510 
426.000000	0.065370 
425.000000	0.066379 
424.000000	0.067480 
423.000000	0.069060 
422.000000	0.070860 
421.000000	0.073210 
420.000000	0.075200 
419.000000	0.077430 
418.000000	0.079949 
417.000000	0.082590 
416.000000	0.085630 
415.000000	0.088969 
414.000000	0.092500 
413.000000	0.096310 
412.000000	0.100610 
411.000000	0.105020 
410.000000	0.109900 
409.000000	0.115110 
408.000000	0.120580 
407.000000	0.126260 
406.000000	0.132130 
405.000000	0.138260 
404.000000	0.144770 
403.000000	0.151280 
402.000000	0.158340 
401.000000	0.165280 
400.000000	0.172860 

