PE UV                   SPECTRUM    ASCII       PEDS        1.60        
  -1
23MS137.SP
24/08/30
17:07:41.00
24/08/30
17:08:44.00


400.000000
1









4444

SCAN
1
1


0.0
480.0
2.00
MANUAL



UV/VIS




































#HDR
-1
-1
#GR
NM
A
0.00000011920928955078
0.0
700.000000
1.000000
301
8
0.196060
0.014450
#DATA
700.000000	0.014460 
699.000000	0.014490 
698.000000	0.014470 
697.000000	0.014560 
696.000000	0.014480 
695.000000	0.014500 
694.000000	0.014520 
693.000000	0.014450 
692.000000	0.014560 
691.000000	0.014700 
690.000000	0.014700 
689.000000	0.014690 
688.000000	0.014640 
687.000000	0.014700 
686.000000	0.014740 
685.000000	0.014720 
684.000000	0.014770 
683.000000	0.014790 
682.000000	0.014840 
681.000000	0.014870 
680.000000	0.014850 
679.000000	0.014770 
678.000000	0.014870 
677.000000	0.014880 
676.000000	0.014950 
675.000000	0.014930 
674.000000	0.014940 
673.000000	0.014980 
672.000000	0.014920 
671.000000	0.015020 
670.000000	0.015050 
669.000000	0.015070 
668.000000	0.015060 
667.000000	0.015110 
666.000000	0.015080 
665.000000	0.015160 
664.000000	0.015200 
663.000000	0.015200 
662.000000	0.015180 
661.000000	0.015270 
660.000000	0.015270 
659.000000	0.015270 
658.000000	0.015330 
657.000000	0.015400 
656.000000	0.015350 
655.000000	0.015490 
654.000000	0.015360 
653.000000	0.015540 
652.000000	0.015440 
651.000000	0.015560 
650.000000	0.015500 
649.000000	0.015510 
648.000000	0.015530 
647.000000	0.015720 
646.000000	0.015630 
645.000000	0.015680 
644.000000	0.015680 
643.000000	0.015690 
642.000000	0.015820 
641.000000	0.015790 
640.000000	0.015840 
639.000000	0.015860 
638.000000	0.015930 
637.000000	0.015930 
636.000000	0.015970 
635.000000	0.016050 
634.000000	0.016060 
633.000000	0.016140 
632.000000	0.016230 
631.000000	0.016300 
630.000000	0.016320 
629.000000	0.016310 
628.000000	0.016420 
627.000000	0.016520 
626.000000	0.016610 
625.000000	0.016660 
624.000000	0.016740 
623.000000	0.016930 
622.000000	0.016920 
621.000000	0.016950 
620.000000	0.017090 
619.000000	0.017230 
618.000000	0.017410 
617.000000	0.017460 
616.000000	0.017480 
615.000000	0.017660 
614.000000	0.017840 
613.000000	0.017940 
612.000000	0.018070 
611.000000	0.018230 
610.000000	0.018340 
609.000000	0.018570 
608.000000	0.018760 
607.000000	0.018910 
606.000000	0.019090 
605.000000	0.019310 
604.000000	0.019500 
603.000000	0.019650 
602.000000	0.019880 
601.000000	0.020100 
600.000000	0.020410 
599.000000	0.020580 
598.000000	0.020960 
597.000000	0.021160 
596.000000	0.021440 
595.000000	0.021710 
594.000000	0.022070 
593.000000	0.022300 
592.000000	0.022660 
591.000000	0.023010 
590.000000	0.023510 
589.000000	0.023830 
588.000000	0.024280 
587.000000	0.024700 
586.000000	0.025170 
585.000000	0.025620 
584.000000	0.026170 
583.000000	0.026690 
582.000000	0.027160 
581.000000	0.027730 
580.000000	0.028210 
579.000000	0.028820 
578.000000	0.029380 
577.000000	0.029960 
576.000000	0.030670 
575.000000	0.031280 
574.000000	0.032020 
573.000000	0.032780 
572.000000	0.033430 
571.000000	0.034410 
570.000000	0.035080 
569.000000	0.035960 
568.000000	0.036850 
567.000000	0.037730 
566.000000	0.038720 
565.000000	0.039640 
564.000000	0.040610 
563.000000	0.041680 
562.000000	0.042690 
561.000000	0.043910 
560.000000	0.045150 
559.000000	0.046480 
558.000000	0.047750 
557.000000	0.048960 
556.000000	0.050170 
555.000000	0.051540 
554.000000	0.052830 
553.000000	0.054270 
552.000000	0.055660 
551.000000	0.057090 
550.000000	0.058360 
549.000000	0.059840 
548.000000	0.061440 
547.000000	0.062860 
546.000000	0.064290 
545.000000	0.065809 
544.000000	0.067440 
543.000000	0.069160 
542.000000	0.070880 
541.000000	0.072380 
540.000000	0.074170 
539.000000	0.075770 
538.000000	0.077500 
537.000000	0.079159 
536.000000	0.080820 
535.000000	0.082550 
534.000000	0.084240 
533.000000	0.086170 
532.000000	0.087940 
531.000000	0.089780 
530.000000	0.091710 
529.000000	0.093310 
528.000000	0.095010 
527.000000	0.096800 
526.000000	0.098610 
525.000000	0.100310 
524.000000	0.102040 
523.000000	0.103750 
522.000000	0.105340 
521.000000	0.106900 
520.000000	0.108530 
519.000000	0.110020 
518.000000	0.111520 
517.000000	0.112950 
516.000000	0.114510 
515.000000	0.115820 
514.000000	0.117260 
513.000000	0.118760 
512.000000	0.120070 
511.000000	0.121190 
510.000000	0.122550 
509.000000	0.123460 
508.000000	0.124740 
507.000000	0.125730 
506.000000	0.126670 
505.000000	0.127690 
504.000000	0.128640 
503.000000	0.129430 
502.000000	0.130130 
501.000000	0.130850 
500.000000	0.131480 
499.000000	0.132020 
498.000000	0.132360 
497.000000	0.132790 
496.000000	0.133240 
495.000000	0.133470 
494.000000	0.133690 
493.000000	0.133770 
492.000000	0.133850 
491.000000	0.133880 
490.000000	0.133540 
489.000000	0.133530 
488.000000	0.133210 
487.000000	0.132930 
486.000000	0.132620 
485.000000	0.132050 
484.000000	0.131620 
483.000000	0.130900 
482.000000	0.130260 
481.000000	0.129620 
480.000000	0.128820 
479.000000	0.128130 
478.000000	0.127150 
477.000000	0.126290 
476.000000	0.125390 
475.000000	0.124260 
474.000000	0.123010 
473.000000	0.122040 
472.000000	0.120770 
471.000000	0.119330 
470.000000	0.118270 
469.000000	0.117060 
468.000000	0.115610 
467.000000	0.114210 
466.000000	0.112770 
465.000000	0.111330 
464.000000	0.109830 
463.000000	0.108480 
462.000000	0.107120 
461.000000	0.105780 
460.000000	0.104310 
459.000000	0.103020 
458.000000	0.101510 
457.000000	0.100160 
456.000000	0.098700 
455.000000	0.097340 
454.000000	0.095839 
453.000000	0.094430 
452.000000	0.093170 
451.000000	0.091900 
450.000000	0.090820 
449.000000	0.089469 
448.000000	0.088340 
447.000000	0.086840 
446.000000	0.085750 
445.000000	0.084570 
444.000000	0.083739 
443.000000	0.082559 
442.000000	0.081850 
441.000000	0.081160 
440.000000	0.080400 
439.000000	0.079920 
438.000000	0.079620 
437.000000	0.079080 
436.000000	0.078700 
435.000000	0.078470 
434.000000	0.078600 
433.000000	0.078760 
432.000000	0.078960 
431.000000	0.079330 
430.000000	0.080010 
429.000000	0.080449 
428.000000	0.081440 
427.000000	0.082379 
426.000000	0.083529 
425.000000	0.084980 
424.000000	0.086440 
423.000000	0.088080 
422.000000	0.090090 
421.000000	0.091470 
420.000000	0.093530 
419.000000	0.096350 
418.000000	0.099300 
417.000000	0.102420 
416.000000	0.105960 
415.000000	0.109370 
414.000000	0.113310 
413.000000	0.117320 
412.000000	0.121760 
411.000000	0.126550 
410.000000	0.131760 
409.000000	0.137360 
408.000000	0.143140 
407.000000	0.149030 
406.000000	0.155120 
405.000000	0.161190 
404.000000	0.167700 
403.000000	0.174370 
402.000000	0.181160 
401.000000	0.188520 
400.000000	0.196060 

