PE UV                   SPECTRUM    ASCII       PEDS        1.60        
  -1
23MS101.SP
24/09/05
16:04:10.00
24/09/05
16:05:21.00


400.000000
1









4444

SCAN
1
1


0.0
480.0
2.00
MANUAL



UV/VIS




































#HDR
-1
-1
#GR
NM
A
0.00000011920928955078
0.0
700.000000
1.000000
301
8
0.213650
0.023800
#DATA
700.000000	0.024150 
699.000000	0.024070 
698.000000	0.024120 
697.000000	0.024100 
696.000000	0.024100 
695.000000	0.024150 
694.000000	0.024130 
693.000000	0.024080 
692.000000	0.024060 
691.000000	0.024040 
690.000000	0.024070 
689.000000	0.024070 
688.000000	0.024090 
687.000000	0.024120 
686.000000	0.024070 
685.000000	0.024090 
684.000000	0.024200 
683.000000	0.024030 
682.000000	0.023800 
681.000000	0.023860 
680.000000	0.023880 
679.000000	0.023830 
678.000000	0.023980 
677.000000	0.024070 
676.000000	0.024070 
675.000000	0.024130 
674.000000	0.024100 
673.000000	0.024210 
672.000000	0.024200 
671.000000	0.024160 
670.000000	0.024180 
669.000000	0.024210 
668.000000	0.024100 
667.000000	0.024190 
666.000000	0.024250 
665.000000	0.024240 
664.000000	0.024260 
663.000000	0.024230 
662.000000	0.024210 
661.000000	0.024130 
660.000000	0.024240 
659.000000	0.024320 
658.000000	0.024290 
657.000000	0.024370 
656.000000	0.024350 
655.000000	0.024350 
654.000000	0.024400 
653.000000	0.024460 
652.000000	0.024440 
651.000000	0.024440 
650.000000	0.024440 
649.000000	0.024430 
648.000000	0.024490 
647.000000	0.024560 
646.000000	0.024610 
645.000000	0.024690 
644.000000	0.024610 
643.000000	0.024660 
642.000000	0.024650 
641.000000	0.024660 
640.000000	0.024790 
639.000000	0.024740 
638.000000	0.024870 
637.000000	0.024910 
636.000000	0.024980 
635.000000	0.024920 
634.000000	0.025000 
633.000000	0.025020 
632.000000	0.025080 
631.000000	0.025060 
630.000000	0.025200 
629.000000	0.025210 
628.000000	0.025280 
627.000000	0.025260 
626.000000	0.025440 
625.000000	0.025420 
624.000000	0.025500 
623.000000	0.025600 
622.000000	0.025610 
621.000000	0.025740 
620.000000	0.025820 
619.000000	0.025930 
618.000000	0.026060 
617.000000	0.026110 
616.000000	0.026200 
615.000000	0.026320 
614.000000	0.026390 
613.000000	0.026430 
612.000000	0.026630 
611.000000	0.026810 
610.000000	0.026880 
609.000000	0.027040 
608.000000	0.027250 
607.000000	0.027460 
606.000000	0.027600 
605.000000	0.027790 
604.000000	0.027880 
603.000000	0.028210 
602.000000	0.028350 
601.000000	0.028600 
600.000000	0.028810 
599.000000	0.029050 
598.000000	0.029340 
597.000000	0.029570 
596.000000	0.029870 
595.000000	0.030090 
594.000000	0.030500 
593.000000	0.030810 
592.000000	0.031170 
591.000000	0.031460 
590.000000	0.031900 
589.000000	0.032290 
588.000000	0.032740 
587.000000	0.033120 
586.000000	0.033650 
585.000000	0.034070 
584.000000	0.034700 
583.000000	0.035210 
582.000000	0.035780 
581.000000	0.036370 
580.000000	0.037060 
579.000000	0.037640 
578.000000	0.038340 
577.000000	0.038900 
576.000000	0.039670 
575.000000	0.040400 
574.000000	0.041190 
573.000000	0.042010 
572.000000	0.042980 
571.000000	0.043770 
570.000000	0.044720 
569.000000	0.045820 
568.000000	0.046790 
567.000000	0.047790 
566.000000	0.048930 
565.000000	0.050160 
564.000000	0.051310 
563.000000	0.052490 
562.000000	0.053810 
561.000000	0.055160 
560.000000	0.056510 
559.000000	0.058130 
558.000000	0.059930 
557.000000	0.061490 
556.000000	0.063089 
555.000000	0.064680 
554.000000	0.066360 
553.000000	0.067919 
552.000000	0.069639 
551.000000	0.071460 
550.000000	0.073270 
549.000000	0.075050 
548.000000	0.076840 
547.000000	0.078680 
546.000000	0.080620 
545.000000	0.082460 
544.000000	0.084560 
543.000000	0.086569 
542.000000	0.088620 
541.000000	0.090750 
540.000000	0.092890 
539.000000	0.094860 
538.000000	0.097059 
537.000000	0.099200 
536.000000	0.101370 
535.000000	0.103500 
534.000000	0.105760 
533.000000	0.108150 
532.000000	0.110290 
531.000000	0.112740 
530.000000	0.114960 
529.000000	0.117310 
528.000000	0.119380 
527.000000	0.121580 
526.000000	0.124010 
525.000000	0.126100 
524.000000	0.128350 
523.000000	0.130440 
522.000000	0.132490 
521.000000	0.134510 
520.000000	0.136780 
519.000000	0.138650 
518.000000	0.140570 
517.000000	0.142460 
516.000000	0.144230 
515.000000	0.146160 
514.000000	0.147890 
513.000000	0.149740 
512.000000	0.151530 
511.000000	0.153120 
510.000000	0.154630 
509.000000	0.155900 
508.000000	0.157310 
507.000000	0.158540 
506.000000	0.159840 
505.000000	0.161340 
504.000000	0.162160 
503.000000	0.163190 
502.000000	0.164260 
501.000000	0.165060 
500.000000	0.165800 
499.000000	0.166480 
498.000000	0.167100 
497.000000	0.167450 
496.000000	0.168020 
495.000000	0.168330 
494.000000	0.168530 
493.000000	0.168710 
492.000000	0.168620 
491.000000	0.168630 
490.000000	0.168490 
489.000000	0.168100 
488.000000	0.167710 
487.000000	0.167390 
486.000000	0.166780 
485.000000	0.166180 
484.000000	0.165260 
483.000000	0.164500 
482.000000	0.163700 
481.000000	0.162650 
480.000000	0.161690 
479.000000	0.160790 
478.000000	0.159450 
477.000000	0.158250 
476.000000	0.156880 
475.000000	0.155690 
474.000000	0.154080 
473.000000	0.152490 
472.000000	0.150700 
471.000000	0.149120 
470.000000	0.147630 
469.000000	0.145590 
468.000000	0.144070 
467.000000	0.142090 
466.000000	0.140190 
465.000000	0.138210 
464.000000	0.136160 
463.000000	0.134300 
462.000000	0.132530 
461.000000	0.130510 
460.000000	0.128550 
459.000000	0.126640 
458.000000	0.124800 
457.000000	0.122770 
456.000000	0.120820 
455.000000	0.118710 
454.000000	0.116720 
453.000000	0.114970 
452.000000	0.113020 
451.000000	0.110900 
450.000000	0.109480 
449.000000	0.107630 
448.000000	0.105760 
447.000000	0.103900 
446.000000	0.102450 
445.000000	0.100790 
444.000000	0.099080 
443.000000	0.097860 
442.000000	0.096460 
441.000000	0.095230 
440.000000	0.094060 
439.000000	0.092830 
438.000000	0.091920 
437.000000	0.090930 
436.000000	0.090100 
435.000000	0.089700 
434.000000	0.088940 
433.000000	0.088480 
432.000000	0.088429 
431.000000	0.088400 
430.000000	0.088700 
429.000000	0.088969 
428.000000	0.089219 
427.000000	0.089980 
426.000000	0.090880 
425.000000	0.092480 
424.000000	0.093580 
423.000000	0.095120 
422.000000	0.096710 
421.000000	0.098720 
420.000000	0.101070 
419.000000	0.103720 
418.000000	0.106530 
417.000000	0.109820 
416.000000	0.113310 
415.000000	0.117090 
414.000000	0.121210 
413.000000	0.125430 
412.000000	0.130140 
411.000000	0.135320 
410.000000	0.141040 
409.000000	0.147080 
408.000000	0.153460 
407.000000	0.160130 
406.000000	0.167040 
405.000000	0.174030 
404.000000	0.181320 
403.000000	0.188870 
402.000000	0.196660 
401.000000	0.205040 
400.000000	0.213650 

