PE UV                   SPECTRUM    ASCII       PEDS        1.60        
  -1
23MS018.SP
24/09/10
16:12:50.00
24/09/10
16:13:55.00


400.000000
1









4444

SCAN
1
1


0.0
480.0
2.00
MANUAL



UV/VIS




































#HDR
-1
-1
#GR
NM
A
0.00000011920928955078
0.0
700.000000
1.000000
301
8
0.642010
0.005800
#DATA
700.000000	0.006270 
699.000000	0.006190 
698.000000	0.006200 
697.000000	0.006070 
696.000000	0.005940 
695.000000	0.005910 
694.000000	0.005950 
693.000000	0.005800 
692.000000	0.005840 
691.000000	0.005840 
690.000000	0.005820 
689.000000	0.005840 
688.000000	0.005860 
687.000000	0.005940 
686.000000	0.005880 
685.000000	0.005850 
684.000000	0.005820 
683.000000	0.006060 
682.000000	0.006210 
681.000000	0.006210 
680.000000	0.006300 
679.000000	0.006200 
678.000000	0.006360 
677.000000	0.006320 
676.000000	0.006330 
675.000000	0.006420 
674.000000	0.006290 
673.000000	0.006360 
672.000000	0.006370 
671.000000	0.006390 
670.000000	0.006450 
669.000000	0.006490 
668.000000	0.006410 
667.000000	0.006550 
666.000000	0.006610 
665.000000	0.006470 
664.000000	0.006540 
663.000000	0.006540 
662.000000	0.006650 
661.000000	0.006670 
660.000000	0.006640 
659.000000	0.006740 
658.000000	0.006770 
657.000000	0.006780 
656.000000	0.006880 
655.000000	0.006850 
654.000000	0.006980 
653.000000	0.006900 
652.000000	0.006970 
651.000000	0.007050 
650.000000	0.007150 
649.000000	0.007160 
648.000000	0.007200 
647.000000	0.007270 
646.000000	0.007320 
645.000000	0.007240 
644.000000	0.007340 
643.000000	0.007430 
642.000000	0.007440 
641.000000	0.007520 
640.000000	0.007710 
639.000000	0.007590 
638.000000	0.007760 
637.000000	0.007760 
636.000000	0.007860 
635.000000	0.007930 
634.000000	0.007950 
633.000000	0.008109 
632.000000	0.008180 
631.000000	0.008270 
630.000000	0.008340 
629.000000	0.008399 
628.000000	0.008529 
627.000000	0.008460 
626.000000	0.008580 
625.000000	0.008659 
624.000000	0.008670 
623.000000	0.008800 
622.000000	0.008920 
621.000000	0.009060 
620.000000	0.009140 
619.000000	0.009169 
618.000000	0.009270 
617.000000	0.009400 
616.000000	0.009420 
615.000000	0.009560 
614.000000	0.009719 
613.000000	0.009820 
612.000000	0.009910 
611.000000	0.010050 
610.000000	0.010090 
609.000000	0.010100 
608.000000	0.010280 
607.000000	0.010370 
606.000000	0.010560 
605.000000	0.010560 
604.000000	0.010770 
603.000000	0.010860 
602.000000	0.010980 
601.000000	0.011080 
600.000000	0.011260 
599.000000	0.011320 
598.000000	0.011550 
597.000000	0.011590 
596.000000	0.011820 
595.000000	0.011940 
594.000000	0.012190 
593.000000	0.012350 
592.000000	0.012490 
591.000000	0.012540 
590.000000	0.012730 
589.000000	0.012880 
588.000000	0.013060 
587.000000	0.013260 
586.000000	0.013510 
585.000000	0.013630 
584.000000	0.013890 
583.000000	0.014040 
582.000000	0.014240 
581.000000	0.014460 
580.000000	0.014660 
579.000000	0.014870 
578.000000	0.015060 
577.000000	0.015290 
576.000000	0.015580 
575.000000	0.015820 
574.000000	0.016070 
573.000000	0.016280 
572.000000	0.016610 
571.000000	0.016800 
570.000000	0.017210 
569.000000	0.017440 
568.000000	0.017760 
567.000000	0.018050 
566.000000	0.018470 
565.000000	0.018970 
564.000000	0.019280 
563.000000	0.019730 
562.000000	0.020150 
561.000000	0.020600 
560.000000	0.021150 
559.000000	0.021760 
558.000000	0.022980 
557.000000	0.023550 
556.000000	0.024440 
555.000000	0.025030 
554.000000	0.025870 
553.000000	0.026620 
552.000000	0.027490 
551.000000	0.028510 
550.000000	0.029390 
549.000000	0.030500 
548.000000	0.031710 
547.000000	0.032770 
546.000000	0.034080 
545.000000	0.035350 
544.000000	0.036780 
543.000000	0.038320 
542.000000	0.039860 
541.000000	0.041480 
540.000000	0.043500 
539.000000	0.045410 
538.000000	0.047560 
537.000000	0.049790 
536.000000	0.052090 
535.000000	0.054680 
534.000000	0.057230 
533.000000	0.059980 
532.000000	0.062970 
531.000000	0.066280 
530.000000	0.069709 
529.000000	0.073359 
528.000000	0.077270 
527.000000	0.081350 
526.000000	0.085590 
525.000000	0.089930 
524.000000	0.094460 
523.000000	0.099180 
522.000000	0.104200 
521.000000	0.109720 
520.000000	0.115430 
519.000000	0.121200 
518.000000	0.127230 
517.000000	0.133460 
516.000000	0.139880 
515.000000	0.146370 
514.000000	0.153470 
513.000000	0.160730 
512.000000	0.168350 
511.000000	0.176280 
510.000000	0.184570 
509.000000	0.193220 
508.000000	0.201980 
507.000000	0.211090 
506.000000	0.220320 
505.000000	0.229620 
504.000000	0.239190 
503.000000	0.249060 
502.000000	0.259560 
501.000000	0.270340 
500.000000	0.281520 
499.000000	0.292940 
498.000000	0.304080 
497.000000	0.315640 
496.000000	0.326980 
495.000000	0.338340 
494.000000	0.350140 
493.000000	0.361720 
492.000000	0.373420 
491.000000	0.385580 
490.000000	0.397480 
489.000000	0.409440 
488.000000	0.421080 
487.000000	0.432310 
486.000000	0.443630 
485.000000	0.454840 
484.000000	0.465960 
483.000000	0.477120 
482.000000	0.488360 
481.000000	0.499640 
480.000000	0.510450 
479.000000	0.520710 
478.000000	0.530710 
477.000000	0.540450 
476.000000	0.550220 
475.000000	0.559080 
474.000000	0.567420 
473.000000	0.576340 
472.000000	0.584770 
471.000000	0.592190 
470.000000	0.599880 
469.000000	0.606370 
468.000000	0.612190 
467.000000	0.617680 
466.000000	0.622400 
465.000000	0.627120 
464.000000	0.631090 
463.000000	0.634620 
462.000000	0.637260 
461.000000	0.639190 
460.000000	0.640980 
459.000000	0.641400 
458.000000	0.641700 
457.000000	0.642010 
456.000000	0.641180 
455.000000	0.639820 
454.000000	0.638480 
453.000000	0.635710 
452.000000	0.632710 
451.000000	0.628790 
450.000000	0.624690 
449.000000	0.620229 
448.000000	0.615160 
447.000000	0.609620 
446.000000	0.603660 
445.000000	0.597320 
444.000000	0.590080 
443.000000	0.582260 
442.000000	0.574010 
441.000000	0.565280 
440.000000	0.556949 
439.000000	0.548270 
438.000000	0.538760 
437.000000	0.529190 
436.000000	0.519320 
435.000000	0.508840 
434.000000	0.498380 
433.000000	0.488100 
432.000000	0.477100 
431.000000	0.466990 
430.000000	0.456680 
429.000000	0.445840 
428.000000	0.434950 
427.000000	0.424430 
426.000000	0.413250 
425.000000	0.402310 
424.000000	0.391420 
423.000000	0.380210 
422.000000	0.369380 
421.000000	0.359990 
420.000000	0.349460 
419.000000	0.339130 
418.000000	0.329030 
417.000000	0.318870 
416.000000	0.308580 
415.000000	0.298700 
414.000000	0.288900 
413.000000	0.279460 
412.000000	0.270290 
411.000000	0.261490 
410.000000	0.252880 
409.000000	0.244850 
408.000000	0.237000 
407.000000	0.229620 
406.000000	0.222680 
405.000000	0.216430 
404.000000	0.210990 
403.000000	0.205820 
402.000000	0.201420 
401.000000	0.197830 
400.000000	0.194670 

