PE UV                   SPECTRUM    ASCII       PEDS        1.60        
  -1
23MS067.SP
24/09/12
15:41:02.00
24/09/12
15:42:13.00


400.000000
1









4444

SCAN
1
1


0.0
480.0
2.00
MANUAL



UV/VIS




































#HDR
-1
-1
#GR
NM
A
0.00000011920928955078
0.0
700.000000
1.000000
301
8
0.315460
0.024770
#DATA
700.000000	0.024770 
699.000000	0.024840 
698.000000	0.024940 
697.000000	0.024960 
696.000000	0.025070 
695.000000	0.025110 
694.000000	0.025240 
693.000000	0.025210 
692.000000	0.025260 
691.000000	0.025430 
690.000000	0.025490 
689.000000	0.025560 
688.000000	0.025660 
687.000000	0.025710 
686.000000	0.025810 
685.000000	0.025900 
684.000000	0.025840 
683.000000	0.025890 
682.000000	0.026090 
681.000000	0.026290 
680.000000	0.026570 
679.000000	0.026660 
678.000000	0.026800 
677.000000	0.026990 
676.000000	0.027100 
675.000000	0.027250 
674.000000	0.027300 
673.000000	0.027570 
672.000000	0.027740 
671.000000	0.027690 
670.000000	0.027880 
669.000000	0.028000 
668.000000	0.028140 
667.000000	0.028280 
666.000000	0.028370 
665.000000	0.028500 
664.000000	0.028640 
663.000000	0.028690 
662.000000	0.028890 
661.000000	0.028950 
660.000000	0.029080 
659.000000	0.029280 
658.000000	0.029320 
657.000000	0.029590 
656.000000	0.029730 
655.000000	0.029840 
654.000000	0.030000 
653.000000	0.030210 
652.000000	0.030360 
651.000000	0.030680 
650.000000	0.030890 
649.000000	0.031030 
648.000000	0.031200 
647.000000	0.031420 
646.000000	0.031550 
645.000000	0.031770 
644.000000	0.031920 
643.000000	0.032090 
642.000000	0.032220 
641.000000	0.032450 
640.000000	0.032670 
639.000000	0.032870 
638.000000	0.033050 
637.000000	0.033280 
636.000000	0.033460 
635.000000	0.033650 
634.000000	0.033930 
633.000000	0.034210 
632.000000	0.034340 
631.000000	0.034550 
630.000000	0.034850 
629.000000	0.035090 
628.000000	0.035280 
627.000000	0.035660 
626.000000	0.035830 
625.000000	0.036090 
624.000000	0.036460 
623.000000	0.036790 
622.000000	0.037150 
621.000000	0.037500 
620.000000	0.037700 
619.000000	0.038130 
618.000000	0.038430 
617.000000	0.038810 
616.000000	0.039220 
615.000000	0.039770 
614.000000	0.040220 
613.000000	0.040630 
612.000000	0.041060 
611.000000	0.041490 
610.000000	0.041940 
609.000000	0.042420 
608.000000	0.042940 
607.000000	0.043450 
606.000000	0.043950 
605.000000	0.044510 
604.000000	0.045140 
603.000000	0.045770 
602.000000	0.046260 
601.000000	0.046940 
600.000000	0.047780 
599.000000	0.048370 
598.000000	0.048990 
597.000000	0.049670 
596.000000	0.050350 
595.000000	0.051080 
594.000000	0.051880 
593.000000	0.052700 
592.000000	0.053510 
591.000000	0.054410 
590.000000	0.055300 
589.000000	0.056160 
588.000000	0.057130 
587.000000	0.058120 
586.000000	0.059130 
585.000000	0.060140 
584.000000	0.061200 
583.000000	0.062150 
582.000000	0.063280 
581.000000	0.064190 
580.000000	0.065290 
579.000000	0.066379 
578.000000	0.067480 
577.000000	0.068580 
576.000000	0.069830 
575.000000	0.070930 
574.000000	0.072220 
573.000000	0.073620 
572.000000	0.074910 
571.000000	0.076180 
570.000000	0.077640 
569.000000	0.078890 
568.000000	0.080220 
567.000000	0.081640 
566.000000	0.083110 
565.000000	0.084580 
564.000000	0.086069 
563.000000	0.087730 
562.000000	0.089460 
561.000000	0.091110 
560.000000	0.092330 
559.000000	0.093920 
558.000000	0.095600 
557.000000	0.097320 
556.000000	0.099220 
555.000000	0.101000 
554.000000	0.102800 
553.000000	0.104570 
552.000000	0.106480 
551.000000	0.108290 
550.000000	0.110030 
549.000000	0.111920 
548.000000	0.113870 
547.000000	0.115730 
546.000000	0.117720 
545.000000	0.119670 
544.000000	0.121620 
543.000000	0.123760 
542.000000	0.125800 
541.000000	0.127870 
540.000000	0.130100 
539.000000	0.132010 
538.000000	0.134070 
537.000000	0.136450 
536.000000	0.138720 
535.000000	0.141080 
534.000000	0.143420 
533.000000	0.145770 
532.000000	0.148230 
531.000000	0.150650 
530.000000	0.153140 
529.000000	0.155650 
528.000000	0.158320 
527.000000	0.160910 
526.000000	0.163640 
525.000000	0.166190 
524.000000	0.168880 
523.000000	0.171670 
522.000000	0.174220 
521.000000	0.176980 
520.000000	0.179800 
519.000000	0.182560 
518.000000	0.185270 
517.000000	0.188140 
516.000000	0.190890 
515.000000	0.193820 
514.000000	0.196760 
513.000000	0.199740 
512.000000	0.202620 
511.000000	0.205560 
510.000000	0.208530 
509.000000	0.211440 
508.000000	0.214620 
507.000000	0.217800 
506.000000	0.220860 
505.000000	0.224300 
504.000000	0.227400 
503.000000	0.230620 
502.000000	0.233630 
501.000000	0.236810 
500.000000	0.240160 
499.000000	0.243400 
498.000000	0.246640 
497.000000	0.250050 
496.000000	0.253200 
495.000000	0.256360 
494.000000	0.259590 
493.000000	0.262680 
492.000000	0.265810 
491.000000	0.268590 
490.000000	0.272010 
489.000000	0.274940 
488.000000	0.277890 
487.000000	0.280490 
486.000000	0.283100 
485.000000	0.285690 
484.000000	0.288200 
483.000000	0.290600 
482.000000	0.293020 
481.000000	0.295350 
480.000000	0.297500 
479.000000	0.299540 
478.000000	0.301630 
477.000000	0.303520 
476.000000	0.305220 
475.000000	0.306840 
474.000000	0.308280 
473.000000	0.309690 
472.000000	0.311010 
471.000000	0.312050 
470.000000	0.312990 
469.000000	0.313860 
468.000000	0.314530 
467.000000	0.315020 
466.000000	0.315350 
465.000000	0.315410 
464.000000	0.315460 
463.000000	0.315390 
462.000000	0.315210 
461.000000	0.314710 
460.000000	0.314080 
459.000000	0.313470 
458.000000	0.312460 
457.000000	0.311560 
456.000000	0.310360 
455.000000	0.309390 
454.000000	0.307920 
453.000000	0.306470 
452.000000	0.304950 
451.000000	0.303440 
450.000000	0.301310 
449.000000	0.299500 
448.000000	0.297380 
447.000000	0.295430 
446.000000	0.293270 
445.000000	0.291080 
444.000000	0.288480 
443.000000	0.286390 
442.000000	0.283930 
441.000000	0.281490 
440.000000	0.279040 
439.000000	0.276730 
438.000000	0.273870 
437.000000	0.271680 
436.000000	0.269440 
435.000000	0.266950 
434.000000	0.264620 
433.000000	0.262490 
432.000000	0.260480 
431.000000	0.258810 
430.000000	0.256730 
429.000000	0.255120 
428.000000	0.253440 
427.000000	0.251770 
426.000000	0.250320 
425.000000	0.249530 
424.000000	0.248250 
423.000000	0.247600 
422.000000	0.247000 
421.000000	0.246510 
420.000000	0.246220 
419.000000	0.246390 
418.000000	0.246810 
417.000000	0.247390 
416.000000	0.248430 
415.000000	0.249660 
414.000000	0.251360 
413.000000	0.253250 
412.000000	0.255720 
411.000000	0.258340 
410.000000	0.261230 
409.000000	0.264680 
408.000000	0.268540 
407.000000	0.272600 
406.000000	0.277050 
405.000000	0.281980 
404.000000	0.287180 
403.000000	0.292760 
402.000000	0.298740 
401.000000	0.305430 
400.000000	0.312250 

