PE UV                   SPECTRUM    ASCII       PEDS        1.60        
  -1
23MS235.SP
24/09/09
16:26:01.00
24/09/09
16:27:21.00


400.000000
1









4444

SCAN
1
1


0.0
480.0
2.00
MANUAL



UV/VIS




































#HDR
-1
-1
#GR
NM
A
0.00000011920928955078
0.0
700.000000
1.000000
301
8
0.286990
0.011950
#DATA
700.000000	0.012220 
699.000000	0.012150 
698.000000	0.012000 
697.000000	0.012040 
696.000000	0.012080 
695.000000	0.011980 
694.000000	0.011970 
693.000000	0.012020 
692.000000	0.011950 
691.000000	0.011990 
690.000000	0.012050 
689.000000	0.012100 
688.000000	0.012120 
687.000000	0.012110 
686.000000	0.012090 
685.000000	0.012180 
684.000000	0.012190 
683.000000	0.012240 
682.000000	0.012200 
681.000000	0.012320 
680.000000	0.012600 
679.000000	0.012280 
678.000000	0.012070 
677.000000	0.012020 
676.000000	0.012160 
675.000000	0.012130 
674.000000	0.012110 
673.000000	0.012030 
672.000000	0.012110 
671.000000	0.012070 
670.000000	0.012250 
669.000000	0.012180 
668.000000	0.012230 
667.000000	0.012190 
666.000000	0.012220 
665.000000	0.012240 
664.000000	0.012230 
663.000000	0.012250 
662.000000	0.012300 
661.000000	0.012370 
660.000000	0.012310 
659.000000	0.012500 
658.000000	0.012480 
657.000000	0.012410 
656.000000	0.012580 
655.000000	0.012660 
654.000000	0.012660 
653.000000	0.012780 
652.000000	0.012810 
651.000000	0.012810 
650.000000	0.012830 
649.000000	0.012980 
648.000000	0.012970 
647.000000	0.013010 
646.000000	0.013060 
645.000000	0.013020 
644.000000	0.013130 
643.000000	0.013190 
642.000000	0.013170 
641.000000	0.013180 
640.000000	0.013250 
639.000000	0.013290 
638.000000	0.013420 
637.000000	0.013400 
636.000000	0.013470 
635.000000	0.013520 
634.000000	0.013480 
633.000000	0.013600 
632.000000	0.013720 
631.000000	0.013770 
630.000000	0.013840 
629.000000	0.013830 
628.000000	0.013870 
627.000000	0.014000 
626.000000	0.014150 
625.000000	0.014140 
624.000000	0.014220 
623.000000	0.014360 
622.000000	0.014400 
621.000000	0.014580 
620.000000	0.014550 
619.000000	0.014650 
618.000000	0.014820 
617.000000	0.014930 
616.000000	0.014980 
615.000000	0.015110 
614.000000	0.015260 
613.000000	0.015300 
612.000000	0.015310 
611.000000	0.015530 
610.000000	0.015620 
609.000000	0.015760 
608.000000	0.015850 
607.000000	0.016010 
606.000000	0.016120 
605.000000	0.016180 
604.000000	0.016290 
603.000000	0.016520 
602.000000	0.016640 
601.000000	0.016920 
600.000000	0.016980 
599.000000	0.017130 
598.000000	0.017330 
597.000000	0.017450 
596.000000	0.017590 
595.000000	0.017870 
594.000000	0.017910 
593.000000	0.018160 
592.000000	0.018340 
591.000000	0.018530 
590.000000	0.018850 
589.000000	0.019070 
588.000000	0.019230 
587.000000	0.019550 
586.000000	0.019700 
585.000000	0.019950 
584.000000	0.020270 
583.000000	0.020460 
582.000000	0.020710 
581.000000	0.021060 
580.000000	0.021200 
579.000000	0.021460 
578.000000	0.021750 
577.000000	0.022120 
576.000000	0.022370 
575.000000	0.022660 
574.000000	0.023050 
573.000000	0.023230 
572.000000	0.023670 
571.000000	0.024040 
570.000000	0.024420 
569.000000	0.024680 
568.000000	0.025140 
567.000000	0.025480 
566.000000	0.025870 
565.000000	0.026180 
564.000000	0.026620 
563.000000	0.027090 
562.000000	0.027380 
561.000000	0.027960 
560.000000	0.028640 
559.000000	0.029150 
558.000000	0.029720 
557.000000	0.030300 
556.000000	0.030820 
555.000000	0.031230 
554.000000	0.031870 
553.000000	0.032370 
552.000000	0.033050 
551.000000	0.033630 
550.000000	0.034240 
549.000000	0.034960 
548.000000	0.035590 
547.000000	0.036340 
546.000000	0.037130 
545.000000	0.037790 
544.000000	0.038630 
543.000000	0.039470 
542.000000	0.040330 
541.000000	0.041320 
540.000000	0.042290 
539.000000	0.043290 
538.000000	0.044360 
537.000000	0.045550 
536.000000	0.046820 
535.000000	0.048130 
534.000000	0.049470 
533.000000	0.050770 
532.000000	0.052330 
531.000000	0.054050 
530.000000	0.055530 
529.000000	0.057350 
528.000000	0.058960 
527.000000	0.060910 
526.000000	0.062780 
525.000000	0.064970 
524.000000	0.067090 
523.000000	0.069340 
522.000000	0.071630 
521.000000	0.073969 
520.000000	0.076490 
519.000000	0.078960 
518.000000	0.081629 
517.000000	0.084400 
516.000000	0.087040 
515.000000	0.089910 
514.000000	0.092979 
513.000000	0.096129 
512.000000	0.099460 
511.000000	0.102790 
510.000000	0.106060 
509.000000	0.109470 
508.000000	0.113450 
507.000000	0.117090 
506.000000	0.121060 
505.000000	0.125040 
504.000000	0.129070 
503.000000	0.133350 
502.000000	0.137680 
501.000000	0.141840 
500.000000	0.146200 
499.000000	0.151000 
498.000000	0.155350 
497.000000	0.160100 
496.000000	0.164760 
495.000000	0.169790 
494.000000	0.174580 
493.000000	0.179310 
492.000000	0.184010 
491.000000	0.188770 
490.000000	0.193400 
489.000000	0.198010 
488.000000	0.202710 
487.000000	0.207450 
486.000000	0.211850 
485.000000	0.216420 
484.000000	0.220940 
483.000000	0.225410 
482.000000	0.229820 
481.000000	0.234100 
480.000000	0.238120 
479.000000	0.242240 
478.000000	0.246230 
477.000000	0.250230 
476.000000	0.253980 
475.000000	0.257620 
474.000000	0.261000 
473.000000	0.264190 
472.000000	0.267280 
471.000000	0.269930 
470.000000	0.272800 
469.000000	0.275180 
468.000000	0.277550 
467.000000	0.279540 
466.000000	0.281190 
465.000000	0.282870 
464.000000	0.284260 
463.000000	0.285230 
462.000000	0.286170 
461.000000	0.286570 
460.000000	0.286750 
459.000000	0.286990 
458.000000	0.286810 
457.000000	0.286380 
456.000000	0.285870 
455.000000	0.284920 
454.000000	0.283900 
453.000000	0.282680 
452.000000	0.281210 
451.000000	0.279340 
450.000000	0.277340 
449.000000	0.275360 
448.000000	0.272740 
447.000000	0.270070 
446.000000	0.267390 
445.000000	0.264200 
444.000000	0.261180 
443.000000	0.257550 
442.000000	0.254100 
441.000000	0.250530 
440.000000	0.246580 
439.000000	0.242560 
438.000000	0.237990 
437.000000	0.233790 
436.000000	0.229450 
435.000000	0.225290 
434.000000	0.220930 
433.000000	0.216220 
432.000000	0.212220 
431.000000	0.207900 
430.000000	0.203360 
429.000000	0.198400 
428.000000	0.194020 
427.000000	0.189630 
426.000000	0.184620 
425.000000	0.180400 
424.000000	0.176140 
423.000000	0.171870 
422.000000	0.167350 
421.000000	0.163930 
420.000000	0.159870 
419.000000	0.155570 
418.000000	0.151430 
417.000000	0.147600 
416.000000	0.143810 
415.000000	0.140160 
414.000000	0.136710 
413.000000	0.133360 
412.000000	0.130160 
411.000000	0.126920 
410.000000	0.123970 
409.000000	0.121180 
408.000000	0.118730 
407.000000	0.116510 
406.000000	0.114530 
405.000000	0.112860 
404.000000	0.111330 
403.000000	0.110160 
402.000000	0.109240 
401.000000	0.108850 
400.000000	0.108520 

