PE UV                   SPECTRUM    ASCII       PEDS        1.60        
  -1
23MS180.SP
24/09/06
16:20:52.00
24/09/06
16:22:12.00


400.000000
1









4444

SCAN
1
1


0.0
480.0
2.00
MANUAL



UV/VIS




































#HDR
-1
-1
#GR
NM
A
0.00000011920928955078
0.0
700.000000
1.000000
301
8
0.200170
0.059890
#DATA
700.000000	0.059910 
699.000000	0.059890 
698.000000	0.060030 
697.000000	0.060000 
696.000000	0.060010 
695.000000	0.059940 
694.000000	0.060110 
693.000000	0.060110 
692.000000	0.060130 
691.000000	0.060210 
690.000000	0.060260 
689.000000	0.060390 
688.000000	0.060420 
687.000000	0.060530 
686.000000	0.060630 
685.000000	0.060630 
684.000000	0.060870 
683.000000	0.060640 
682.000000	0.060720 
681.000000	0.060900 
680.000000	0.061040 
679.000000	0.060960 
678.000000	0.061020 
677.000000	0.061180 
676.000000	0.061230 
675.000000	0.061140 
674.000000	0.061190 
673.000000	0.061330 
672.000000	0.061410 
671.000000	0.061560 
670.000000	0.061620 
669.000000	0.061660 
668.000000	0.061740 
667.000000	0.061810 
666.000000	0.061890 
665.000000	0.062050 
664.000000	0.062130 
663.000000	0.062200 
662.000000	0.062310 
661.000000	0.062520 
660.000000	0.062510 
659.000000	0.062570 
658.000000	0.062680 
657.000000	0.062830 
656.000000	0.062909 
655.000000	0.063020 
654.000000	0.063110 
653.000000	0.063280 
652.000000	0.063300 
651.000000	0.063420 
650.000000	0.063589 
649.000000	0.063570 
648.000000	0.063729 
647.000000	0.063900 
646.000000	0.063839 
645.000000	0.064040 
644.000000	0.064030 
643.000000	0.064210 
642.000000	0.064199 
641.000000	0.064170 
640.000000	0.064400 
639.000000	0.064460 
638.000000	0.064600 
637.000000	0.064640 
636.000000	0.064790 
635.000000	0.064740 
634.000000	0.064890 
633.000000	0.065010 
632.000000	0.065000 
631.000000	0.065190 
630.000000	0.065350 
629.000000	0.065320 
628.000000	0.065470 
627.000000	0.065480 
626.000000	0.065600 
625.000000	0.065780 
624.000000	0.065820 
623.000000	0.065860 
622.000000	0.066040 
621.000000	0.066100 
620.000000	0.066210 
619.000000	0.066350 
618.000000	0.066480 
617.000000	0.066610 
616.000000	0.066610 
615.000000	0.066730 
614.000000	0.066840 
613.000000	0.067010 
612.000000	0.067059 
611.000000	0.067260 
610.000000	0.067309 
609.000000	0.067419 
608.000000	0.067610 
607.000000	0.067760 
606.000000	0.067900 
605.000000	0.067970 
604.000000	0.068210 
603.000000	0.068310 
602.000000	0.068370 
601.000000	0.068419 
600.000000	0.068669 
599.000000	0.068740 
598.000000	0.068910 
597.000000	0.069120 
596.000000	0.069139 
595.000000	0.069330 
594.000000	0.069590 
593.000000	0.069760 
592.000000	0.069800 
591.000000	0.069950 
590.000000	0.070110 
589.000000	0.070190 
588.000000	0.070420 
587.000000	0.070630 
586.000000	0.070790 
585.000000	0.070940 
584.000000	0.071020 
583.000000	0.071160 
582.000000	0.071330 
581.000000	0.071499 
580.000000	0.071660 
579.000000	0.071710 
578.000000	0.071910 
577.000000	0.072030 
576.000000	0.072260 
575.000000	0.072450 
574.000000	0.072609 
573.000000	0.072720 
572.000000	0.072830 
571.000000	0.073039 
570.000000	0.073200 
569.000000	0.073430 
568.000000	0.073660 
567.000000	0.073780 
566.000000	0.074000 
565.000000	0.074160 
564.000000	0.074219 
563.000000	0.074480 
562.000000	0.074850 
561.000000	0.075030 
560.000000	0.075329 
559.000000	0.075470 
558.000000	0.073469 
557.000000	0.073530 
556.000000	0.073880 
555.000000	0.073969 
554.000000	0.074300 
553.000000	0.074530 
552.000000	0.074810 
551.000000	0.075230 
550.000000	0.075420 
549.000000	0.075680 
548.000000	0.075960 
547.000000	0.076320 
546.000000	0.076660 
545.000000	0.077030 
544.000000	0.077280 
543.000000	0.077810 
542.000000	0.078299 
541.000000	0.078720 
540.000000	0.079060 
539.000000	0.079570 
538.000000	0.080160 
537.000000	0.080740 
536.000000	0.081270 
535.000000	0.081890 
534.000000	0.082500 
533.000000	0.083180 
532.000000	0.083830 
531.000000	0.084550 
530.000000	0.085430 
529.000000	0.086190 
528.000000	0.087170 
527.000000	0.087980 
526.000000	0.088830 
525.000000	0.089880 
524.000000	0.090910 
523.000000	0.091850 
522.000000	0.092890 
521.000000	0.094159 
520.000000	0.095339 
519.000000	0.096540 
518.000000	0.097670 
517.000000	0.098919 
516.000000	0.100290 
515.000000	0.101440 
514.000000	0.103040 
513.000000	0.104580 
512.000000	0.106080 
511.000000	0.107870 
510.000000	0.109400 
509.000000	0.111230 
508.000000	0.112880 
507.000000	0.114850 
506.000000	0.116720 
505.000000	0.118720 
504.000000	0.120520 
503.000000	0.122630 
502.000000	0.124580 
501.000000	0.126980 
500.000000	0.129030 
499.000000	0.131260 
498.000000	0.133440 
497.000000	0.135630 
496.000000	0.137760 
495.000000	0.140110 
494.000000	0.142490 
493.000000	0.144720 
492.000000	0.147080 
491.000000	0.149250 
490.000000	0.151610 
489.000000	0.153630 
488.000000	0.156050 
487.000000	0.158060 
486.000000	0.160450 
485.000000	0.162680 
484.000000	0.165000 
483.000000	0.167210 
482.000000	0.169310 
481.000000	0.171440 
480.000000	0.173550 
479.000000	0.175650 
478.000000	0.177390 
477.000000	0.179320 
476.000000	0.181210 
475.000000	0.183170 
474.000000	0.185030 
473.000000	0.186590 
472.000000	0.188350 
471.000000	0.189920 
470.000000	0.191290 
469.000000	0.192700 
468.000000	0.193930 
467.000000	0.195040 
466.000000	0.196070 
465.000000	0.197140 
464.000000	0.197760 
463.000000	0.198560 
462.000000	0.199080 
461.000000	0.199520 
460.000000	0.199680 
459.000000	0.200100 
458.000000	0.200080 
457.000000	0.200170 
456.000000	0.200170 
455.000000	0.199700 
454.000000	0.199580 
453.000000	0.199020 
452.000000	0.198730 
451.000000	0.198080 
450.000000	0.197260 
449.000000	0.196620 
448.000000	0.195360 
447.000000	0.194300 
446.000000	0.193110 
445.000000	0.191960 
444.000000	0.190570 
443.000000	0.189420 
442.000000	0.187480 
441.000000	0.186300 
440.000000	0.184600 
439.000000	0.183070 
438.000000	0.181290 
437.000000	0.179520 
436.000000	0.177630 
435.000000	0.175870 
434.000000	0.173680 
433.000000	0.172240 
432.000000	0.170100 
431.000000	0.168330 
430.000000	0.166400 
429.000000	0.164300 
428.000000	0.162200 
427.000000	0.160560 
426.000000	0.158090 
425.000000	0.156300 
424.000000	0.154030 
423.000000	0.152190 
422.000000	0.150810 
421.000000	0.150730 
420.000000	0.148790 
419.000000	0.146980 
418.000000	0.145000 
417.000000	0.143190 
416.000000	0.141380 
415.000000	0.139610 
414.000000	0.137950 
413.000000	0.136300 
412.000000	0.134720 
411.000000	0.133270 
410.000000	0.132000 
409.000000	0.130650 
408.000000	0.129230 
407.000000	0.128040 
406.000000	0.126970 
405.000000	0.125960 
404.000000	0.124900 
403.000000	0.124370 
402.000000	0.123610 
401.000000	0.123060 
400.000000	0.122780 

