PE UV                   SPECTRUM    ASCII       PEDS        1.60        
  -1
23MS092.SP
24/10/22
15:06:42.00
24/10/22
15:08:00.00


400.000000
1









4444

SCAN
1
1


0.0
480.0
2.00
MANUAL



UV/VIS




































#HDR
-1
-1
#GR
NM
A
0.00000011920928955078
0.0
700.000000
1.000000
301
8
0.225960
0.009719
#DATA
700.000000	0.009719 
699.000000	0.010090 
698.000000	0.010280 
697.000000	0.010550 
696.000000	0.010790 
695.000000	0.011170 
694.000000	0.011540 
693.000000	0.011830 
692.000000	0.012180 
691.000000	0.012410 
690.000000	0.012880 
689.000000	0.013300 
688.000000	0.013690 
687.000000	0.014090 
686.000000	0.014420 
685.000000	0.014950 
684.000000	0.015410 
683.000000	0.016050 
682.000000	0.016600 
681.000000	0.017200 
680.000000	0.017780 
679.000000	0.018470 
678.000000	0.018910 
677.000000	0.019630 
676.000000	0.020150 
675.000000	0.020930 
674.000000	0.021590 
673.000000	0.022330 
672.000000	0.023140 
671.000000	0.023940 
670.000000	0.024680 
669.000000	0.025500 
668.000000	0.026300 
667.000000	0.027140 
666.000000	0.028110 
665.000000	0.028930 
664.000000	0.030000 
663.000000	0.031040 
662.000000	0.032010 
661.000000	0.033040 
660.000000	0.034070 
659.000000	0.035150 
658.000000	0.036270 
657.000000	0.037430 
656.000000	0.038610 
655.000000	0.039860 
654.000000	0.041180 
653.000000	0.042470 
652.000000	0.043840 
651.000000	0.045240 
650.000000	0.046640 
649.000000	0.048040 
648.000000	0.049400 
647.000000	0.050970 
646.000000	0.052390 
645.000000	0.053940 
644.000000	0.055610 
643.000000	0.057120 
642.000000	0.058680 
641.000000	0.060290 
640.000000	0.061810 
639.000000	0.063320 
638.000000	0.064839 
637.000000	0.066410 
636.000000	0.068060 
635.000000	0.069630 
634.000000	0.071340 
633.000000	0.073160 
632.000000	0.074800 
631.000000	0.076500 
630.000000	0.078130 
629.000000	0.079680 
628.000000	0.081410 
627.000000	0.083210 
626.000000	0.084870 
625.000000	0.086660 
624.000000	0.088450 
623.000000	0.090180 
622.000000	0.091850 
621.000000	0.093690 
620.000000	0.095290 
619.000000	0.096920 
618.000000	0.098700 
617.000000	0.100440 
616.000000	0.102190 
615.000000	0.103930 
614.000000	0.105630 
613.000000	0.107330 
612.000000	0.108890 
611.000000	0.110350 
610.000000	0.112080 
609.000000	0.113620 
608.000000	0.115210 
607.000000	0.116770 
606.000000	0.118340 
605.000000	0.119990 
604.000000	0.121620 
603.000000	0.123110 
602.000000	0.124620 
601.000000	0.126010 
600.000000	0.127660 
599.000000	0.129250 
598.000000	0.130780 
597.000000	0.132320 
596.000000	0.133900 
595.000000	0.135490 
594.000000	0.136980 
593.000000	0.138600 
592.000000	0.140250 
591.000000	0.141810 
590.000000	0.143420 
589.000000	0.144980 
588.000000	0.146670 
587.000000	0.148440 
586.000000	0.150250 
585.000000	0.152000 
584.000000	0.153710 
583.000000	0.155380 
582.000000	0.157060 
581.000000	0.158730 
580.000000	0.160430 
579.000000	0.162150 
578.000000	0.163820 
577.000000	0.165660 
576.000000	0.167490 
575.000000	0.169400 
574.000000	0.171220 
573.000000	0.172990 
572.000000	0.174730 
571.000000	0.176680 
570.000000	0.178510 
569.000000	0.180340 
568.000000	0.182380 
567.000000	0.184250 
566.000000	0.186250 
565.000000	0.188090 
564.000000	0.190040 
563.000000	0.192030 
562.000000	0.193820 
561.000000	0.195750 
560.000000	0.197650 
559.000000	0.199570 
558.000000	0.201120 
557.000000	0.202930 
556.000000	0.204810 
555.000000	0.206480 
554.000000	0.208000 
553.000000	0.209710 
552.000000	0.211210 
551.000000	0.212710 
550.000000	0.214150 
549.000000	0.215570 
548.000000	0.216840 
547.000000	0.218220 
546.000000	0.219320 
545.000000	0.220470 
544.000000	0.221380 
543.000000	0.222240 
542.000000	0.223100 
541.000000	0.223900 
540.000000	0.224490 
539.000000	0.225010 
538.000000	0.225390 
537.000000	0.225800 
536.000000	0.225830 
535.000000	0.225960 
534.000000	0.225900 
533.000000	0.225680 
532.000000	0.225250 
531.000000	0.224950 
530.000000	0.224340 
529.000000	0.223530 
528.000000	0.222670 
527.000000	0.221540 
526.000000	0.220480 
525.000000	0.219290 
524.000000	0.218050 
523.000000	0.216420 
522.000000	0.214780 
521.000000	0.213110 
520.000000	0.211190 
519.000000	0.209250 
518.000000	0.207220 
517.000000	0.205050 
516.000000	0.202820 
515.000000	0.200590 
514.000000	0.198220 
513.000000	0.195570 
512.000000	0.193030 
511.000000	0.190320 
510.000000	0.187500 
509.000000	0.184460 
508.000000	0.181540 
507.000000	0.178570 
506.000000	0.175450 
505.000000	0.172360 
504.000000	0.169180 
503.000000	0.165910 
502.000000	0.162580 
501.000000	0.159210 
500.000000	0.155460 
499.000000	0.152060 
498.000000	0.148500 
497.000000	0.145180 
496.000000	0.141810 
495.000000	0.138220 
494.000000	0.134790 
493.000000	0.131320 
492.000000	0.127990 
491.000000	0.124610 
490.000000	0.121110 
489.000000	0.117830 
488.000000	0.114530 
487.000000	0.111420 
486.000000	0.108200 
485.000000	0.104990 
484.000000	0.101780 
483.000000	0.098710 
482.000000	0.095470 
481.000000	0.092580 
480.000000	0.089630 
479.000000	0.086760 
478.000000	0.084140 
477.000000	0.081430 
476.000000	0.078950 
475.000000	0.076330 
474.000000	0.073930 
473.000000	0.071330 
472.000000	0.069130 
471.000000	0.066870 
470.000000	0.064550 
469.000000	0.062530 
468.000000	0.061000 
467.000000	0.058950 
466.000000	0.057050 
465.000000	0.055600 
464.000000	0.054290 
463.000000	0.052560 
462.000000	0.051410 
461.000000	0.050250 
460.000000	0.049380 
459.000000	0.048060 
458.000000	0.047280 
457.000000	0.046620 
456.000000	0.046070 
455.000000	0.045630 
454.000000	0.045120 
453.000000	0.044900 
452.000000	0.044750 
451.000000	0.044750 
450.000000	0.044910 
449.000000	0.045220 
448.000000	0.045570 
447.000000	0.045880 
446.000000	0.046610 
445.000000	0.047250 
444.000000	0.048420 
443.000000	0.049230 
442.000000	0.050780 
441.000000	0.052070 
440.000000	0.053670 
439.000000	0.055360 
438.000000	0.057210 
437.000000	0.059160 
436.000000	0.061240 
435.000000	0.063690 
434.000000	0.066140 
433.000000	0.068330 
432.000000	0.071460 
431.000000	0.074190 
430.000000	0.077080 
429.000000	0.080080 
428.000000	0.083349 
427.000000	0.086470 
426.000000	0.090140 
425.000000	0.093760 
424.000000	0.097180 
423.000000	0.101310 
422.000000	0.104890 
421.000000	0.108850 
420.000000	0.112690 
419.000000	0.116550 
418.000000	0.120590 
417.000000	0.124860 
416.000000	0.129010 
415.000000	0.133440 
414.000000	0.137690 
413.000000	0.141920 
412.000000	0.146110 
411.000000	0.150270 
410.000000	0.154380 
409.000000	0.158280 
408.000000	0.162450 
407.000000	0.166370 
406.000000	0.170100 
405.000000	0.173760 
404.000000	0.177260 
403.000000	0.180620 
402.000000	0.183710 
401.000000	0.186870 
400.000000	0.189640 

