PE UV                   SPECTRUM    ASCII       PEDS        1.60        
  -1
23MS261.SP
24/10/18
15:26:17.00
24/10/18
15:27:47.00


400.000000
1









4444

SCAN
1
1


0.0
480.0
2.00
MANUAL



UV/VIS




































#HDR
-1
-1
#GR
NM
A
0.00000011920928955078
0.0
700.000000
1.000000
301
8
0.156590
0.006230
#DATA
700.000000	0.006230 
699.000000	0.006430 
698.000000	0.006580 
697.000000	0.006810 
696.000000	0.007100 
695.000000	0.007240 
694.000000	0.007410 
693.000000	0.007640 
692.000000	0.007979 
691.000000	0.008229 
690.000000	0.008510 
689.000000	0.008800 
688.000000	0.009150 
687.000000	0.009410 
686.000000	0.009660 
685.000000	0.010060 
684.000000	0.010370 
683.000000	0.010580 
682.000000	0.010960 
681.000000	0.011420 
680.000000	0.011770 
679.000000	0.012250 
678.000000	0.012670 
677.000000	0.013180 
676.000000	0.013570 
675.000000	0.014030 
674.000000	0.014650 
673.000000	0.015160 
672.000000	0.015550 
671.000000	0.016200 
670.000000	0.016690 
669.000000	0.017260 
668.000000	0.017850 
667.000000	0.018490 
666.000000	0.019050 
665.000000	0.019630 
664.000000	0.020350 
663.000000	0.021070 
662.000000	0.021870 
661.000000	0.022560 
660.000000	0.023260 
659.000000	0.024130 
658.000000	0.024880 
657.000000	0.025580 
656.000000	0.026420 
655.000000	0.027380 
654.000000	0.028300 
653.000000	0.029020 
652.000000	0.030060 
651.000000	0.031090 
650.000000	0.032080 
649.000000	0.033020 
648.000000	0.034060 
647.000000	0.035050 
646.000000	0.036040 
645.000000	0.037140 
644.000000	0.038270 
643.000000	0.039330 
642.000000	0.040450 
641.000000	0.041540 
640.000000	0.042700 
639.000000	0.043660 
638.000000	0.044710 
637.000000	0.045880 
636.000000	0.046940 
635.000000	0.048090 
634.000000	0.049200 
633.000000	0.050470 
632.000000	0.051700 
631.000000	0.052880 
630.000000	0.053930 
629.000000	0.055180 
628.000000	0.056290 
627.000000	0.057490 
626.000000	0.058660 
625.000000	0.059890 
624.000000	0.061180 
623.000000	0.062390 
622.000000	0.063519 
621.000000	0.064830 
620.000000	0.066050 
619.000000	0.067160 
618.000000	0.068190 
617.000000	0.069520 
616.000000	0.070740 
615.000000	0.072040 
614.000000	0.073210 
613.000000	0.074370 
612.000000	0.075410 
611.000000	0.076550 
610.000000	0.077670 
609.000000	0.078790 
608.000000	0.079909 
607.000000	0.080879 
606.000000	0.081960 
605.000000	0.083090 
604.000000	0.084209 
603.000000	0.085360 
602.000000	0.086350 
601.000000	0.087499 
600.000000	0.088480 
599.000000	0.089490 
598.000000	0.090670 
597.000000	0.091869 
596.000000	0.092790 
595.000000	0.093920 
594.000000	0.095120 
593.000000	0.096250 
592.000000	0.097300 
591.000000	0.098290 
590.000000	0.099450 
589.000000	0.100640 
588.000000	0.101790 
587.000000	0.102970 
586.000000	0.104210 
585.000000	0.105440 
584.000000	0.106660 
583.000000	0.107670 
582.000000	0.109060 
581.000000	0.110040 
580.000000	0.111350 
579.000000	0.112440 
578.000000	0.113690 
577.000000	0.114980 
576.000000	0.116310 
575.000000	0.117460 
574.000000	0.118840 
573.000000	0.120020 
572.000000	0.121380 
571.000000	0.122740 
570.000000	0.124010 
569.000000	0.125380 
568.000000	0.126730 
567.000000	0.128060 
566.000000	0.129430 
565.000000	0.130710 
564.000000	0.132190 
563.000000	0.133400 
562.000000	0.134710 
561.000000	0.135940 
560.000000	0.137340 
559.000000	0.138660 
558.000000	0.139840 
557.000000	0.141090 
556.000000	0.142440 
555.000000	0.143600 
554.000000	0.144630 
553.000000	0.145810 
552.000000	0.146750 
551.000000	0.147920 
550.000000	0.148770 
549.000000	0.149780 
548.000000	0.150840 
547.000000	0.151670 
546.000000	0.152400 
545.000000	0.153110 
544.000000	0.153660 
543.000000	0.154320 
542.000000	0.154830 
541.000000	0.155340 
540.000000	0.155770 
539.000000	0.156030 
538.000000	0.156340 
537.000000	0.156580 
536.000000	0.156570 
535.000000	0.156590 
534.000000	0.156570 
533.000000	0.156380 
532.000000	0.156170 
531.000000	0.155760 
530.000000	0.155380 
529.000000	0.154890 
528.000000	0.154190 
527.000000	0.153450 
526.000000	0.152640 
525.000000	0.151850 
524.000000	0.150890 
523.000000	0.149820 
522.000000	0.148700 
521.000000	0.147470 
520.000000	0.146100 
519.000000	0.144910 
518.000000	0.143430 
517.000000	0.141960 
516.000000	0.140310 
515.000000	0.138820 
514.000000	0.137080 
513.000000	0.135470 
512.000000	0.133670 
511.000000	0.131710 
510.000000	0.129910 
509.000000	0.127730 
508.000000	0.125590 
507.000000	0.123480 
506.000000	0.121330 
505.000000	0.119200 
504.000000	0.116960 
503.000000	0.114650 
502.000000	0.112310 
501.000000	0.109790 
500.000000	0.107520 
499.000000	0.105010 
498.000000	0.102620 
497.000000	0.099990 
496.000000	0.097640 
495.000000	0.095420 
494.000000	0.092820 
493.000000	0.090480 
492.000000	0.088080 
491.000000	0.085630 
490.000000	0.083239 
489.000000	0.080920 
488.000000	0.078750 
487.000000	0.076439 
486.000000	0.074210 
485.000000	0.071880 
484.000000	0.069639 
483.000000	0.067570 
482.000000	0.065400 
481.000000	0.063120 
480.000000	0.061100 
479.000000	0.059060 
478.000000	0.057200 
477.000000	0.055290 
476.000000	0.053540 
475.000000	0.051780 
474.000000	0.050020 
473.000000	0.048370 
472.000000	0.046830 
471.000000	0.045080 
470.000000	0.043620 
469.000000	0.042000 
468.000000	0.040900 
467.000000	0.039870 
466.000000	0.038420 
465.000000	0.037260 
464.000000	0.036390 
463.000000	0.035350 
462.000000	0.034430 
461.000000	0.033630 
460.000000	0.032860 
459.000000	0.032120 
458.000000	0.031850 
457.000000	0.031050 
456.000000	0.030800 
455.000000	0.030370 
454.000000	0.030000 
453.000000	0.029860 
452.000000	0.030280 
451.000000	0.029900 
450.000000	0.030100 
449.000000	0.030340 
448.000000	0.030430 
447.000000	0.030860 
446.000000	0.031210 
445.000000	0.032010 
444.000000	0.032370 
443.000000	0.033320 
442.000000	0.034110 
441.000000	0.035240 
440.000000	0.036170 
439.000000	0.037470 
438.000000	0.038810 
437.000000	0.040140 
436.000000	0.041630 
435.000000	0.043330 
434.000000	0.045050 
433.000000	0.046840 
432.000000	0.048410 
431.000000	0.050590 
430.000000	0.052480 
429.000000	0.054680 
428.000000	0.056860 
427.000000	0.059060 
426.000000	0.061380 
425.000000	0.064010 
424.000000	0.066340 
423.000000	0.069190 
422.000000	0.071770 
421.000000	0.074280 
420.000000	0.077020 
419.000000	0.079710 
418.000000	0.082370 
417.000000	0.085440 
416.000000	0.088340 
415.000000	0.091189 
414.000000	0.094170 
413.000000	0.097180 
412.000000	0.100050 
411.000000	0.102970 
410.000000	0.105580 
409.000000	0.108500 
408.000000	0.111450 
407.000000	0.114310 
406.000000	0.116960 
405.000000	0.119570 
404.000000	0.121760 
403.000000	0.124040 
402.000000	0.126190 
401.000000	0.128370 
400.000000	0.130220 

