PE UV                   SPECTRUM    ASCII       PEDS        1.60        
  -1
23MS214.SP
24/10/18
15:23:30.00
24/10/18
15:24:35.00


400.000000
1









4444

SCAN
1
1


0.0
480.0
2.00
MANUAL



UV/VIS




































#HDR
-1
-1
#GR
NM
A
0.00000011920928955078
0.0
700.000000
1.000000
301
8
0.686470
0.024520
#DATA
700.000000	0.024520 
699.000000	0.025360 
698.000000	0.026090 
697.000000	0.026950 
696.000000	0.027910 
695.000000	0.028830 
694.000000	0.029890 
693.000000	0.030820 
692.000000	0.031790 
691.000000	0.032920 
690.000000	0.034040 
689.000000	0.035270 
688.000000	0.036450 
687.000000	0.037810 
686.000000	0.039050 
685.000000	0.040570 
684.000000	0.042060 
683.000000	0.043700 
682.000000	0.045350 
681.000000	0.047110 
680.000000	0.048840 
679.000000	0.050750 
678.000000	0.052550 
677.000000	0.054670 
676.000000	0.056730 
675.000000	0.058870 
674.000000	0.061180 
673.000000	0.063409 
672.000000	0.065640 
671.000000	0.068110 
670.000000	0.070499 
669.000000	0.073130 
668.000000	0.075610 
667.000000	0.078350 
666.000000	0.081160 
665.000000	0.084080 
664.000000	0.087040 
663.000000	0.090210 
662.000000	0.093270 
661.000000	0.096440 
660.000000	0.099770 
659.000000	0.103290 
658.000000	0.106860 
657.000000	0.110460 
656.000000	0.114230 
655.000000	0.118060 
654.000000	0.122000 
653.000000	0.125770 
652.000000	0.129960 
651.000000	0.134190 
650.000000	0.138620 
649.000000	0.143090 
648.000000	0.147590 
647.000000	0.152240 
646.000000	0.156810 
645.000000	0.161510 
644.000000	0.166280 
643.000000	0.171180 
642.000000	0.176070 
641.000000	0.180950 
640.000000	0.185770 
639.000000	0.190540 
638.000000	0.195310 
637.000000	0.200380 
636.000000	0.205320 
635.000000	0.210350 
634.000000	0.215220 
633.000000	0.220300 
632.000000	0.225530 
631.000000	0.230700 
630.000000	0.235940 
629.000000	0.241190 
628.000000	0.246480 
627.000000	0.251780 
626.000000	0.256890 
625.000000	0.262130 
624.000000	0.267230 
623.000000	0.272620 
622.000000	0.277970 
621.000000	0.283380 
620.000000	0.288870 
619.000000	0.294140 
618.000000	0.299440 
617.000000	0.304780 
616.000000	0.309960 
615.000000	0.315200 
614.000000	0.320540 
613.000000	0.325490 
612.000000	0.330360 
611.000000	0.335230 
610.000000	0.340100 
609.000000	0.344970 
608.000000	0.349800 
607.000000	0.354620 
606.000000	0.359240 
605.000000	0.363990 
604.000000	0.368660 
603.000000	0.373350 
602.000000	0.378030 
601.000000	0.382860 
600.000000	0.387740 
599.000000	0.392400 
598.000000	0.397180 
597.000000	0.401930 
596.000000	0.406450 
595.000000	0.411180 
594.000000	0.415990 
593.000000	0.420850 
592.000000	0.425760 
591.000000	0.430840 
590.000000	0.435760 
589.000000	0.440870 
588.000000	0.445860 
587.000000	0.451040 
586.000000	0.456180 
585.000000	0.461390 
584.000000	0.466590 
583.000000	0.471780 
582.000000	0.476980 
581.000000	0.481940 
580.000000	0.487230 
579.000000	0.492360 
578.000000	0.497520 
577.000000	0.502980 
576.000000	0.508520 
575.000000	0.513760 
574.000000	0.519410 
573.000000	0.524950 
572.000000	0.530630 
571.000000	0.536260 
570.000000	0.541810 
569.000000	0.547610 
568.000000	0.553320 
567.000000	0.558870 
566.000000	0.564779 
565.000000	0.570530 
564.000000	0.576440 
563.000000	0.582319 
562.000000	0.588210 
561.000000	0.593980 
560.000000	0.599880 
559.000000	0.605410 
558.000000	0.612080 
557.000000	0.617640 
556.000000	0.623220 
555.000000	0.628540 
554.000000	0.633430 
553.000000	0.638430 
552.000000	0.643230 
551.000000	0.647720 
550.000000	0.651980 
549.000000	0.656100 
548.000000	0.660320 
547.000000	0.663870 
546.000000	0.666970 
545.000000	0.670390 
544.000000	0.673270 
543.000000	0.676040 
542.000000	0.678450 
541.000000	0.680720 
540.000000	0.682310 
539.000000	0.683660 
538.000000	0.684580 
537.000000	0.685720 
536.000000	0.686270 
535.000000	0.686470 
534.000000	0.686210 
533.000000	0.685430 
532.000000	0.684470 
531.000000	0.682790 
530.000000	0.680820 
529.000000	0.678740 
528.000000	0.676289 
527.000000	0.673090 
526.000000	0.669510 
525.000000	0.665670 
524.000000	0.661530 
523.000000	0.656990 
522.000000	0.651820 
521.000000	0.646580 
520.000000	0.641020 
519.000000	0.635250 
518.000000	0.629060 
517.000000	0.622390 
516.000000	0.615540 
515.000000	0.608170 
514.000000	0.600120 
513.000000	0.592450 
512.000000	0.584250 
511.000000	0.575950 
510.000000	0.567550 
509.000000	0.558620 
508.000000	0.549470 
507.000000	0.539950 
506.000000	0.530130 
505.000000	0.520390 
504.000000	0.510250 
503.000000	0.499950 
502.000000	0.489590 
501.000000	0.479250 
500.000000	0.468840 
499.000000	0.458060 
498.000000	0.447310 
497.000000	0.436470 
496.000000	0.425490 
495.000000	0.414650 
494.000000	0.403710 
493.000000	0.393180 
492.000000	0.382840 
491.000000	0.372570 
490.000000	0.361990 
489.000000	0.352070 
488.000000	0.342020 
487.000000	0.332070 
486.000000	0.321950 
485.000000	0.311830 
484.000000	0.301890 
483.000000	0.292520 
482.000000	0.283310 
481.000000	0.274290 
480.000000	0.265670 
479.000000	0.256840 
478.000000	0.248210 
477.000000	0.239790 
476.000000	0.231610 
475.000000	0.223540 
474.000000	0.215850 
473.000000	0.208520 
472.000000	0.201370 
471.000000	0.194650 
470.000000	0.188120 
469.000000	0.181710 
468.000000	0.175680 
467.000000	0.170050 
466.000000	0.164440 
465.000000	0.159310 
464.000000	0.154750 
463.000000	0.150140 
462.000000	0.146330 
461.000000	0.142720 
460.000000	0.139320 
459.000000	0.136320 
458.000000	0.133860 
457.000000	0.131370 
456.000000	0.129540 
455.000000	0.127900 
454.000000	0.126630 
453.000000	0.125800 
452.000000	0.125670 
451.000000	0.125290 
450.000000	0.125690 
449.000000	0.126410 
448.000000	0.127420 
447.000000	0.129090 
446.000000	0.130970 
445.000000	0.133640 
444.000000	0.136580 
443.000000	0.139750 
442.000000	0.143290 
441.000000	0.147970 
440.000000	0.152890 
439.000000	0.158190 
438.000000	0.164310 
437.000000	0.170410 
436.000000	0.177110 
435.000000	0.184120 
434.000000	0.191250 
433.000000	0.199590 
432.000000	0.207390 
431.000000	0.216050 
430.000000	0.225210 
429.000000	0.234700 
428.000000	0.244840 
427.000000	0.254920 
426.000000	0.265080 
425.000000	0.276320 
424.000000	0.287240 
423.000000	0.298500 
422.000000	0.309740 
421.000000	0.321250 
420.000000	0.333590 
419.000000	0.346130 
418.000000	0.358460 
417.000000	0.371510 
416.000000	0.384000 
415.000000	0.396640 
414.000000	0.409350 
413.000000	0.421860 
412.000000	0.434490 
411.000000	0.447480 
410.000000	0.460250 
409.000000	0.473100 
408.000000	0.485620 
407.000000	0.497520 
406.000000	0.508840 
405.000000	0.519600 
404.000000	0.529690 
403.000000	0.539540 
402.000000	0.548860 
401.000000	0.558200 
400.000000	0.566930 

