PE UV                   SPECTRUM    ASCII       PEDS        1.60        
  -1
23MS231.SP
24/10/18
15:18:22.00
24/10/18
15:21:18.00


400.000000
1









4444

SCAN
1
1


0.0
480.0
2.00
MANUAL



UV/VIS




































#HDR
-1
-1
#GR
NM
A
0.00000011920928955078
0.0
700.000000
1.000000
301
8
0.180360
0.012960
#DATA
700.000000	0.012960 
699.000000	0.013160 
698.000000	0.013230 
697.000000	0.013400 
696.000000	0.013510 
695.000000	0.013660 
694.000000	0.013950 
693.000000	0.014150 
692.000000	0.014430 
691.000000	0.014650 
690.000000	0.014860 
689.000000	0.015160 
688.000000	0.015450 
687.000000	0.015810 
686.000000	0.015950 
685.000000	0.016380 
684.000000	0.016770 
683.000000	0.017260 
682.000000	0.017680 
681.000000	0.018210 
680.000000	0.018540 
679.000000	0.018910 
678.000000	0.019390 
677.000000	0.019910 
676.000000	0.020350 
675.000000	0.020760 
674.000000	0.021530 
673.000000	0.022100 
672.000000	0.022620 
671.000000	0.023290 
670.000000	0.023880 
669.000000	0.024420 
668.000000	0.025080 
667.000000	0.025680 
666.000000	0.026340 
665.000000	0.027010 
664.000000	0.027720 
663.000000	0.028490 
662.000000	0.029410 
661.000000	0.030110 
660.000000	0.030860 
659.000000	0.031880 
658.000000	0.032630 
657.000000	0.033380 
656.000000	0.034440 
655.000000	0.035390 
654.000000	0.036440 
653.000000	0.037340 
652.000000	0.038480 
651.000000	0.039510 
650.000000	0.040630 
649.000000	0.041610 
648.000000	0.042700 
647.000000	0.043830 
646.000000	0.044960 
645.000000	0.046180 
644.000000	0.047470 
643.000000	0.048660 
642.000000	0.049880 
641.000000	0.051060 
640.000000	0.052270 
639.000000	0.053430 
638.000000	0.054570 
637.000000	0.055860 
636.000000	0.057150 
635.000000	0.058480 
634.000000	0.059720 
633.000000	0.061050 
632.000000	0.062410 
631.000000	0.063650 
630.000000	0.064910 
629.000000	0.066210 
628.000000	0.067550 
627.000000	0.068930 
626.000000	0.070220 
625.000000	0.071660 
624.000000	0.073000 
623.000000	0.074370 
622.000000	0.075640 
621.000000	0.077060 
620.000000	0.078420 
619.000000	0.079730 
618.000000	0.080980 
617.000000	0.082370 
616.000000	0.083800 
615.000000	0.085200 
614.000000	0.086540 
613.000000	0.087780 
612.000000	0.089010 
611.000000	0.090219 
610.000000	0.091490 
609.000000	0.092750 
608.000000	0.094060 
607.000000	0.095170 
606.000000	0.096410 
605.000000	0.097760 
604.000000	0.098900 
603.000000	0.100120 
602.000000	0.101280 
601.000000	0.102420 
600.000000	0.103680 
599.000000	0.104910 
598.000000	0.106200 
597.000000	0.107540 
596.000000	0.108670 
595.000000	0.109990 
594.000000	0.111310 
593.000000	0.112470 
592.000000	0.113690 
591.000000	0.114870 
590.000000	0.116310 
589.000000	0.117470 
588.000000	0.118840 
587.000000	0.120190 
586.000000	0.121660 
585.000000	0.122970 
584.000000	0.124320 
583.000000	0.125610 
582.000000	0.127120 
581.000000	0.128350 
580.000000	0.129650 
579.000000	0.130990 
578.000000	0.132460 
577.000000	0.133940 
576.000000	0.135390 
575.000000	0.136720 
574.000000	0.138300 
573.000000	0.139730 
572.000000	0.141110 
571.000000	0.142540 
570.000000	0.144010 
569.000000	0.145570 
568.000000	0.147220 
567.000000	0.148670 
566.000000	0.150180 
565.000000	0.151740 
564.000000	0.153200 
563.000000	0.154720 
562.000000	0.156320 
561.000000	0.157750 
560.000000	0.159300 
559.000000	0.160840 
558.000000	0.161320 
557.000000	0.162680 
556.000000	0.164110 
555.000000	0.165400 
554.000000	0.166670 
553.000000	0.167890 
552.000000	0.169050 
551.000000	0.170410 
550.000000	0.171460 
549.000000	0.172450 
548.000000	0.173620 
547.000000	0.174600 
546.000000	0.175340 
545.000000	0.176280 
544.000000	0.176960 
543.000000	0.177610 
542.000000	0.178320 
541.000000	0.178680 
540.000000	0.179230 
539.000000	0.179570 
538.000000	0.179890 
537.000000	0.180110 
536.000000	0.180240 
535.000000	0.180360 
534.000000	0.180310 
533.000000	0.180170 
532.000000	0.179850 
531.000000	0.179510 
530.000000	0.178960 
529.000000	0.178530 
528.000000	0.177690 
527.000000	0.177020 
526.000000	0.176320 
525.000000	0.175450 
524.000000	0.174330 
523.000000	0.173340 
522.000000	0.171890 
521.000000	0.170610 
520.000000	0.169180 
519.000000	0.167690 
518.000000	0.166210 
517.000000	0.164460 
516.000000	0.162740 
515.000000	0.160980 
514.000000	0.158960 
513.000000	0.157080 
512.000000	0.154990 
511.000000	0.152890 
510.000000	0.150690 
509.000000	0.148360 
508.000000	0.146120 
507.000000	0.143900 
506.000000	0.141570 
505.000000	0.139240 
504.000000	0.136630 
503.000000	0.134020 
502.000000	0.131430 
501.000000	0.128670 
500.000000	0.126170 
499.000000	0.123350 
498.000000	0.120840 
497.000000	0.117970 
496.000000	0.115330 
495.000000	0.112800 
494.000000	0.110040 
493.000000	0.107330 
492.000000	0.104730 
491.000000	0.101650 
490.000000	0.099250 
489.000000	0.096740 
488.000000	0.094280 
487.000000	0.091860 
486.000000	0.089390 
485.000000	0.086720 
484.000000	0.084180 
483.000000	0.081739 
482.000000	0.079200 
481.000000	0.076790 
480.000000	0.074570 
479.000000	0.072429 
478.000000	0.070350 
477.000000	0.068250 
476.000000	0.066150 
475.000000	0.064060 
474.000000	0.062150 
473.000000	0.060150 
472.000000	0.058460 
471.000000	0.056500 
470.000000	0.054830 
469.000000	0.053250 
468.000000	0.051850 
467.000000	0.050530 
466.000000	0.048880 
465.000000	0.047820 
464.000000	0.046560 
463.000000	0.045340 
462.000000	0.044340 
461.000000	0.043490 
460.000000	0.042590 
459.000000	0.041680 
458.000000	0.041220 
457.000000	0.040640 
456.000000	0.040030 
455.000000	0.039560 
454.000000	0.039380 
453.000000	0.039190 
452.000000	0.039140 
451.000000	0.038890 
450.000000	0.039040 
449.000000	0.039010 
448.000000	0.039290 
447.000000	0.039590 
446.000000	0.040050 
445.000000	0.040710 
444.000000	0.041180 
443.000000	0.042120 
442.000000	0.042870 
441.000000	0.043960 
440.000000	0.045080 
439.000000	0.046240 
438.000000	0.047770 
437.000000	0.049110 
436.000000	0.050940 
435.000000	0.052720 
434.000000	0.054150 
433.000000	0.056260 
432.000000	0.058090 
431.000000	0.060270 
430.000000	0.062460 
429.000000	0.064640 
428.000000	0.067010 
427.000000	0.069450 
426.000000	0.072010 
425.000000	0.074940 
424.000000	0.077420 
423.000000	0.080580 
422.000000	0.083500 
421.000000	0.087110 
420.000000	0.089990 
419.000000	0.092979 
418.000000	0.096000 
417.000000	0.099290 
416.000000	0.102450 
415.000000	0.105520 
414.000000	0.108860 
413.000000	0.112010 
412.000000	0.115000 
411.000000	0.118090 
410.000000	0.121220 
409.000000	0.124600 
408.000000	0.127530 
407.000000	0.130580 
406.000000	0.133510 
405.000000	0.136380 
404.000000	0.138960 
403.000000	0.141370 
402.000000	0.143800 
401.000000	0.146080 
400.000000	0.148200 

