PE UV                   SPECTRUM    ASCII       PEDS        1.60        
  -1
23MS039.SP
24/10/21
15:05:33.00
24/10/21
15:06:44.00


400.000000
1









4444

SCAN
1
1


0.0
480.0
2.00
MANUAL



UV/VIS




































#HDR
-1
-1
#GR
NM
A
0.00000011920928955078
0.0
700.000000
1.000000
301
8
0.435310
0.017280
#DATA
700.000000	0.017280 
699.000000	0.017750 
698.000000	0.018370 
697.000000	0.018970 
696.000000	0.019500 
695.000000	0.020250 
694.000000	0.020970 
693.000000	0.021660 
692.000000	0.022300 
691.000000	0.023070 
690.000000	0.023880 
689.000000	0.024820 
688.000000	0.025760 
687.000000	0.026650 
686.000000	0.027590 
685.000000	0.028650 
684.000000	0.029650 
683.000000	0.031150 
682.000000	0.032340 
681.000000	0.033460 
680.000000	0.034710 
679.000000	0.035950 
678.000000	0.037360 
677.000000	0.038810 
676.000000	0.040220 
675.000000	0.041760 
674.000000	0.043210 
673.000000	0.044870 
672.000000	0.046510 
671.000000	0.048140 
670.000000	0.049840 
669.000000	0.051560 
668.000000	0.053370 
667.000000	0.055220 
666.000000	0.057180 
665.000000	0.059210 
664.000000	0.061170 
663.000000	0.063270 
662.000000	0.065370 
661.000000	0.067630 
660.000000	0.069920 
659.000000	0.072179 
658.000000	0.074690 
657.000000	0.077090 
656.000000	0.079690 
655.000000	0.082150 
654.000000	0.084709 
653.000000	0.087359 
652.000000	0.090090 
651.000000	0.092930 
650.000000	0.095860 
649.000000	0.098880 
648.000000	0.101880 
647.000000	0.104860 
646.000000	0.107950 
645.000000	0.111000 
644.000000	0.114160 
643.000000	0.117270 
642.000000	0.120560 
641.000000	0.123670 
640.000000	0.126900 
639.000000	0.129940 
638.000000	0.133180 
637.000000	0.136410 
636.000000	0.139570 
635.000000	0.142780 
634.000000	0.146060 
633.000000	0.149370 
632.000000	0.152800 
631.000000	0.156030 
630.000000	0.159530 
629.000000	0.162830 
628.000000	0.166240 
627.000000	0.169550 
626.000000	0.172830 
625.000000	0.176170 
624.000000	0.179540 
623.000000	0.182910 
622.000000	0.186350 
621.000000	0.189840 
620.000000	0.193250 
619.000000	0.196530 
618.000000	0.199910 
617.000000	0.203100 
616.000000	0.206440 
615.000000	0.209700 
614.000000	0.213100 
613.000000	0.216040 
612.000000	0.219140 
611.000000	0.222170 
610.000000	0.225160 
609.000000	0.228240 
608.000000	0.231150 
607.000000	0.234020 
606.000000	0.236940 
605.000000	0.239870 
604.000000	0.242760 
603.000000	0.245580 
602.000000	0.248610 
601.000000	0.251560 
600.000000	0.254420 
599.000000	0.257270 
598.000000	0.260170 
597.000000	0.262900 
596.000000	0.265690 
595.000000	0.268670 
594.000000	0.271450 
593.000000	0.274380 
592.000000	0.277370 
591.000000	0.280430 
590.000000	0.283370 
589.000000	0.286430 
588.000000	0.289360 
587.000000	0.292410 
586.000000	0.295490 
585.000000	0.298540 
584.000000	0.301730 
583.000000	0.304860 
582.000000	0.307880 
581.000000	0.311000 
580.000000	0.314210 
579.000000	0.317370 
578.000000	0.320510 
577.000000	0.323770 
576.000000	0.327010 
575.000000	0.330420 
574.000000	0.333670 
573.000000	0.337210 
572.000000	0.340660 
571.000000	0.344100 
570.000000	0.347510 
569.000000	0.350930 
568.000000	0.354300 
567.000000	0.357890 
566.000000	0.361380 
565.000000	0.365030 
564.000000	0.368570 
563.000000	0.372280 
562.000000	0.375770 
561.000000	0.379540 
560.000000	0.383220 
559.000000	0.386580 
558.000000	0.389510 
557.000000	0.393110 
556.000000	0.396310 
555.000000	0.399570 
554.000000	0.402580 
553.000000	0.405750 
552.000000	0.408650 
551.000000	0.411350 
550.000000	0.414210 
549.000000	0.416750 
548.000000	0.419070 
547.000000	0.421280 
546.000000	0.423250 
545.000000	0.425420 
544.000000	0.427340 
543.000000	0.429020 
542.000000	0.430560 
541.000000	0.431770 
540.000000	0.432960 
539.000000	0.433830 
538.000000	0.434510 
537.000000	0.435070 
536.000000	0.435310 
535.000000	0.435280 
534.000000	0.435200 
533.000000	0.434650 
532.000000	0.434100 
531.000000	0.433210 
530.000000	0.431970 
529.000000	0.430580 
528.000000	0.429010 
527.000000	0.427180 
526.000000	0.425070 
525.000000	0.422540 
524.000000	0.419900 
523.000000	0.417150 
522.000000	0.413990 
521.000000	0.410820 
520.000000	0.407420 
519.000000	0.403760 
518.000000	0.399910 
517.000000	0.395660 
516.000000	0.391490 
515.000000	0.387000 
514.000000	0.382190 
513.000000	0.377280 
512.000000	0.372430 
511.000000	0.367360 
510.000000	0.362120 
509.000000	0.356640 
508.000000	0.350980 
507.000000	0.344970 
506.000000	0.338910 
505.000000	0.332870 
504.000000	0.326760 
503.000000	0.320450 
502.000000	0.314170 
501.000000	0.307740 
500.000000	0.301280 
499.000000	0.294460 
498.000000	0.287990 
497.000000	0.281260 
496.000000	0.274520 
495.000000	0.267740 
494.000000	0.261190 
493.000000	0.254890 
492.000000	0.248240 
491.000000	0.242130 
490.000000	0.235720 
489.000000	0.229250 
488.000000	0.223200 
487.000000	0.216930 
486.000000	0.210700 
485.000000	0.204590 
484.000000	0.198510 
483.000000	0.192810 
482.000000	0.187280 
481.000000	0.181770 
480.000000	0.176490 
479.000000	0.171080 
478.000000	0.166010 
477.000000	0.160760 
476.000000	0.155580 
475.000000	0.150910 
474.000000	0.146130 
473.000000	0.141620 
472.000000	0.137440 
471.000000	0.133220 
470.000000	0.129250 
469.000000	0.125250 
468.000000	0.121470 
467.000000	0.118070 
466.000000	0.114550 
465.000000	0.111560 
464.000000	0.108570 
463.000000	0.105930 
462.000000	0.103650 
461.000000	0.101600 
460.000000	0.099440 
459.000000	0.097730 
458.000000	0.096030 
457.000000	0.094490 
456.000000	0.093320 
455.000000	0.092390 
454.000000	0.091730 
453.000000	0.091090 
452.000000	0.090770 
451.000000	0.090930 
450.000000	0.091040 
449.000000	0.091210 
448.000000	0.091990 
447.000000	0.093130 
446.000000	0.094390 
445.000000	0.096120 
444.000000	0.098050 
443.000000	0.099910 
442.000000	0.102200 
441.000000	0.104800 
440.000000	0.108060 
439.000000	0.111530 
438.000000	0.114950 
437.000000	0.119130 
436.000000	0.123190 
435.000000	0.127700 
434.000000	0.132060 
433.000000	0.137140 
432.000000	0.142290 
431.000000	0.147600 
430.000000	0.153350 
429.000000	0.159600 
428.000000	0.166090 
427.000000	0.172310 
426.000000	0.179110 
425.000000	0.185770 
424.000000	0.192540 
423.000000	0.200010 
422.000000	0.207140 
421.000000	0.214860 
420.000000	0.222680 
419.000000	0.230630 
418.000000	0.238510 
417.000000	0.246680 
416.000000	0.254500 
415.000000	0.262560 
414.000000	0.270590 
413.000000	0.278610 
412.000000	0.286920 
411.000000	0.295070 
410.000000	0.303080 
409.000000	0.311250 
408.000000	0.318990 
407.000000	0.326520 
406.000000	0.333800 
405.000000	0.340620 
404.000000	0.347310 
403.000000	0.353720 
402.000000	0.359720 
401.000000	0.365690 
400.000000	0.371500 

