PE UV                   SPECTRUM    ASCII       PEDS        1.60        
  -1
23MS047.SP
24/10/21
15:36:12.00
24/10/21
15:37:20.00


400.000000
1









4444

SCAN
1
1


0.0
480.0
2.00
MANUAL



UV/VIS




































#HDR
-1
-1
#GR
NM
A
0.00000011920928955078
0.0
700.000000
1.000000
301
8
0.260430
0.012920
#DATA
700.000000	0.012920 
699.000000	0.013130 
698.000000	0.013540 
697.000000	0.013780 
696.000000	0.014020 
695.000000	0.014360 
694.000000	0.014750 
693.000000	0.015110 
692.000000	0.015490 
691.000000	0.015850 
690.000000	0.016310 
689.000000	0.016760 
688.000000	0.017140 
687.000000	0.017590 
686.000000	0.018080 
685.000000	0.018620 
684.000000	0.019130 
683.000000	0.019920 
682.000000	0.020630 
681.000000	0.021190 
680.000000	0.021960 
679.000000	0.022400 
678.000000	0.022990 
677.000000	0.023820 
676.000000	0.024490 
675.000000	0.025350 
674.000000	0.026150 
673.000000	0.027060 
672.000000	0.027960 
671.000000	0.028720 
670.000000	0.029710 
669.000000	0.030590 
668.000000	0.031640 
667.000000	0.032420 
666.000000	0.033520 
665.000000	0.034660 
664.000000	0.035740 
663.000000	0.036880 
662.000000	0.038040 
661.000000	0.039280 
660.000000	0.040620 
659.000000	0.041780 
658.000000	0.043020 
657.000000	0.044370 
656.000000	0.045760 
655.000000	0.047130 
654.000000	0.048680 
653.000000	0.050280 
652.000000	0.051730 
651.000000	0.053350 
650.000000	0.054870 
649.000000	0.056510 
648.000000	0.058210 
647.000000	0.059750 
646.000000	0.061460 
645.000000	0.063330 
644.000000	0.065140 
643.000000	0.066950 
642.000000	0.068790 
641.000000	0.070530 
640.000000	0.072359 
639.000000	0.073990 
638.000000	0.075829 
637.000000	0.077640 
636.000000	0.079510 
635.000000	0.081370 
634.000000	0.083500 
633.000000	0.085350 
632.000000	0.087340 
631.000000	0.089170 
630.000000	0.091050 
629.000000	0.092930 
628.000000	0.094880 
627.000000	0.096970 
626.000000	0.098860 
625.000000	0.100910 
624.000000	0.102990 
623.000000	0.104920 
622.000000	0.107040 
621.000000	0.108930 
620.000000	0.110850 
619.000000	0.112840 
618.000000	0.114830 
617.000000	0.116730 
616.000000	0.118790 
615.000000	0.120780 
614.000000	0.122850 
613.000000	0.124630 
612.000000	0.126500 
611.000000	0.128330 
610.000000	0.130070 
609.000000	0.131940 
608.000000	0.133690 
607.000000	0.135540 
606.000000	0.137400 
605.000000	0.139210 
604.000000	0.141030 
603.000000	0.142730 
602.000000	0.144510 
601.000000	0.146200 
600.000000	0.147980 
599.000000	0.149740 
598.000000	0.151590 
597.000000	0.153340 
596.000000	0.155190 
595.000000	0.157040 
594.000000	0.158780 
593.000000	0.160550 
592.000000	0.162420 
591.000000	0.164190 
590.000000	0.165970 
589.000000	0.167830 
588.000000	0.169820 
587.000000	0.171710 
586.000000	0.173720 
585.000000	0.175740 
584.000000	0.177630 
583.000000	0.179590 
582.000000	0.181380 
581.000000	0.183310 
580.000000	0.185340 
579.000000	0.187320 
578.000000	0.189330 
577.000000	0.191390 
576.000000	0.193510 
575.000000	0.195710 
574.000000	0.197640 
573.000000	0.199700 
572.000000	0.201790 
571.000000	0.203930 
570.000000	0.206090 
569.000000	0.208190 
568.000000	0.210510 
567.000000	0.212750 
566.000000	0.214950 
565.000000	0.217220 
564.000000	0.219200 
563.000000	0.221310 
562.000000	0.223520 
561.000000	0.225820 
560.000000	0.228040 
559.000000	0.230230 
558.000000	0.232500 
557.000000	0.234610 
556.000000	0.236650 
555.000000	0.238520 
554.000000	0.240310 
553.000000	0.242280 
552.000000	0.244000 
551.000000	0.245620 
550.000000	0.247400 
549.000000	0.249100 
548.000000	0.250510 
547.000000	0.251930 
546.000000	0.253150 
545.000000	0.254400 
544.000000	0.255360 
543.000000	0.256410 
542.000000	0.257350 
541.000000	0.258100 
540.000000	0.258860 
539.000000	0.259460 
538.000000	0.259800 
537.000000	0.260240 
536.000000	0.260430 
535.000000	0.260420 
534.000000	0.260350 
533.000000	0.259960 
532.000000	0.259630 
531.000000	0.259190 
530.000000	0.258440 
529.000000	0.257500 
528.000000	0.256560 
527.000000	0.255470 
526.000000	0.254110 
525.000000	0.252710 
524.000000	0.251130 
523.000000	0.249330 
522.000000	0.247600 
521.000000	0.245610 
520.000000	0.243350 
519.000000	0.241220 
518.000000	0.238840 
517.000000	0.236380 
516.000000	0.233840 
515.000000	0.231310 
514.000000	0.228300 
513.000000	0.225490 
512.000000	0.222490 
511.000000	0.219250 
510.000000	0.216010 
509.000000	0.212600 
508.000000	0.209070 
507.000000	0.205680 
506.000000	0.202040 
505.000000	0.198690 
504.000000	0.194870 
503.000000	0.190940 
502.000000	0.187170 
501.000000	0.183090 
500.000000	0.179180 
499.000000	0.175000 
498.000000	0.171050 
497.000000	0.167130 
496.000000	0.163360 
495.000000	0.159170 
494.000000	0.155240 
493.000000	0.151290 
492.000000	0.147360 
491.000000	0.143440 
490.000000	0.139370 
489.000000	0.135520 
488.000000	0.132010 
487.000000	0.128270 
486.000000	0.124410 
485.000000	0.120850 
484.000000	0.117240 
483.000000	0.113700 
482.000000	0.110200 
481.000000	0.106660 
480.000000	0.103430 
479.000000	0.100050 
478.000000	0.097180 
477.000000	0.094180 
476.000000	0.090840 
475.000000	0.088050 
474.000000	0.085200 
473.000000	0.082450 
472.000000	0.079740 
471.000000	0.076980 
470.000000	0.074630 
469.000000	0.072270 
468.000000	0.070150 
467.000000	0.068020 
466.000000	0.065860 
465.000000	0.064019 
464.000000	0.062260 
463.000000	0.060430 
462.000000	0.059030 
461.000000	0.057850 
460.000000	0.056400 
459.000000	0.055560 
458.000000	0.054480 
457.000000	0.053770 
456.000000	0.052980 
455.000000	0.052440 
454.000000	0.052020 
453.000000	0.051600 
452.000000	0.051430 
451.000000	0.051590 
450.000000	0.051580 
449.000000	0.051820 
448.000000	0.052200 
447.000000	0.052850 
446.000000	0.053730 
445.000000	0.054570 
444.000000	0.055910 
443.000000	0.057170 
442.000000	0.058430 
441.000000	0.060010 
440.000000	0.061860 
439.000000	0.063960 
438.000000	0.065949 
437.000000	0.068230 
436.000000	0.070860 
435.000000	0.073690 
434.000000	0.076189 
433.000000	0.079450 
432.000000	0.082320 
431.000000	0.085639 
430.000000	0.088900 
429.000000	0.092480 
428.000000	0.096019 
427.000000	0.099930 
426.000000	0.103810 
425.000000	0.107900 
424.000000	0.112190 
423.000000	0.116660 
422.000000	0.121080 
421.000000	0.126190 
420.000000	0.130630 
419.000000	0.134920 
418.000000	0.139500 
417.000000	0.144370 
416.000000	0.149120 
415.000000	0.154040 
414.000000	0.158910 
413.000000	0.163730 
412.000000	0.168480 
411.000000	0.173110 
410.000000	0.177580 
409.000000	0.182190 
408.000000	0.186990 
407.000000	0.191380 
406.000000	0.195720 
405.000000	0.199830 
404.000000	0.203700 
403.000000	0.207510 
402.000000	0.210900 
401.000000	0.214290 
400.000000	0.217510 

