PE UV                   SPECTRUM    ASCII       PEDS        1.60        
  -1
23MS217.SP
24/10/18
15:44:07.00
24/10/18
15:45:17.00


400.000000
1









4444

SCAN
1
1


0.0
480.0
2.00
MANUAL



UV/VIS




































#HDR
-1
-1
#GR
NM
A
0.00000011920928955078
0.0
700.000000
1.000000
301
8
0.684850
0.035370
#DATA
700.000000	0.035370 
699.000000	0.036140 
698.000000	0.036870 
697.000000	0.037700 
696.000000	0.038560 
695.000000	0.039400 
694.000000	0.040390 
693.000000	0.041390 
692.000000	0.042470 
691.000000	0.043560 
690.000000	0.044720 
689.000000	0.045900 
688.000000	0.047110 
687.000000	0.048400 
686.000000	0.049550 
685.000000	0.050990 
684.000000	0.052330 
683.000000	0.054240 
682.000000	0.056000 
681.000000	0.057770 
680.000000	0.059450 
679.000000	0.061330 
678.000000	0.063120 
677.000000	0.065030 
676.000000	0.067000 
675.000000	0.069020 
674.000000	0.071319 
673.000000	0.073420 
672.000000	0.075630 
671.000000	0.078090 
670.000000	0.080470 
669.000000	0.082900 
668.000000	0.085370 
667.000000	0.087970 
666.000000	0.090399 
665.000000	0.093240 
664.000000	0.096129 
663.000000	0.099270 
662.000000	0.102380 
661.000000	0.105540 
660.000000	0.108730 
659.000000	0.112120 
658.000000	0.115410 
657.000000	0.118620 
656.000000	0.122260 
655.000000	0.126030 
654.000000	0.129910 
653.000000	0.133720 
652.000000	0.137960 
651.000000	0.142100 
650.000000	0.146250 
649.000000	0.150400 
648.000000	0.154710 
647.000000	0.159050 
646.000000	0.163510 
645.000000	0.168190 
644.000000	0.172940 
643.000000	0.177640 
642.000000	0.182270 
641.000000	0.186960 
640.000000	0.191500 
639.000000	0.196030 
638.000000	0.200570 
637.000000	0.205290 
636.000000	0.210020 
635.000000	0.215060 
634.000000	0.219930 
633.000000	0.225020 
632.000000	0.230060 
631.000000	0.235080 
630.000000	0.239920 
629.000000	0.244830 
628.000000	0.249920 
627.000000	0.255150 
626.000000	0.260170 
625.000000	0.265350 
624.000000	0.270580 
623.000000	0.275880 
622.000000	0.280980 
621.000000	0.286220 
620.000000	0.291260 
619.000000	0.296280 
618.000000	0.301250 
617.000000	0.306530 
616.000000	0.311750 
615.000000	0.317070 
614.000000	0.322270 
613.000000	0.327050 
612.000000	0.331740 
611.000000	0.336340 
610.000000	0.340960 
609.000000	0.345750 
608.000000	0.350480 
607.000000	0.355200 
606.000000	0.359800 
605.000000	0.364640 
604.000000	0.369290 
603.000000	0.373930 
602.000000	0.378350 
601.000000	0.382880 
600.000000	0.387370 
599.000000	0.391960 
598.000000	0.396670 
597.000000	0.401380 
596.000000	0.406050 
595.000000	0.410800 
594.000000	0.415570 
593.000000	0.420300 
592.000000	0.424900 
591.000000	0.429680 
590.000000	0.434540 
589.000000	0.439420 
588.000000	0.444400 
587.000000	0.449730 
586.000000	0.454900 
585.000000	0.460170 
584.000000	0.465260 
583.000000	0.470150 
582.000000	0.475350 
581.000000	0.480190 
580.000000	0.485330 
579.000000	0.490460 
578.000000	0.495830 
577.000000	0.501340 
576.000000	0.506890 
575.000000	0.512330 
574.000000	0.517750 
573.000000	0.523150 
572.000000	0.528570 
571.000000	0.534060 
570.000000	0.539540 
569.000000	0.545390 
568.000000	0.551289 
567.000000	0.557080 
566.000000	0.562970 
565.000000	0.568650 
564.000000	0.574380 
563.000000	0.580030 
562.000000	0.585700 
561.000000	0.591430 
560.000000	0.597120 
559.000000	0.603050 
558.000000	0.609900 
557.000000	0.615710 
556.000000	0.621250 
555.000000	0.626320 
554.000000	0.631210 
553.000000	0.636060 
552.000000	0.640720 
551.000000	0.645429 
550.000000	0.649810 
549.000000	0.653960 
548.000000	0.658170 
547.000000	0.661710 
546.000000	0.665050 
545.000000	0.668400 
544.000000	0.671400 
543.000000	0.674130 
542.000000	0.676450 
541.000000	0.678710 
540.000000	0.680400 
539.000000	0.681850 
538.000000	0.682980 
537.000000	0.684030 
536.000000	0.684580 
535.000000	0.684850 
534.000000	0.684690 
533.000000	0.684140 
532.000000	0.683180 
531.000000	0.681770 
530.000000	0.679850 
529.000000	0.677810 
528.000000	0.675170 
527.000000	0.672310 
526.000000	0.669090 
525.000000	0.665380 
524.000000	0.661380 
523.000000	0.657280 
522.000000	0.652110 
521.000000	0.646890 
520.000000	0.641170 
519.000000	0.635570 
518.000000	0.629630 
517.000000	0.622990 
516.000000	0.616340 
515.000000	0.609420 
514.000000	0.601870 
513.000000	0.594530 
512.000000	0.586500 
511.000000	0.578050 
510.000000	0.569510 
509.000000	0.560510 
508.000000	0.551520 
507.000000	0.542400 
506.000000	0.533020 
505.000000	0.523860 
504.000000	0.514220 
503.000000	0.503910 
502.000000	0.493900 
501.000000	0.483310 
500.000000	0.472610 
499.000000	0.461860 
498.000000	0.451280 
497.000000	0.440850 
496.000000	0.430550 
495.000000	0.420050 
494.000000	0.409550 
493.000000	0.399140 
492.000000	0.388790 
491.000000	0.378260 
490.000000	0.367860 
489.000000	0.357750 
488.000000	0.348210 
487.000000	0.338450 
486.000000	0.328940 
485.000000	0.319330 
484.000000	0.309780 
483.000000	0.300410 
482.000000	0.290800 
481.000000	0.281680 
480.000000	0.272960 
479.000000	0.264360 
478.000000	0.256230 
477.000000	0.248250 
476.000000	0.240390 
475.000000	0.232760 
474.000000	0.224910 
473.000000	0.217570 
472.000000	0.210460 
471.000000	0.203380 
470.000000	0.196970 
469.000000	0.190890 
468.000000	0.185110 
467.000000	0.179670 
466.000000	0.174250 
465.000000	0.169320 
464.000000	0.164680 
463.000000	0.160180 
462.000000	0.156300 
461.000000	0.152970 
460.000000	0.149550 
459.000000	0.146630 
458.000000	0.144290 
457.000000	0.142070 
456.000000	0.140160 
455.000000	0.138480 
454.000000	0.137370 
453.000000	0.136610 
452.000000	0.136470 
451.000000	0.136180 
450.000000	0.136710 
449.000000	0.137340 
448.000000	0.138600 
447.000000	0.140210 
446.000000	0.142140 
445.000000	0.144690 
444.000000	0.147390 
443.000000	0.150920 
442.000000	0.154750 
441.000000	0.159480 
440.000000	0.163890 
439.000000	0.169170 
438.000000	0.174920 
437.000000	0.180920 
436.000000	0.187500 
435.000000	0.194890 
434.000000	0.202200 
433.000000	0.210700 
432.000000	0.218370 
431.000000	0.226720 
430.000000	0.235630 
429.000000	0.244570 
428.000000	0.254330 
427.000000	0.264350 
426.000000	0.274490 
425.000000	0.285690 
424.000000	0.296730 
423.000000	0.308690 
422.000000	0.320390 
421.000000	0.332980 
420.000000	0.344640 
419.000000	0.356330 
418.000000	0.368520 
417.000000	0.381290 
416.000000	0.393980 
415.000000	0.406750 
414.000000	0.419760 
413.000000	0.432400 
412.000000	0.444850 
411.000000	0.457210 
410.000000	0.469080 
409.000000	0.481430 
408.000000	0.493880 
407.000000	0.505790 
406.000000	0.517209 
405.000000	0.528070 
404.000000	0.538130 
403.000000	0.547760 
402.000000	0.556890 
401.000000	0.565910 
400.000000	0.574230 

