PE UV                   SPECTRUM    ASCII       PEDS        1.60        
  -1
23MS041.SP
24/10/21
15:27:17.00
24/10/21
15:28:24.00


400.000000
1









4444

SCAN
1
1


0.0
480.0
2.00
MANUAL



UV/VIS




































#HDR
-1
-1
#GR
NM
A
0.00000011920928955078
0.0
700.000000
1.000000
301
8
0.548080
0.024290
#DATA
700.000000	0.024290 
699.000000	0.024940 
698.000000	0.025750 
697.000000	0.026400 
696.000000	0.027090 
695.000000	0.027850 
694.000000	0.028700 
693.000000	0.029580 
692.000000	0.030420 
691.000000	0.031320 
690.000000	0.032430 
689.000000	0.033500 
688.000000	0.034510 
687.000000	0.035590 
686.000000	0.036700 
685.000000	0.037890 
684.000000	0.039110 
683.000000	0.040630 
682.000000	0.042030 
681.000000	0.043500 
680.000000	0.045050 
679.000000	0.046380 
678.000000	0.048010 
677.000000	0.049570 
676.000000	0.051180 
675.000000	0.053060 
674.000000	0.054840 
673.000000	0.056710 
672.000000	0.058730 
671.000000	0.060580 
670.000000	0.062760 
669.000000	0.064790 
668.000000	0.066900 
667.000000	0.069050 
666.000000	0.071190 
665.000000	0.073649 
664.000000	0.076130 
663.000000	0.078790 
662.000000	0.081250 
661.000000	0.084050 
660.000000	0.086760 
659.000000	0.089550 
658.000000	0.092360 
657.000000	0.095300 
656.000000	0.098309 
655.000000	0.101340 
654.000000	0.104560 
653.000000	0.108000 
652.000000	0.111310 
651.000000	0.114860 
650.000000	0.118350 
649.000000	0.121930 
648.000000	0.125460 
647.000000	0.129080 
646.000000	0.132610 
645.000000	0.136500 
644.000000	0.140480 
643.000000	0.144440 
642.000000	0.148400 
641.000000	0.152200 
640.000000	0.156030 
639.000000	0.159840 
638.000000	0.163600 
637.000000	0.167430 
636.000000	0.171450 
635.000000	0.175520 
634.000000	0.179800 
633.000000	0.184030 
632.000000	0.188350 
631.000000	0.192410 
630.000000	0.196460 
629.000000	0.200480 
628.000000	0.204680 
627.000000	0.208890 
626.000000	0.212940 
625.000000	0.217260 
624.000000	0.221710 
623.000000	0.225950 
622.000000	0.230290 
621.000000	0.234400 
620.000000	0.238570 
619.000000	0.242540 
618.000000	0.246720 
617.000000	0.250860 
616.000000	0.255140 
615.000000	0.259400 
614.000000	0.263680 
613.000000	0.267600 
612.000000	0.271350 
611.000000	0.275160 
610.000000	0.278850 
609.000000	0.282710 
608.000000	0.286450 
607.000000	0.290250 
606.000000	0.294000 
605.000000	0.297950 
604.000000	0.301670 
603.000000	0.305340 
602.000000	0.309100 
601.000000	0.312600 
600.000000	0.316290 
599.000000	0.319830 
598.000000	0.323550 
597.000000	0.327260 
596.000000	0.331010 
595.000000	0.334880 
594.000000	0.338530 
593.000000	0.342350 
592.000000	0.346130 
591.000000	0.349790 
590.000000	0.353560 
589.000000	0.357420 
588.000000	0.361300 
587.000000	0.365410 
586.000000	0.369560 
585.000000	0.373620 
584.000000	0.377670 
583.000000	0.381540 
582.000000	0.385500 
581.000000	0.389410 
580.000000	0.393410 
579.000000	0.397440 
578.000000	0.401560 
577.000000	0.405860 
576.000000	0.410260 
575.000000	0.414640 
574.000000	0.418880 
573.000000	0.423180 
572.000000	0.427540 
571.000000	0.431950 
570.000000	0.436170 
569.000000	0.440640 
568.000000	0.445320 
567.000000	0.449850 
566.000000	0.454440 
565.000000	0.459040 
564.000000	0.463430 
563.000000	0.467860 
562.000000	0.472240 
561.000000	0.476940 
560.000000	0.481450 
559.000000	0.485910 
558.000000	0.490460 
557.000000	0.494990 
556.000000	0.499200 
555.000000	0.503390 
554.000000	0.506950 
553.000000	0.510939 
552.000000	0.514500 
551.000000	0.517920 
550.000000	0.521340 
549.000000	0.524820 
548.000000	0.527860 
547.000000	0.530720 
546.000000	0.533240 
545.000000	0.535740 
544.000000	0.538000 
543.000000	0.540140 
542.000000	0.541950 
541.000000	0.543440 
540.000000	0.544890 
539.000000	0.546150 
538.000000	0.546890 
537.000000	0.547610 
536.000000	0.548080 
535.000000	0.547970 
534.000000	0.547780 
533.000000	0.547190 
532.000000	0.546470 
531.000000	0.545280 
530.000000	0.543740 
529.000000	0.542040 
528.000000	0.539840 
527.000000	0.537490 
526.000000	0.534640 
525.000000	0.531860 
524.000000	0.528520 
523.000000	0.524970 
522.000000	0.521120 
521.000000	0.516800 
520.000000	0.512230 
519.000000	0.507920 
518.000000	0.502910 
517.000000	0.497700 
516.000000	0.492340 
515.000000	0.486810 
514.000000	0.480950 
513.000000	0.474980 
512.000000	0.468730 
511.000000	0.462130 
510.000000	0.455110 
509.000000	0.447960 
508.000000	0.440940 
507.000000	0.433660 
506.000000	0.426040 
505.000000	0.418630 
504.000000	0.411020 
503.000000	0.403190 
502.000000	0.394990 
501.000000	0.386570 
500.000000	0.378160 
499.000000	0.369510 
498.000000	0.361100 
497.000000	0.352890 
496.000000	0.344670 
495.000000	0.336290 
494.000000	0.328120 
493.000000	0.319920 
492.000000	0.311500 
491.000000	0.303360 
490.000000	0.295090 
489.000000	0.286940 
488.000000	0.279140 
487.000000	0.271490 
486.000000	0.263880 
485.000000	0.256450 
484.000000	0.249000 
483.000000	0.241560 
482.000000	0.234320 
481.000000	0.226980 
480.000000	0.219880 
479.000000	0.213120 
478.000000	0.206790 
477.000000	0.200540 
476.000000	0.194090 
475.000000	0.188080 
474.000000	0.182080 
473.000000	0.176300 
472.000000	0.170610 
471.000000	0.165220 
470.000000	0.160020 
469.000000	0.155080 
468.000000	0.150710 
467.000000	0.146180 
466.000000	0.141940 
465.000000	0.138040 
464.000000	0.134470 
463.000000	0.131000 
462.000000	0.127930 
461.000000	0.125370 
460.000000	0.122720 
459.000000	0.120510 
458.000000	0.118370 
457.000000	0.116580 
456.000000	0.115220 
455.000000	0.114150 
454.000000	0.113270 
453.000000	0.112300 
452.000000	0.111910 
451.000000	0.112230 
450.000000	0.112320 
449.000000	0.113000 
448.000000	0.113930 
447.000000	0.115090 
446.000000	0.116820 
445.000000	0.118770 
444.000000	0.121250 
443.000000	0.123950 
442.000000	0.127200 
441.000000	0.130400 
440.000000	0.134150 
439.000000	0.138700 
438.000000	0.142760 
437.000000	0.147720 
436.000000	0.152850 
435.000000	0.158930 
434.000000	0.164920 
433.000000	0.171040 
432.000000	0.177590 
431.000000	0.184360 
430.000000	0.191670 
429.000000	0.199060 
428.000000	0.206610 
427.000000	0.214610 
426.000000	0.222530 
425.000000	0.231530 
424.000000	0.240370 
423.000000	0.249560 
422.000000	0.259010 
421.000000	0.268500 
420.000000	0.277930 
419.000000	0.287150 
418.000000	0.296790 
417.000000	0.307020 
416.000000	0.317050 
415.000000	0.327390 
414.000000	0.337740 
413.000000	0.347830 
412.000000	0.358050 
411.000000	0.367930 
410.000000	0.377630 
409.000000	0.387350 
408.000000	0.397170 
407.000000	0.406810 
406.000000	0.415850 
405.000000	0.424500 
404.000000	0.432860 
403.000000	0.440810 
402.000000	0.448270 
401.000000	0.455340 
400.000000	0.462160 

