PE UV                   SPECTRUM    ASCII       PEDS        1.60        
  -1
23MS272.SP
24/10/18
15:14:42.00
24/10/18
15:16:01.00


400.000000
1









4444

SCAN
1
1


0.0
480.0
2.00
MANUAL



UV/VIS




































#HDR
-1
-1
#GR
NM
A
0.00000011920928955078
0.0
700.000000
1.000000
301
8
0.215780
0.018980
#DATA
700.000000	0.018980 
699.000000	0.019310 
698.000000	0.019390 
697.000000	0.019650 
696.000000	0.019870 
695.000000	0.020260 
694.000000	0.020550 
693.000000	0.020880 
692.000000	0.021140 
691.000000	0.021450 
690.000000	0.021780 
689.000000	0.022080 
688.000000	0.022490 
687.000000	0.022910 
686.000000	0.023220 
685.000000	0.023750 
684.000000	0.024140 
683.000000	0.024610 
682.000000	0.025160 
681.000000	0.025750 
680.000000	0.026160 
679.000000	0.026790 
678.000000	0.027310 
677.000000	0.028020 
676.000000	0.028530 
675.000000	0.029040 
674.000000	0.029830 
673.000000	0.030460 
672.000000	0.031160 
671.000000	0.031940 
670.000000	0.032540 
669.000000	0.033340 
668.000000	0.034110 
667.000000	0.034900 
666.000000	0.035490 
665.000000	0.036510 
664.000000	0.037370 
663.000000	0.038210 
662.000000	0.039270 
661.000000	0.040170 
660.000000	0.041130 
659.000000	0.042190 
658.000000	0.043150 
657.000000	0.044200 
656.000000	0.045320 
655.000000	0.046480 
654.000000	0.047530 
653.000000	0.048610 
652.000000	0.049910 
651.000000	0.051220 
650.000000	0.052460 
649.000000	0.053780 
648.000000	0.055060 
647.000000	0.056410 
646.000000	0.057770 
645.000000	0.059150 
644.000000	0.060540 
643.000000	0.061920 
642.000000	0.063440 
641.000000	0.064790 
640.000000	0.066210 
639.000000	0.067570 
638.000000	0.069000 
637.000000	0.070450 
636.000000	0.071880 
635.000000	0.073370 
634.000000	0.074820 
633.000000	0.076350 
632.000000	0.077880 
631.000000	0.079460 
630.000000	0.080970 
629.000000	0.082520 
628.000000	0.084130 
627.000000	0.085700 
626.000000	0.087080 
625.000000	0.088700 
624.000000	0.090230 
623.000000	0.091829 
622.000000	0.093400 
621.000000	0.095070 
620.000000	0.096780 
619.000000	0.098230 
618.000000	0.099690 
617.000000	0.101270 
616.000000	0.102830 
615.000000	0.104440 
614.000000	0.105950 
613.000000	0.107470 
612.000000	0.108950 
611.000000	0.110410 
610.000000	0.111880 
609.000000	0.113330 
608.000000	0.114720 
607.000000	0.116050 
606.000000	0.117500 
605.000000	0.118890 
604.000000	0.120260 
603.000000	0.121820 
602.000000	0.123180 
601.000000	0.124590 
600.000000	0.125990 
599.000000	0.127380 
598.000000	0.128790 
597.000000	0.130260 
596.000000	0.131580 
595.000000	0.133010 
594.000000	0.134540 
593.000000	0.136020 
592.000000	0.137410 
591.000000	0.138930 
590.000000	0.140420 
589.000000	0.141900 
588.000000	0.143390 
587.000000	0.144920 
586.000000	0.146530 
585.000000	0.148060 
584.000000	0.149680 
583.000000	0.151180 
582.000000	0.152870 
581.000000	0.154230 
580.000000	0.155800 
579.000000	0.157380 
578.000000	0.158910 
577.000000	0.160550 
576.000000	0.162310 
575.000000	0.163860 
574.000000	0.165600 
573.000000	0.167260 
572.000000	0.168970 
571.000000	0.170590 
570.000000	0.172280 
569.000000	0.173980 
568.000000	0.175850 
567.000000	0.177460 
566.000000	0.179260 
565.000000	0.181010 
564.000000	0.182940 
563.000000	0.184530 
562.000000	0.186340 
561.000000	0.188030 
560.000000	0.189820 
559.000000	0.191480 
558.000000	0.192970 
557.000000	0.194550 
556.000000	0.196360 
555.000000	0.197890 
554.000000	0.199300 
553.000000	0.200800 
552.000000	0.202280 
551.000000	0.203630 
550.000000	0.204990 
549.000000	0.206100 
548.000000	0.207360 
547.000000	0.208520 
546.000000	0.209550 
545.000000	0.210540 
544.000000	0.211470 
543.000000	0.212260 
542.000000	0.213100 
541.000000	0.213830 
540.000000	0.214370 
539.000000	0.214780 
538.000000	0.215180 
537.000000	0.215530 
536.000000	0.215650 
535.000000	0.215780 
534.000000	0.215740 
533.000000	0.215480 
532.000000	0.215210 
531.000000	0.214770 
530.000000	0.214240 
529.000000	0.213680 
528.000000	0.213000 
527.000000	0.212130 
526.000000	0.211010 
525.000000	0.209990 
524.000000	0.208760 
523.000000	0.207490 
522.000000	0.206020 
521.000000	0.204470 
520.000000	0.202890 
519.000000	0.201110 
518.000000	0.199340 
517.000000	0.197350 
516.000000	0.195380 
515.000000	0.193210 
514.000000	0.190810 
513.000000	0.188680 
512.000000	0.186290 
511.000000	0.183910 
510.000000	0.181430 
509.000000	0.178780 
508.000000	0.176070 
507.000000	0.173170 
506.000000	0.170450 
505.000000	0.167530 
504.000000	0.164620 
503.000000	0.161560 
502.000000	0.158530 
501.000000	0.155550 
500.000000	0.152560 
499.000000	0.149280 
498.000000	0.146050 
497.000000	0.142800 
496.000000	0.139560 
495.000000	0.136510 
494.000000	0.133270 
493.000000	0.130280 
492.000000	0.127200 
491.000000	0.124020 
490.000000	0.121000 
489.000000	0.117800 
488.000000	0.115010 
487.000000	0.112070 
486.000000	0.109150 
485.000000	0.106110 
484.000000	0.103180 
483.000000	0.100380 
482.000000	0.097670 
481.000000	0.094860 
480.000000	0.092290 
479.000000	0.089560 
478.000000	0.087150 
477.000000	0.084610 
476.000000	0.082230 
475.000000	0.080070 
474.000000	0.077710 
473.000000	0.075490 
472.000000	0.073460 
471.000000	0.071380 
470.000000	0.069380 
469.000000	0.067460 
468.000000	0.065730 
467.000000	0.064159 
466.000000	0.062490 
465.000000	0.061020 
464.000000	0.059700 
463.000000	0.058320 
462.000000	0.057200 
461.000000	0.056240 
460.000000	0.055240 
459.000000	0.054230 
458.000000	0.053580 
457.000000	0.052930 
456.000000	0.052320 
455.000000	0.051830 
454.000000	0.051420 
453.000000	0.051400 
452.000000	0.051440 
451.000000	0.051100 
450.000000	0.051440 
449.000000	0.051370 
448.000000	0.051750 
447.000000	0.052270 
446.000000	0.052880 
445.000000	0.053610 
444.000000	0.054290 
443.000000	0.055540 
442.000000	0.056350 
441.000000	0.057930 
440.000000	0.059150 
439.000000	0.060890 
438.000000	0.063000 
437.000000	0.064320 
436.000000	0.066290 
435.000000	0.068529 
434.000000	0.070760 
433.000000	0.073060 
432.000000	0.075290 
431.000000	0.077979 
430.000000	0.080600 
429.000000	0.083470 
428.000000	0.086249 
427.000000	0.089330 
426.000000	0.091960 
425.000000	0.095449 
424.000000	0.098700 
423.000000	0.102210 
422.000000	0.105640 
421.000000	0.109500 
420.000000	0.113170 
419.000000	0.116630 
418.000000	0.120320 
417.000000	0.124120 
416.000000	0.127740 
415.000000	0.131440 
414.000000	0.135140 
413.000000	0.138950 
412.000000	0.142630 
411.000000	0.146760 
410.000000	0.150490 
409.000000	0.154300 
408.000000	0.157780 
407.000000	0.161390 
406.000000	0.164770 
405.000000	0.168180 
404.000000	0.170980 
403.000000	0.174030 
402.000000	0.176850 
401.000000	0.179640 
400.000000	0.182230 

