PE UV                   SPECTRUM    ASCII       PEDS        1.60        
  -1
23MS073.SP
24/10/22
14:52:21.00
24/10/22
14:54:30.00


400.000000
1









4444

SCAN
1
1


0.0
480.0
2.00
MANUAL



UV/VIS




































#HDR
-1
-1
#GR
NM
A
0.00000011920928955078
0.0
700.000000
1.000000
301
8
0.113690
0.005870
#DATA
700.000000	0.005870 
699.000000	0.006020 
698.000000	0.006110 
697.000000	0.006300 
696.000000	0.006430 
695.000000	0.006560 
694.000000	0.006760 
693.000000	0.006980 
692.000000	0.007140 
691.000000	0.007340 
690.000000	0.007520 
689.000000	0.007790 
688.000000	0.007910 
687.000000	0.008180 
686.000000	0.008319 
685.000000	0.008659 
684.000000	0.008829 
683.000000	0.009129 
682.000000	0.009379 
681.000000	0.009590 
680.000000	0.009979 
679.000000	0.010290 
678.000000	0.010520 
677.000000	0.010850 
676.000000	0.011080 
675.000000	0.011460 
674.000000	0.011770 
673.000000	0.012180 
672.000000	0.012620 
671.000000	0.012980 
670.000000	0.013400 
669.000000	0.013800 
668.000000	0.014160 
667.000000	0.014630 
666.000000	0.014970 
665.000000	0.015520 
664.000000	0.015960 
663.000000	0.016520 
662.000000	0.016920 
661.000000	0.017560 
660.000000	0.018090 
659.000000	0.018620 
658.000000	0.019100 
657.000000	0.019720 
656.000000	0.020280 
655.000000	0.020920 
654.000000	0.021590 
653.000000	0.022240 
652.000000	0.022910 
651.000000	0.023570 
650.000000	0.024320 
649.000000	0.025010 
648.000000	0.025560 
647.000000	0.026430 
646.000000	0.027110 
645.000000	0.027920 
644.000000	0.028750 
643.000000	0.029470 
642.000000	0.030310 
641.000000	0.031000 
640.000000	0.031770 
639.000000	0.032560 
638.000000	0.033340 
637.000000	0.034060 
636.000000	0.034970 
635.000000	0.035700 
634.000000	0.036560 
633.000000	0.037470 
632.000000	0.038290 
631.000000	0.039020 
630.000000	0.039920 
629.000000	0.040740 
628.000000	0.041610 
627.000000	0.042500 
626.000000	0.043400 
625.000000	0.044220 
624.000000	0.045070 
623.000000	0.045970 
622.000000	0.046810 
621.000000	0.047740 
620.000000	0.048440 
619.000000	0.049290 
618.000000	0.050200 
617.000000	0.051130 
616.000000	0.051960 
615.000000	0.052850 
614.000000	0.053750 
613.000000	0.054480 
612.000000	0.055300 
611.000000	0.056040 
610.000000	0.056940 
609.000000	0.057650 
608.000000	0.058480 
607.000000	0.059160 
606.000000	0.060020 
605.000000	0.060810 
604.000000	0.061680 
603.000000	0.062360 
602.000000	0.063200 
601.000000	0.063790 
600.000000	0.064610 
599.000000	0.065410 
598.000000	0.066300 
597.000000	0.066989 
596.000000	0.067800 
595.000000	0.068610 
594.000000	0.069400 
593.000000	0.070160 
592.000000	0.070889 
591.000000	0.071730 
590.000000	0.072530 
589.000000	0.073430 
588.000000	0.074200 
587.000000	0.075079 
586.000000	0.075910 
585.000000	0.076710 
584.000000	0.077549 
583.000000	0.078380 
582.000000	0.079240 
581.000000	0.080010 
580.000000	0.081000 
579.000000	0.081780 
578.000000	0.082690 
577.000000	0.083620 
576.000000	0.084390 
575.000000	0.085520 
574.000000	0.086200 
573.000000	0.087200 
572.000000	0.088120 
571.000000	0.089039 
570.000000	0.089930 
569.000000	0.090899 
568.000000	0.091910 
567.000000	0.092799 
566.000000	0.093799 
565.000000	0.094760 
564.000000	0.095820 
563.000000	0.096890 
562.000000	0.097730 
561.000000	0.098820 
560.000000	0.099650 
559.000000	0.100630 
558.000000	0.101180 
557.000000	0.102090 
556.000000	0.103050 
555.000000	0.103910 
554.000000	0.104740 
553.000000	0.105590 
552.000000	0.106190 
551.000000	0.107090 
550.000000	0.107750 
549.000000	0.108430 
548.000000	0.109070 
547.000000	0.109890 
546.000000	0.110350 
545.000000	0.110920 
544.000000	0.111410 
543.000000	0.111800 
542.000000	0.112260 
541.000000	0.112680 
540.000000	0.112930 
539.000000	0.113240 
538.000000	0.113380 
537.000000	0.113570 
536.000000	0.113580 
535.000000	0.113680 
534.000000	0.113690 
533.000000	0.113630 
532.000000	0.113520 
531.000000	0.113280 
530.000000	0.113040 
529.000000	0.112660 
528.000000	0.112260 
527.000000	0.111810 
526.000000	0.111240 
525.000000	0.110630 
524.000000	0.110110 
523.000000	0.109360 
522.000000	0.108500 
521.000000	0.107700 
520.000000	0.106690 
519.000000	0.105770 
518.000000	0.104770 
517.000000	0.103660 
516.000000	0.102560 
515.000000	0.101500 
514.000000	0.100320 
513.000000	0.098970 
512.000000	0.097809 
511.000000	0.096460 
510.000000	0.095010 
509.000000	0.093580 
508.000000	0.092140 
507.000000	0.090640 
506.000000	0.089109 
505.000000	0.087630 
504.000000	0.086080 
503.000000	0.084340 
502.000000	0.082860 
501.000000	0.081160 
500.000000	0.079350 
499.000000	0.077650 
498.000000	0.075910 
497.000000	0.074280 
496.000000	0.072620 
495.000000	0.070790 
494.000000	0.069099 
493.000000	0.067430 
492.000000	0.065720 
491.000000	0.063980 
490.000000	0.062360 
489.000000	0.060730 
488.000000	0.059090 
487.000000	0.057480 
486.000000	0.056010 
485.000000	0.054290 
484.000000	0.052550 
483.000000	0.051190 
482.000000	0.049600 
481.000000	0.048090 
480.000000	0.046560 
479.000000	0.045170 
478.000000	0.043830 
477.000000	0.042480 
476.000000	0.041280 
475.000000	0.039900 
474.000000	0.038780 
473.000000	0.037410 
472.000000	0.036380 
471.000000	0.035330 
470.000000	0.034090 
469.000000	0.032980 
468.000000	0.032390 
467.000000	0.031290 
466.000000	0.030420 
465.000000	0.029680 
464.000000	0.029020 
463.000000	0.028080 
462.000000	0.027590 
461.000000	0.027010 
460.000000	0.026510 
459.000000	0.025970 
458.000000	0.025450 
457.000000	0.025220 
456.000000	0.024930 
455.000000	0.024770 
454.000000	0.024500 
453.000000	0.024210 
452.000000	0.024040 
451.000000	0.024330 
450.000000	0.024330 
449.000000	0.024400 
448.000000	0.024630 
447.000000	0.024840 
446.000000	0.025050 
445.000000	0.025360 
444.000000	0.025950 
443.000000	0.026450 
442.000000	0.027120 
441.000000	0.027780 
440.000000	0.028660 
439.000000	0.029450 
438.000000	0.030430 
437.000000	0.031240 
436.000000	0.032300 
435.000000	0.033460 
434.000000	0.034710 
433.000000	0.035890 
432.000000	0.037350 
431.000000	0.038770 
430.000000	0.039940 
429.000000	0.041380 
428.000000	0.043310 
427.000000	0.044830 
426.000000	0.046400 
425.000000	0.048320 
424.000000	0.050200 
423.000000	0.051950 
422.000000	0.053700 
421.000000	0.055430 
420.000000	0.057370 
419.000000	0.059300 
418.000000	0.061330 
417.000000	0.063470 
416.000000	0.065449 
415.000000	0.067650 
414.000000	0.069910 
413.000000	0.071840 
412.000000	0.073930 
411.000000	0.075820 
410.000000	0.077940 
409.000000	0.079930 
408.000000	0.081950 
407.000000	0.083940 
406.000000	0.085850 
405.000000	0.087570 
404.000000	0.089330 
403.000000	0.091090 
402.000000	0.092700 
401.000000	0.094120 
400.000000	0.095380 

