PE UV                   SPECTRUM    ASCII       PEDS        1.60        
  -1
23MS173.SP
24/10/17
15:35:24.00
24/10/17
15:36:31.00


400.000000
1









4444

SCAN
1
1


0.0
480.0
2.00
MANUAL



UV/VIS




































#HDR
-1
-1
#GR
NM
A
0.00000011920928955078
0.0
700.000000
1.000000
301
8
0.459130
0.055410
#DATA
700.000000	0.055410 
699.000000	0.057440 
698.000000	0.059520 
697.000000	0.061720 
696.000000	0.064030 
695.000000	0.066270 
694.000000	0.068660 
693.000000	0.071190 
692.000000	0.073789 
691.000000	0.076530 
690.000000	0.079269 
689.000000	0.082290 
688.000000	0.085350 
687.000000	0.088220 
686.000000	0.091250 
685.000000	0.094450 
684.000000	0.097540 
683.000000	0.101590 
682.000000	0.105310 
681.000000	0.109130 
680.000000	0.112960 
679.000000	0.116780 
678.000000	0.120750 
677.000000	0.124720 
676.000000	0.128760 
675.000000	0.132730 
674.000000	0.136950 
673.000000	0.141110 
672.000000	0.145390 
671.000000	0.149810 
670.000000	0.154160 
669.000000	0.158510 
668.000000	0.162810 
667.000000	0.167230 
666.000000	0.171650 
665.000000	0.176070 
664.000000	0.180790 
663.000000	0.185640 
662.000000	0.190470 
661.000000	0.195390 
660.000000	0.200360 
659.000000	0.205340 
658.000000	0.210250 
657.000000	0.215030 
656.000000	0.220020 
655.000000	0.225070 
654.000000	0.230080 
653.000000	0.235510 
652.000000	0.240720 
651.000000	0.246080 
650.000000	0.251290 
649.000000	0.256640 
648.000000	0.261640 
647.000000	0.266680 
646.000000	0.271460 
645.000000	0.276640 
644.000000	0.281630 
643.000000	0.286720 
642.000000	0.291520 
641.000000	0.296240 
640.000000	0.300520 
639.000000	0.304830 
638.000000	0.309070 
637.000000	0.313210 
636.000000	0.317190 
635.000000	0.321190 
634.000000	0.325150 
633.000000	0.329250 
632.000000	0.333130 
631.000000	0.336690 
630.000000	0.340210 
629.000000	0.343500 
628.000000	0.346500 
627.000000	0.349590 
626.000000	0.352500 
625.000000	0.355330 
624.000000	0.358090 
623.000000	0.360610 
622.000000	0.362880 
621.000000	0.365200 
620.000000	0.367180 
619.000000	0.368920 
618.000000	0.370590 
617.000000	0.372170 
616.000000	0.373510 
615.000000	0.374600 
614.000000	0.375720 
613.000000	0.376490 
612.000000	0.377040 
611.000000	0.377480 
610.000000	0.377750 
609.000000	0.378030 
608.000000	0.377950 
607.000000	0.377860 
606.000000	0.377680 
605.000000	0.377160 
604.000000	0.376650 
603.000000	0.376000 
602.000000	0.375160 
601.000000	0.374240 
600.000000	0.373190 
599.000000	0.372010 
598.000000	0.370770 
597.000000	0.369450 
596.000000	0.367880 
595.000000	0.366290 
594.000000	0.364580 
593.000000	0.362840 
592.000000	0.361020 
591.000000	0.359120 
590.000000	0.357250 
589.000000	0.355280 
588.000000	0.353200 
587.000000	0.351120 
586.000000	0.348970 
585.000000	0.346950 
584.000000	0.344910 
583.000000	0.342710 
582.000000	0.340700 
581.000000	0.338820 
580.000000	0.336780 
579.000000	0.334820 
578.000000	0.332960 
577.000000	0.330970 
576.000000	0.329040 
575.000000	0.327180 
574.000000	0.325440 
573.000000	0.323750 
572.000000	0.321930 
571.000000	0.320510 
570.000000	0.318910 
569.000000	0.317460 
568.000000	0.315980 
567.000000	0.314570 
566.000000	0.313350 
565.000000	0.311970 
564.000000	0.310660 
563.000000	0.309760 
562.000000	0.308600 
561.000000	0.307600 
560.000000	0.306690 
559.000000	0.305910 
558.000000	0.305160 
557.000000	0.304270 
556.000000	0.303570 
555.000000	0.302980 
554.000000	0.302280 
553.000000	0.301800 
552.000000	0.301550 
551.000000	0.301040 
550.000000	0.300760 
549.000000	0.300410 
548.000000	0.300170 
547.000000	0.299850 
546.000000	0.299660 
545.000000	0.299430 
544.000000	0.299110 
543.000000	0.299030 
542.000000	0.298770 
541.000000	0.298550 
540.000000	0.298360 
539.000000	0.298030 
538.000000	0.297740 
537.000000	0.297560 
536.000000	0.297150 
535.000000	0.296770 
534.000000	0.296440 
533.000000	0.296260 
532.000000	0.295590 
531.000000	0.295150 
530.000000	0.294470 
529.000000	0.293970 
528.000000	0.293230 
527.000000	0.292520 
526.000000	0.291780 
525.000000	0.290960 
524.000000	0.290140 
523.000000	0.289360 
522.000000	0.288370 
521.000000	0.287400 
520.000000	0.286430 
519.000000	0.285270 
518.000000	0.284310 
517.000000	0.283060 
516.000000	0.281960 
515.000000	0.280790 
514.000000	0.279420 
513.000000	0.278090 
512.000000	0.277030 
511.000000	0.275680 
510.000000	0.274510 
509.000000	0.273210 
508.000000	0.271910 
507.000000	0.270580 
506.000000	0.269340 
505.000000	0.267920 
504.000000	0.266870 
503.000000	0.265630 
502.000000	0.264340 
501.000000	0.263390 
500.000000	0.262230 
499.000000	0.261030 
498.000000	0.260090 
497.000000	0.259220 
496.000000	0.258390 
495.000000	0.257680 
494.000000	0.256860 
493.000000	0.256200 
492.000000	0.255720 
491.000000	0.255290 
490.000000	0.254720 
489.000000	0.254440 
488.000000	0.254230 
487.000000	0.254000 
486.000000	0.253970 
485.000000	0.253870 
484.000000	0.253850 
483.000000	0.254010 
482.000000	0.254120 
481.000000	0.254500 
480.000000	0.254920 
479.000000	0.255140 
478.000000	0.255510 
477.000000	0.255920 
476.000000	0.256410 
475.000000	0.256520 
474.000000	0.257050 
473.000000	0.257610 
472.000000	0.258190 
471.000000	0.258580 
470.000000	0.259080 
469.000000	0.259650 
468.000000	0.260170 
467.000000	0.260980 
466.000000	0.261260 
465.000000	0.261750 
464.000000	0.262400 
463.000000	0.262960 
462.000000	0.263430 
461.000000	0.263770 
460.000000	0.264250 
459.000000	0.264730 
458.000000	0.265010 
457.000000	0.265460 
456.000000	0.266070 
455.000000	0.266500 
454.000000	0.266760 
453.000000	0.267240 
452.000000	0.267890 
451.000000	0.268210 
450.000000	0.268820 
449.000000	0.269700 
448.000000	0.270590 
447.000000	0.271130 
446.000000	0.272190 
445.000000	0.273020 
444.000000	0.274430 
443.000000	0.275780 
442.000000	0.277470 
441.000000	0.279250 
440.000000	0.281120 
439.000000	0.283430 
438.000000	0.285670 
437.000000	0.287770 
436.000000	0.290650 
435.000000	0.293560 
434.000000	0.296740 
433.000000	0.300380 
432.000000	0.303380 
431.000000	0.307190 
430.000000	0.311090 
429.000000	0.315110 
428.000000	0.319370 
427.000000	0.323690 
426.000000	0.328200 
425.000000	0.333200 
424.000000	0.338530 
423.000000	0.344180 
422.000000	0.349010 
421.000000	0.354230 
420.000000	0.359720 
419.000000	0.365020 
418.000000	0.370380 
417.000000	0.376280 
416.000000	0.382050 
415.000000	0.387780 
414.000000	0.393480 
413.000000	0.399280 
412.000000	0.404950 
411.000000	0.410570 
410.000000	0.415670 
409.000000	0.420880 
408.000000	0.426220 
407.000000	0.431030 
406.000000	0.435980 
405.000000	0.440320 
404.000000	0.444510 
403.000000	0.448460 
402.000000	0.452090 
401.000000	0.455910 
400.000000	0.459130 

