PE UV                   SPECTRUM    ASCII       PEDS        1.60        
  -1
23MS219.SP
24/10/18
15:33:19.00
24/10/18
15:34:19.00


400.000000
1









4444

SCAN
1
1


0.0
480.0
2.00
MANUAL



UV/VIS




































#HDR
-1
-1
#GR
NM
A
0.00000011920928955078
0.0
700.000000
1.000000
301
8
0.664100
0.063909
#DATA
700.000000	0.063909 
699.000000	0.066510 
698.000000	0.068970 
697.000000	0.071690 
696.000000	0.074380 
695.000000	0.077260 
694.000000	0.080310 
693.000000	0.083260 
692.000000	0.086389 
691.000000	0.089710 
690.000000	0.093090 
689.000000	0.096670 
688.000000	0.100370 
687.000000	0.104150 
686.000000	0.107800 
685.000000	0.111590 
684.000000	0.115560 
683.000000	0.120040 
682.000000	0.124510 
681.000000	0.129210 
680.000000	0.133920 
679.000000	0.138790 
678.000000	0.143780 
677.000000	0.148830 
676.000000	0.153850 
675.000000	0.158910 
674.000000	0.164320 
673.000000	0.169710 
672.000000	0.175220 
671.000000	0.180980 
670.000000	0.186580 
669.000000	0.192290 
668.000000	0.198040 
667.000000	0.203810 
666.000000	0.209650 
665.000000	0.215560 
664.000000	0.221780 
663.000000	0.228110 
662.000000	0.234630 
661.000000	0.241230 
660.000000	0.247790 
659.000000	0.254550 
658.000000	0.261150 
657.000000	0.267660 
656.000000	0.274490 
655.000000	0.281240 
654.000000	0.288170 
653.000000	0.295110 
652.000000	0.302390 
651.000000	0.309660 
650.000000	0.316940 
649.000000	0.324200 
648.000000	0.331210 
647.000000	0.338140 
646.000000	0.345020 
645.000000	0.352130 
644.000000	0.359070 
643.000000	0.366180 
642.000000	0.373130 
641.000000	0.379700 
640.000000	0.386140 
639.000000	0.392390 
638.000000	0.398630 
637.000000	0.404740 
636.000000	0.410620 
635.000000	0.416770 
634.000000	0.422630 
633.000000	0.428620 
632.000000	0.434420 
631.000000	0.440160 
630.000000	0.445600 
629.000000	0.450840 
628.000000	0.455890 
627.000000	0.460790 
626.000000	0.465460 
625.000000	0.470330 
624.000000	0.474810 
623.000000	0.479370 
622.000000	0.483570 
621.000000	0.487820 
620.000000	0.491690 
619.000000	0.495070 
618.000000	0.498270 
617.000000	0.501740 
616.000000	0.504710 
615.000000	0.507740 
614.000000	0.510400 
613.000000	0.512599 
612.000000	0.514599 
611.000000	0.516560 
610.000000	0.518170 
609.000000	0.519910 
608.000000	0.521190 
607.000000	0.522220 
606.000000	0.523310 
605.000000	0.524170 
604.000000	0.524830 
603.000000	0.525360 
602.000000	0.525680 
601.000000	0.525970 
600.000000	0.526089 
599.000000	0.525980 
598.000000	0.525840 
597.000000	0.525620 
596.000000	0.525140 
595.000000	0.524780 
594.000000	0.524030 
593.000000	0.523350 
592.000000	0.522610 
591.000000	0.521740 
590.000000	0.521000 
589.000000	0.519970 
588.000000	0.519020 
587.000000	0.517890 
586.000000	0.516860 
585.000000	0.515840 
584.000000	0.514810 
583.000000	0.513760 
582.000000	0.512950 
581.000000	0.511750 
580.000000	0.511010 
579.000000	0.509990 
578.000000	0.508880 
577.000000	0.508300 
576.000000	0.507430 
575.000000	0.506600 
574.000000	0.505950 
573.000000	0.505310 
572.000000	0.504620 
571.000000	0.504109 
570.000000	0.503490 
569.000000	0.503320 
568.000000	0.503080 
567.000000	0.502730 
566.000000	0.502450 
565.000000	0.502230 
564.000000	0.502320 
563.000000	0.502190 
562.000000	0.502270 
561.000000	0.502330 
560.000000	0.502400 
559.000000	0.502560 
558.000000	0.503040 
557.000000	0.503250 
556.000000	0.503560 
555.000000	0.503780 
554.000000	0.504060 
553.000000	0.504350 
552.000000	0.504510 
551.000000	0.504880 
550.000000	0.505160 
549.000000	0.505300 
548.000000	0.505590 
547.000000	0.505610 
546.000000	0.505580 
545.000000	0.505680 
544.000000	0.505470 
543.000000	0.505300 
542.000000	0.505040 
541.000000	0.504590 
540.000000	0.504170 
539.000000	0.503520 
538.000000	0.502620 
537.000000	0.502120 
536.000000	0.501190 
535.000000	0.500010 
534.000000	0.498870 
533.000000	0.497600 
532.000000	0.495900 
531.000000	0.494270 
530.000000	0.492230 
529.000000	0.490460 
528.000000	0.488340 
527.000000	0.485890 
526.000000	0.483460 
525.000000	0.480730 
524.000000	0.478120 
523.000000	0.475190 
522.000000	0.472050 
521.000000	0.469160 
520.000000	0.465680 
519.000000	0.462390 
518.000000	0.459110 
517.000000	0.455440 
516.000000	0.451620 
515.000000	0.447890 
514.000000	0.443760 
513.000000	0.440120 
512.000000	0.436120 
511.000000	0.432020 
510.000000	0.427970 
509.000000	0.423630 
508.000000	0.419310 
507.000000	0.414990 
506.000000	0.410480 
505.000000	0.406310 
504.000000	0.402110 
503.000000	0.397870 
502.000000	0.393660 
501.000000	0.389200 
500.000000	0.385150 
499.000000	0.380780 
498.000000	0.376640 
497.000000	0.372450 
496.000000	0.368760 
495.000000	0.364920 
494.000000	0.361290 
493.000000	0.357740 
492.000000	0.354480 
491.000000	0.350900 
490.000000	0.347560 
489.000000	0.344750 
488.000000	0.341910 
487.000000	0.338930 
486.000000	0.336260 
485.000000	0.333440 
484.000000	0.331130 
483.000000	0.328730 
482.000000	0.326390 
481.000000	0.324370 
480.000000	0.322550 
479.000000	0.320490 
478.000000	0.318870 
477.000000	0.317160 
476.000000	0.315810 
475.000000	0.314370 
474.000000	0.313010 
473.000000	0.312110 
472.000000	0.310970 
471.000000	0.309750 
470.000000	0.309100 
469.000000	0.308200 
468.000000	0.307660 
467.000000	0.307120 
466.000000	0.306500 
465.000000	0.306230 
464.000000	0.306020 
463.000000	0.305790 
462.000000	0.305620 
461.000000	0.305710 
460.000000	0.305640 
459.000000	0.305750 
458.000000	0.306020 
457.000000	0.306440 
456.000000	0.307020 
455.000000	0.307490 
454.000000	0.308270 
453.000000	0.309260 
452.000000	0.310590 
451.000000	0.311580 
450.000000	0.312930 
449.000000	0.314390 
448.000000	0.316350 
447.000000	0.318330 
446.000000	0.320540 
445.000000	0.323000 
444.000000	0.325700 
443.000000	0.329100 
442.000000	0.332250 
441.000000	0.336370 
440.000000	0.340520 
439.000000	0.345220 
438.000000	0.349860 
437.000000	0.354530 
436.000000	0.360300 
435.000000	0.366110 
434.000000	0.371720 
433.000000	0.378800 
432.000000	0.385030 
431.000000	0.392140 
430.000000	0.399550 
429.000000	0.407790 
428.000000	0.415230 
427.000000	0.423490 
426.000000	0.431610 
425.000000	0.440880 
424.000000	0.450460 
423.000000	0.459740 
422.000000	0.469460 
421.000000	0.479900 
420.000000	0.489600 
419.000000	0.499570 
418.000000	0.509350 
417.000000	0.519350 
416.000000	0.529430 
415.000000	0.539409 
414.000000	0.549760 
413.000000	0.559540 
412.000000	0.569430 
411.000000	0.579400 
410.000000	0.588880 
409.000000	0.598180 
408.000000	0.606909 
407.000000	0.615560 
406.000000	0.623850 
405.000000	0.631820 
404.000000	0.639020 
403.000000	0.645910 
402.000000	0.652260 
401.000000	0.658550 
400.000000	0.664100 

