PE UV                   SPECTRUM    ASCII       PEDS        1.60        
  -1
23MS274.SP
24/10/18
15:40:19.00
24/10/18
15:42:37.00


400.000000
1









4444

SCAN
1
1


0.0
480.0
2.00
MANUAL



UV/VIS




































#HDR
-1
-1
#GR
NM
A
0.00000011920928955078
0.0
700.000000
1.000000
301
8
0.284660
0.012720
#DATA
700.000000	0.012720 
699.000000	0.013010 
698.000000	0.013280 
697.000000	0.013710 
696.000000	0.014050 
695.000000	0.014470 
694.000000	0.014900 
693.000000	0.015330 
692.000000	0.015680 
691.000000	0.016100 
690.000000	0.016520 
689.000000	0.017080 
688.000000	0.017610 
687.000000	0.018190 
686.000000	0.018620 
685.000000	0.019270 
684.000000	0.019920 
683.000000	0.020560 
682.000000	0.021190 
681.000000	0.021980 
680.000000	0.022680 
679.000000	0.023520 
678.000000	0.024290 
677.000000	0.025020 
676.000000	0.025940 
675.000000	0.026720 
674.000000	0.027760 
673.000000	0.028610 
672.000000	0.029530 
671.000000	0.030560 
670.000000	0.031650 
669.000000	0.032620 
668.000000	0.033680 
667.000000	0.034810 
666.000000	0.035860 
665.000000	0.037080 
664.000000	0.038220 
663.000000	0.039550 
662.000000	0.040910 
661.000000	0.042180 
660.000000	0.043600 
659.000000	0.045100 
658.000000	0.046490 
657.000000	0.047980 
656.000000	0.049600 
655.000000	0.051140 
654.000000	0.052700 
653.000000	0.054190 
652.000000	0.055950 
651.000000	0.057890 
650.000000	0.059630 
649.000000	0.061380 
648.000000	0.063250 
647.000000	0.065160 
646.000000	0.067010 
645.000000	0.068970 
644.000000	0.071010 
643.000000	0.072880 
642.000000	0.074960 
641.000000	0.076980 
640.000000	0.078990 
639.000000	0.080910 
638.000000	0.082900 
637.000000	0.085000 
636.000000	0.086940 
635.000000	0.089050 
634.000000	0.090970 
633.000000	0.093130 
632.000000	0.095320 
631.000000	0.097510 
630.000000	0.099669 
629.000000	0.101830 
628.000000	0.104020 
627.000000	0.106160 
626.000000	0.108280 
625.000000	0.110450 
624.000000	0.112690 
623.000000	0.114860 
622.000000	0.117070 
621.000000	0.119460 
620.000000	0.121720 
619.000000	0.123840 
618.000000	0.125850 
617.000000	0.128190 
616.000000	0.130270 
615.000000	0.132610 
614.000000	0.134780 
613.000000	0.136840 
612.000000	0.138830 
611.000000	0.140920 
610.000000	0.142860 
609.000000	0.145000 
608.000000	0.146970 
607.000000	0.148910 
606.000000	0.150840 
605.000000	0.152900 
604.000000	0.154780 
603.000000	0.156790 
602.000000	0.158870 
601.000000	0.160780 
600.000000	0.162790 
599.000000	0.164750 
598.000000	0.166770 
597.000000	0.168730 
596.000000	0.170640 
595.000000	0.172570 
594.000000	0.174640 
593.000000	0.176730 
592.000000	0.178750 
591.000000	0.180740 
590.000000	0.182940 
589.000000	0.184860 
588.000000	0.186920 
587.000000	0.189010 
586.000000	0.191300 
585.000000	0.193340 
584.000000	0.195540 
583.000000	0.197620 
582.000000	0.199800 
581.000000	0.201760 
580.000000	0.203970 
579.000000	0.206070 
578.000000	0.208110 
577.000000	0.210340 
576.000000	0.212620 
575.000000	0.214710 
574.000000	0.217090 
573.000000	0.219430 
572.000000	0.221700 
571.000000	0.223970 
570.000000	0.226190 
569.000000	0.228560 
568.000000	0.230890 
567.000000	0.233090 
566.000000	0.235480 
565.000000	0.237810 
564.000000	0.240330 
563.000000	0.242600 
562.000000	0.244990 
561.000000	0.247300 
560.000000	0.249590 
559.000000	0.251850 
558.000000	0.254070 
557.000000	0.256320 
556.000000	0.258810 
555.000000	0.260840 
554.000000	0.262840 
553.000000	0.264800 
552.000000	0.266840 
551.000000	0.268680 
550.000000	0.270560 
549.000000	0.272020 
548.000000	0.273930 
547.000000	0.275300 
546.000000	0.276730 
545.000000	0.278080 
544.000000	0.279260 
543.000000	0.280390 
542.000000	0.281390 
541.000000	0.282150 
540.000000	0.282970 
539.000000	0.283440 
538.000000	0.283930 
537.000000	0.284350 
536.000000	0.284540 
535.000000	0.284550 
534.000000	0.284660 
533.000000	0.284280 
532.000000	0.283950 
531.000000	0.283290 
530.000000	0.282550 
529.000000	0.281640 
528.000000	0.280610 
527.000000	0.279300 
526.000000	0.277850 
525.000000	0.276270 
524.000000	0.274610 
523.000000	0.272720 
522.000000	0.270560 
521.000000	0.268560 
520.000000	0.266140 
519.000000	0.263780 
518.000000	0.261320 
517.000000	0.258490 
516.000000	0.255610 
515.000000	0.252500 
514.000000	0.249400 
513.000000	0.246270 
512.000000	0.242860 
511.000000	0.239530 
510.000000	0.235990 
509.000000	0.232280 
508.000000	0.228410 
507.000000	0.224660 
506.000000	0.220520 
505.000000	0.216440 
504.000000	0.212290 
503.000000	0.208100 
502.000000	0.203950 
501.000000	0.199660 
500.000000	0.195300 
499.000000	0.190830 
498.000000	0.186350 
497.000000	0.181720 
496.000000	0.177250 
495.000000	0.172900 
494.000000	0.168340 
493.000000	0.164090 
492.000000	0.159910 
491.000000	0.155390 
490.000000	0.151070 
489.000000	0.147020 
488.000000	0.142980 
487.000000	0.138880 
486.000000	0.134590 
485.000000	0.130520 
484.000000	0.126590 
483.000000	0.122810 
482.000000	0.118930 
481.000000	0.115070 
480.000000	0.111460 
479.000000	0.107560 
478.000000	0.104230 
477.000000	0.100770 
476.000000	0.097540 
475.000000	0.094220 
474.000000	0.091189 
473.000000	0.088220 
472.000000	0.085120 
471.000000	0.082220 
470.000000	0.079710 
469.000000	0.077010 
468.000000	0.074630 
467.000000	0.072500 
466.000000	0.070030 
465.000000	0.068080 
464.000000	0.066129 
463.000000	0.064310 
462.000000	0.062630 
461.000000	0.061400 
460.000000	0.059850 
459.000000	0.058720 
458.000000	0.057750 
457.000000	0.056660 
456.000000	0.056050 
455.000000	0.055450 
454.000000	0.054960 
453.000000	0.054560 
452.000000	0.054800 
451.000000	0.054640 
450.000000	0.054810 
449.000000	0.055000 
448.000000	0.055480 
447.000000	0.056250 
446.000000	0.057180 
445.000000	0.058290 
444.000000	0.059140 
443.000000	0.060860 
442.000000	0.062340 
441.000000	0.064380 
440.000000	0.066260 
439.000000	0.068490 
438.000000	0.071130 
437.000000	0.073490 
436.000000	0.076230 
435.000000	0.079140 
434.000000	0.082200 
433.000000	0.085560 
432.000000	0.088820 
431.000000	0.092570 
430.000000	0.096310 
429.000000	0.100090 
428.000000	0.104280 
427.000000	0.108680 
426.000000	0.112420 
425.000000	0.116950 
424.000000	0.121470 
423.000000	0.126300 
422.000000	0.131260 
421.000000	0.136760 
420.000000	0.141810 
419.000000	0.146750 
418.000000	0.151730 
417.000000	0.157000 
416.000000	0.161980 
415.000000	0.167170 
414.000000	0.172570 
413.000000	0.177770 
412.000000	0.183010 
411.000000	0.188400 
410.000000	0.193580 
409.000000	0.198700 
408.000000	0.203700 
407.000000	0.208560 
406.000000	0.213220 
405.000000	0.217910 
404.000000	0.221920 
403.000000	0.226010 
402.000000	0.229980 
401.000000	0.233750 
400.000000	0.237200 

