PE UV                   SPECTRUM    ASCII       PEDS        1.60        
  -1
23MS246.SP
24/10/18
15:29:48.00
24/10/18
15:31:12.00


400.000000
1









4444

SCAN
1
1


0.0
480.0
2.00
MANUAL



UV/VIS




































#HDR
-1
-1
#GR
NM
A
0.00000011920928955078
0.0
700.000000
1.000000
301
8
0.546350
0.020150
#DATA
700.000000	0.020150 
699.000000	0.020850 
698.000000	0.021320 
697.000000	0.022090 
696.000000	0.022730 
695.000000	0.023450 
694.000000	0.024310 
693.000000	0.025080 
692.000000	0.025930 
691.000000	0.026820 
690.000000	0.027570 
689.000000	0.028680 
688.000000	0.029650 
687.000000	0.030660 
686.000000	0.031630 
685.000000	0.032820 
684.000000	0.034070 
683.000000	0.035260 
682.000000	0.036550 
681.000000	0.037930 
680.000000	0.039220 
679.000000	0.040740 
678.000000	0.042180 
677.000000	0.043810 
676.000000	0.045390 
675.000000	0.047010 
674.000000	0.048820 
673.000000	0.050690 
672.000000	0.052480 
671.000000	0.054400 
670.000000	0.056240 
669.000000	0.058230 
668.000000	0.060260 
667.000000	0.062370 
666.000000	0.064500 
665.000000	0.066800 
664.000000	0.069139 
663.000000	0.071620 
662.000000	0.074060 
661.000000	0.076560 
660.000000	0.079120 
659.000000	0.081830 
658.000000	0.084590 
657.000000	0.087440 
656.000000	0.090460 
655.000000	0.093420 
654.000000	0.096550 
653.000000	0.099510 
652.000000	0.102850 
651.000000	0.106150 
650.000000	0.109510 
649.000000	0.113070 
648.000000	0.116510 
647.000000	0.120200 
646.000000	0.123830 
645.000000	0.127600 
644.000000	0.131300 
643.000000	0.135140 
642.000000	0.138910 
641.000000	0.142700 
640.000000	0.146440 
639.000000	0.150240 
638.000000	0.154050 
637.000000	0.158040 
636.000000	0.161940 
635.000000	0.165990 
634.000000	0.169800 
633.000000	0.173900 
632.000000	0.178010 
631.000000	0.181950 
630.000000	0.186110 
629.000000	0.190400 
628.000000	0.194630 
627.000000	0.198870 
626.000000	0.202960 
625.000000	0.207170 
624.000000	0.211260 
623.000000	0.215470 
622.000000	0.219630 
621.000000	0.223960 
620.000000	0.228280 
619.000000	0.232530 
618.000000	0.236690 
617.000000	0.241050 
616.000000	0.245210 
615.000000	0.249440 
614.000000	0.253610 
613.000000	0.257530 
612.000000	0.261450 
611.000000	0.265280 
610.000000	0.269240 
609.000000	0.273150 
608.000000	0.277070 
607.000000	0.280840 
606.000000	0.284720 
605.000000	0.288530 
604.000000	0.292200 
603.000000	0.295860 
602.000000	0.299770 
601.000000	0.303510 
600.000000	0.307410 
599.000000	0.311210 
598.000000	0.315040 
597.000000	0.318940 
596.000000	0.322530 
595.000000	0.326330 
594.000000	0.330150 
593.000000	0.333980 
592.000000	0.337850 
591.000000	0.341750 
590.000000	0.345990 
589.000000	0.349900 
588.000000	0.353980 
587.000000	0.358090 
586.000000	0.362180 
585.000000	0.366280 
584.000000	0.370440 
583.000000	0.374610 
582.000000	0.378880 
581.000000	0.382810 
580.000000	0.387140 
579.000000	0.391420 
578.000000	0.395590 
577.000000	0.399940 
576.000000	0.404420 
575.000000	0.408640 
574.000000	0.413120 
573.000000	0.417630 
572.000000	0.422210 
571.000000	0.426960 
570.000000	0.431450 
569.000000	0.436110 
568.000000	0.440670 
567.000000	0.445250 
566.000000	0.449810 
565.000000	0.454390 
564.000000	0.459140 
563.000000	0.463770 
562.000000	0.468510 
561.000000	0.473250 
560.000000	0.477950 
559.000000	0.482400 
558.000000	0.487720 
557.000000	0.492090 
556.000000	0.496530 
555.000000	0.500730 
554.000000	0.504590 
553.000000	0.508560 
552.000000	0.512240 
551.000000	0.515920 
550.000000	0.519370 
549.000000	0.522560 
548.000000	0.525790 
547.000000	0.528680 
546.000000	0.531200 
545.000000	0.533740 
544.000000	0.536060 
543.000000	0.538240 
542.000000	0.540230 
541.000000	0.541880 
540.000000	0.543220 
539.000000	0.544300 
538.000000	0.545090 
537.000000	0.545849 
536.000000	0.546170 
535.000000	0.546350 
534.000000	0.546070 
533.000000	0.545430 
532.000000	0.544550 
531.000000	0.543400 
530.000000	0.541740 
529.000000	0.540140 
528.000000	0.537980 
527.000000	0.535510 
526.000000	0.532740 
525.000000	0.529740 
524.000000	0.526190 
523.000000	0.522540 
522.000000	0.518540 
521.000000	0.514200 
520.000000	0.509610 
519.000000	0.504960 
518.000000	0.500290 
517.000000	0.495000 
516.000000	0.489410 
515.000000	0.483420 
514.000000	0.477190 
513.000000	0.470950 
512.000000	0.464190 
511.000000	0.457660 
510.000000	0.450800 
509.000000	0.443680 
508.000000	0.436380 
507.000000	0.428760 
506.000000	0.421080 
505.000000	0.413170 
504.000000	0.405010 
503.000000	0.396640 
502.000000	0.388470 
501.000000	0.380060 
500.000000	0.371820 
499.000000	0.363300 
498.000000	0.354800 
497.000000	0.346210 
496.000000	0.337700 
495.000000	0.328880 
494.000000	0.320140 
493.000000	0.311640 
492.000000	0.303360 
491.000000	0.294960 
490.000000	0.286880 
489.000000	0.278740 
488.000000	0.270940 
487.000000	0.263060 
486.000000	0.254980 
485.000000	0.246920 
484.000000	0.239010 
483.000000	0.231590 
482.000000	0.224000 
481.000000	0.216790 
480.000000	0.209870 
479.000000	0.203140 
478.000000	0.196410 
477.000000	0.189660 
476.000000	0.183070 
475.000000	0.176810 
474.000000	0.170390 
473.000000	0.164650 
472.000000	0.158990 
471.000000	0.153490 
470.000000	0.148680 
469.000000	0.143540 
468.000000	0.138960 
467.000000	0.134440 
466.000000	0.129860 
465.000000	0.125940 
464.000000	0.122250 
463.000000	0.118670 
462.000000	0.115520 
461.000000	0.112820 
460.000000	0.110120 
459.000000	0.107690 
458.000000	0.105730 
457.000000	0.103840 
456.000000	0.102240 
455.000000	0.101140 
454.000000	0.099950 
453.000000	0.099529 
452.000000	0.099360 
451.000000	0.099070 
450.000000	0.099390 
449.000000	0.099720 
448.000000	0.100600 
447.000000	0.101860 
446.000000	0.103640 
445.000000	0.105450 
444.000000	0.107630 
443.000000	0.110360 
442.000000	0.113230 
441.000000	0.116870 
440.000000	0.120580 
439.000000	0.124840 
438.000000	0.129490 
437.000000	0.134320 
436.000000	0.139610 
435.000000	0.145390 
434.000000	0.150930 
433.000000	0.157320 
432.000000	0.163420 
431.000000	0.170050 
430.000000	0.177290 
429.000000	0.184620 
428.000000	0.192430 
427.000000	0.200820 
426.000000	0.209030 
425.000000	0.217680 
424.000000	0.226110 
423.000000	0.235110 
422.000000	0.244080 
421.000000	0.254270 
420.000000	0.263800 
419.000000	0.273390 
418.000000	0.283320 
417.000000	0.293380 
416.000000	0.303350 
415.000000	0.313160 
414.000000	0.323080 
413.000000	0.332680 
412.000000	0.342530 
411.000000	0.352410 
410.000000	0.362470 
409.000000	0.372660 
408.000000	0.382430 
407.000000	0.391730 
406.000000	0.400650 
405.000000	0.409220 
404.000000	0.416980 
403.000000	0.424590 
402.000000	0.431920 
401.000000	0.439190 
400.000000	0.446040 

