PE UV                   SPECTRUM    ASCII       PEDS        1.60        
  -1
23MS222.SP
24/09/24
15:34:16.00
24/09/24
15:35:25.00


400.000000
1









4444

SCAN
1
1


0.0
480.0
2.00
MANUAL



UV/VIS




































#HDR
-1
-1
#GR
NM
A
0.00000011920928955078
0.0
700.000000
1.000000
301
8
0.372840
0.058300
#DATA
700.000000	0.058300 
699.000000	0.060790 
698.000000	0.063350 
697.000000	0.065930 
696.000000	0.068510 
695.000000	0.071380 
694.000000	0.074340 
693.000000	0.077229 
692.000000	0.080460 
691.000000	0.083580 
690.000000	0.086890 
689.000000	0.090280 
688.000000	0.093560 
687.000000	0.097010 
686.000000	0.100680 
685.000000	0.104480 
684.000000	0.108310 
683.000000	0.113010 
682.000000	0.117210 
681.000000	0.121420 
680.000000	0.125620 
679.000000	0.130050 
678.000000	0.134500 
677.000000	0.139310 
676.000000	0.144030 
675.000000	0.148710 
674.000000	0.153730 
673.000000	0.158510 
672.000000	0.163380 
671.000000	0.168320 
670.000000	0.173130 
669.000000	0.178130 
668.000000	0.183060 
667.000000	0.188070 
666.000000	0.193330 
665.000000	0.198570 
664.000000	0.203890 
663.000000	0.209310 
662.000000	0.214510 
661.000000	0.219660 
660.000000	0.225000 
659.000000	0.230400 
658.000000	0.235860 
657.000000	0.241290 
656.000000	0.246710 
655.000000	0.252180 
654.000000	0.257600 
653.000000	0.262970 
652.000000	0.268270 
651.000000	0.273530 
650.000000	0.278740 
649.000000	0.284080 
648.000000	0.289130 
647.000000	0.294210 
646.000000	0.299270 
645.000000	0.304150 
644.000000	0.308850 
643.000000	0.313610 
642.000000	0.317980 
641.000000	0.322280 
640.000000	0.326430 
639.000000	0.330180 
638.000000	0.333910 
637.000000	0.337620 
636.000000	0.341120 
635.000000	0.344550 
634.000000	0.347670 
633.000000	0.350740 
632.000000	0.353530 
631.000000	0.356220 
630.000000	0.358770 
629.000000	0.361070 
628.000000	0.363230 
627.000000	0.365150 
626.000000	0.366910 
625.000000	0.368450 
624.000000	0.369740 
623.000000	0.370840 
622.000000	0.371800 
621.000000	0.372250 
620.000000	0.372680 
619.000000	0.372840 
618.000000	0.372820 
617.000000	0.372560 
616.000000	0.372050 
615.000000	0.371210 
614.000000	0.370360 
613.000000	0.369040 
612.000000	0.367750 
611.000000	0.366120 
610.000000	0.364280 
609.000000	0.362360 
608.000000	0.360180 
607.000000	0.357740 
606.000000	0.355210 
605.000000	0.352390 
604.000000	0.349580 
603.000000	0.346580 
602.000000	0.343260 
601.000000	0.339770 
600.000000	0.336130 
599.000000	0.332160 
598.000000	0.328290 
597.000000	0.324220 
596.000000	0.319860 
595.000000	0.315620 
594.000000	0.311210 
593.000000	0.306520 
592.000000	0.301740 
591.000000	0.296810 
590.000000	0.291740 
589.000000	0.286520 
588.000000	0.281310 
587.000000	0.276040 
586.000000	0.270710 
585.000000	0.265360 
584.000000	0.260170 
583.000000	0.254780 
582.000000	0.249590 
581.000000	0.244350 
580.000000	0.239140 
579.000000	0.233880 
578.000000	0.228520 
577.000000	0.223310 
576.000000	0.218210 
575.000000	0.213040 
574.000000	0.208000 
573.000000	0.202940 
572.000000	0.197850 
571.000000	0.192750 
570.000000	0.187760 
569.000000	0.182900 
568.000000	0.178180 
567.000000	0.173490 
566.000000	0.168870 
565.000000	0.164450 
564.000000	0.160030 
563.000000	0.155600 
562.000000	0.151170 
561.000000	0.146940 
560.000000	0.142670 
559.000000	0.138680 
558.000000	0.134680 
557.000000	0.131040 
556.000000	0.127390 
555.000000	0.123870 
554.000000	0.120480 
553.000000	0.117500 
552.000000	0.114400 
551.000000	0.111590 
550.000000	0.108770 
549.000000	0.106290 
548.000000	0.103720 
547.000000	0.101410 
546.000000	0.099220 
545.000000	0.097239 
544.000000	0.095290 
543.000000	0.093310 
542.000000	0.091650 
541.000000	0.090110 
540.000000	0.088510 
539.000000	0.087220 
538.000000	0.086040 
537.000000	0.084970 
536.000000	0.084050 
535.000000	0.083290 
534.000000	0.082540 
533.000000	0.081820 
532.000000	0.081280 
531.000000	0.080940 
530.000000	0.080560 
529.000000	0.080480 
528.000000	0.080390 
527.000000	0.080500 
526.000000	0.080720 
525.000000	0.081030 
524.000000	0.081360 
523.000000	0.081879 
522.000000	0.082550 
521.000000	0.083220 
520.000000	0.084029 
519.000000	0.084980 
518.000000	0.085840 
517.000000	0.087120 
516.000000	0.088330 
515.000000	0.089630 
514.000000	0.091259 
513.000000	0.092770 
512.000000	0.094630 
511.000000	0.096449 
510.000000	0.098260 
509.000000	0.100380 
508.000000	0.102480 
507.000000	0.104790 
506.000000	0.107060 
505.000000	0.109960 
504.000000	0.112690 
503.000000	0.115520 
502.000000	0.118620 
501.000000	0.121680 
500.000000	0.124840 
499.000000	0.128060 
498.000000	0.131630 
497.000000	0.135100 
496.000000	0.138840 
495.000000	0.142640 
494.000000	0.146860 
493.000000	0.150890 
492.000000	0.154930 
491.000000	0.158860 
490.000000	0.163140 
489.000000	0.167310 
488.000000	0.171520 
487.000000	0.175940 
486.000000	0.180230 
485.000000	0.184720 
484.000000	0.189500 
483.000000	0.194230 
482.000000	0.198950 
481.000000	0.203610 
480.000000	0.208030 
479.000000	0.212650 
478.000000	0.217410 
477.000000	0.221810 
476.000000	0.226560 
475.000000	0.231020 
474.000000	0.235310 
473.000000	0.239650 
472.000000	0.243930 
471.000000	0.247840 
470.000000	0.251660 
469.000000	0.255660 
468.000000	0.259290 
467.000000	0.262670 
466.000000	0.266070 
465.000000	0.269640 
464.000000	0.272610 
463.000000	0.275680 
462.000000	0.278040 
461.000000	0.280540 
460.000000	0.282860 
459.000000	0.284870 
458.000000	0.286890 
457.000000	0.288640 
456.000000	0.290720 
455.000000	0.292220 
454.000000	0.293690 
453.000000	0.294870 
452.000000	0.296000 
451.000000	0.297110 
450.000000	0.297910 
449.000000	0.298980 
448.000000	0.299430 
447.000000	0.300240 
446.000000	0.300920 
445.000000	0.301500 
444.000000	0.302480 
443.000000	0.302900 
442.000000	0.303670 
441.000000	0.304240 
440.000000	0.304930 
439.000000	0.305850 
438.000000	0.306690 
437.000000	0.307530 
436.000000	0.308830 
435.000000	0.309950 
434.000000	0.310860 
433.000000	0.312090 
432.000000	0.313460 
431.000000	0.314990 
430.000000	0.316370 
429.000000	0.318260 
428.000000	0.319960 
427.000000	0.322160 
426.000000	0.324080 
425.000000	0.326060 
424.000000	0.327960 
423.000000	0.330150 
422.000000	0.332490 
421.000000	0.335270 
420.000000	0.337450 
419.000000	0.339690 
418.000000	0.341810 
417.000000	0.344140 
416.000000	0.346280 
415.000000	0.348400 
414.000000	0.350380 
413.000000	0.352370 
412.000000	0.354120 
411.000000	0.355850 
410.000000	0.357510 
409.000000	0.359210 
408.000000	0.360730 
407.000000	0.361890 
406.000000	0.363110 
405.000000	0.363990 
404.000000	0.364760 
403.000000	0.365640 
402.000000	0.366260 
401.000000	0.366830 
400.000000	0.367290 

