PE UV                   SPECTRUM    ASCII       PEDS        1.60        
  -1
23MS188.SP
24/10/17
15:18:13.00
24/10/17
15:19:33.00


400.000000
1









4444

SCAN
1
1


0.0
480.0
2.00
MANUAL



UV/VIS




































#HDR
-1
-1
#GR
NM
A
0.00000011920928955078
0.0
700.000000
1.000000
301
8
0.768510
0.031790
#DATA
700.000000	0.031790 
699.000000	0.032600 
698.000000	0.033570 
697.000000	0.034380 
696.000000	0.035210 
695.000000	0.036290 
694.000000	0.037280 
693.000000	0.038250 
692.000000	0.039590 
691.000000	0.040740 
690.000000	0.041850 
689.000000	0.043210 
688.000000	0.044570 
687.000000	0.046070 
686.000000	0.047650 
685.000000	0.049150 
684.000000	0.050750 
683.000000	0.052790 
682.000000	0.054550 
681.000000	0.056430 
680.000000	0.058470 
679.000000	0.060400 
678.000000	0.062560 
677.000000	0.064870 
676.000000	0.067140 
675.000000	0.069410 
674.000000	0.071840 
673.000000	0.074230 
672.000000	0.076770 
671.000000	0.079540 
670.000000	0.082250 
669.000000	0.084990 
668.000000	0.087859 
667.000000	0.090820 
666.000000	0.094020 
665.000000	0.097010 
664.000000	0.100400 
663.000000	0.103750 
662.000000	0.107290 
661.000000	0.110750 
660.000000	0.114340 
659.000000	0.118120 
658.000000	0.122190 
657.000000	0.126090 
656.000000	0.130320 
655.000000	0.134480 
654.000000	0.138760 
653.000000	0.143210 
652.000000	0.147730 
651.000000	0.152380 
650.000000	0.157200 
649.000000	0.162190 
648.000000	0.167120 
647.000000	0.172200 
646.000000	0.177260 
645.000000	0.182470 
644.000000	0.187750 
643.000000	0.193000 
642.000000	0.198430 
641.000000	0.203780 
640.000000	0.209070 
639.000000	0.214320 
638.000000	0.219670 
637.000000	0.225200 
636.000000	0.230610 
635.000000	0.236150 
634.000000	0.241560 
633.000000	0.247240 
632.000000	0.252940 
631.000000	0.258580 
630.000000	0.264390 
629.000000	0.270300 
628.000000	0.276060 
627.000000	0.281900 
626.000000	0.287730 
625.000000	0.293430 
624.000000	0.299260 
623.000000	0.305180 
622.000000	0.310940 
621.000000	0.316930 
620.000000	0.322830 
619.000000	0.328780 
618.000000	0.334800 
617.000000	0.340630 
616.000000	0.346420 
615.000000	0.352280 
614.000000	0.358140 
613.000000	0.363680 
612.000000	0.369110 
611.000000	0.374510 
610.000000	0.379970 
609.000000	0.385340 
608.000000	0.390820 
607.000000	0.396110 
606.000000	0.401450 
605.000000	0.406680 
604.000000	0.411900 
603.000000	0.417010 
602.000000	0.422300 
601.000000	0.427770 
600.000000	0.433070 
599.000000	0.438400 
598.000000	0.443660 
597.000000	0.449000 
596.000000	0.454240 
595.000000	0.459520 
594.000000	0.464870 
593.000000	0.470350 
592.000000	0.475890 
591.000000	0.481450 
590.000000	0.487110 
589.000000	0.492930 
588.000000	0.498470 
587.000000	0.504109 
586.000000	0.509910 
585.000000	0.515870 
584.000000	0.521610 
583.000000	0.527490 
582.000000	0.533210 
581.000000	0.538880 
580.000000	0.544780 
579.000000	0.550700 
578.000000	0.556700 
577.000000	0.562720 
576.000000	0.568829 
575.000000	0.574930 
574.000000	0.581110 
573.000000	0.587440 
572.000000	0.593620 
571.000000	0.600150 
570.000000	0.606450 
569.000000	0.612970 
568.000000	0.619430 
567.000000	0.625780 
566.000000	0.632250 
565.000000	0.638640 
564.000000	0.645200 
563.000000	0.651810 
562.000000	0.658420 
561.000000	0.665170 
560.000000	0.671530 
559.000000	0.677920 
558.000000	0.684850 
557.000000	0.691070 
556.000000	0.697210 
555.000000	0.703170 
554.000000	0.708730 
553.000000	0.714170 
552.000000	0.719510 
551.000000	0.724859 
550.000000	0.729490 
549.000000	0.734129 
548.000000	0.738750 
547.000000	0.742710 
546.000000	0.746340 
545.000000	0.750240 
544.000000	0.753290 
543.000000	0.756380 
542.000000	0.759340 
541.000000	0.761830 
540.000000	0.763989 
539.000000	0.765530 
538.000000	0.766480 
537.000000	0.767850 
536.000000	0.768180 
535.000000	0.768510 
534.000000	0.768170 
533.000000	0.767750 
532.000000	0.766360 
531.000000	0.764690 
530.000000	0.762390 
529.000000	0.760440 
528.000000	0.757430 
527.000000	0.754260 
526.000000	0.750510 
525.000000	0.746300 
524.000000	0.741600 
523.000000	0.736349 
522.000000	0.730880 
521.000000	0.725460 
520.000000	0.718940 
519.000000	0.712450 
518.000000	0.705760 
517.000000	0.698450 
516.000000	0.690980 
515.000000	0.682940 
514.000000	0.673970 
513.000000	0.665310 
512.000000	0.656260 
511.000000	0.646930 
510.000000	0.637379 
509.000000	0.627930 
508.000000	0.617830 
507.000000	0.607300 
506.000000	0.596530 
505.000000	0.585720 
504.000000	0.574300 
503.000000	0.562999 
502.000000	0.551420 
501.000000	0.539980 
500.000000	0.528170 
499.000000	0.516410 
498.000000	0.504340 
497.000000	0.492940 
496.000000	0.480930 
495.000000	0.468680 
494.000000	0.456480 
493.000000	0.444690 
492.000000	0.432990 
491.000000	0.421950 
490.000000	0.409790 
489.000000	0.398710 
488.000000	0.387690 
487.000000	0.376690 
486.000000	0.365700 
485.000000	0.354490 
484.000000	0.343560 
483.000000	0.332860 
482.000000	0.322410 
481.000000	0.312680 
480.000000	0.302920 
479.000000	0.293300 
478.000000	0.283960 
477.000000	0.274630 
476.000000	0.265300 
475.000000	0.256170 
474.000000	0.247500 
473.000000	0.239330 
472.000000	0.231370 
471.000000	0.223740 
470.000000	0.216510 
469.000000	0.209580 
468.000000	0.202630 
467.000000	0.196370 
466.000000	0.189970 
465.000000	0.184160 
464.000000	0.178730 
463.000000	0.174080 
462.000000	0.169450 
461.000000	0.165520 
460.000000	0.161900 
459.000000	0.158550 
458.000000	0.155310 
457.000000	0.152610 
456.000000	0.150600 
455.000000	0.148760 
454.000000	0.147280 
453.000000	0.146280 
452.000000	0.146060 
451.000000	0.145560 
450.000000	0.145920 
449.000000	0.146820 
448.000000	0.147790 
447.000000	0.149500 
446.000000	0.151640 
445.000000	0.154410 
444.000000	0.157800 
443.000000	0.161400 
442.000000	0.165780 
441.000000	0.170170 
440.000000	0.175350 
439.000000	0.181510 
438.000000	0.187960 
437.000000	0.194690 
436.000000	0.202110 
435.000000	0.210070 
434.000000	0.218110 
433.000000	0.227200 
432.000000	0.236060 
431.000000	0.245310 
430.000000	0.255000 
429.000000	0.265490 
428.000000	0.276590 
427.000000	0.288030 
426.000000	0.299460 
425.000000	0.311640 
424.000000	0.324020 
423.000000	0.336840 
422.000000	0.348880 
421.000000	0.361550 
420.000000	0.375050 
419.000000	0.388780 
418.000000	0.402590 
417.000000	0.416880 
416.000000	0.431050 
415.000000	0.445050 
414.000000	0.458900 
413.000000	0.472720 
412.000000	0.486740 
411.000000	0.500780 
410.000000	0.514740 
409.000000	0.528990 
408.000000	0.542870 
407.000000	0.556090 
406.000000	0.568850 
405.000000	0.580680 
404.000000	0.591990 
403.000000	0.602800 
402.000000	0.613240 
401.000000	0.623650 
400.000000	0.633260 

