PE UV                   SPECTRUM    ASCII       PEDS        1.60        
  -1
23MS075.SP
24/10/22
15:02:47.00
24/10/22
15:04:23.00


400.000000
1









4444

SCAN
1
1


0.0
480.0
2.00
MANUAL



UV/VIS




































#HDR
-1
-1
#GR
NM
A
0.00000011920928955078
0.0
700.000000
1.000000
301
8
0.398470
0.014690
#DATA
700.000000	0.014690 
699.000000	0.015190 
698.000000	0.015580 
697.000000	0.016080 
696.000000	0.016600 
695.000000	0.017080 
694.000000	0.017700 
693.000000	0.018310 
692.000000	0.018940 
691.000000	0.019390 
690.000000	0.020070 
689.000000	0.020820 
688.000000	0.021590 
687.000000	0.022270 
686.000000	0.023070 
685.000000	0.023950 
684.000000	0.024650 
683.000000	0.025820 
682.000000	0.026780 
681.000000	0.027800 
680.000000	0.028780 
679.000000	0.030010 
678.000000	0.031090 
677.000000	0.032250 
676.000000	0.033360 
675.000000	0.034600 
674.000000	0.035740 
673.000000	0.037100 
672.000000	0.038370 
671.000000	0.039780 
670.000000	0.041200 
669.000000	0.042660 
668.000000	0.044270 
667.000000	0.045800 
666.000000	0.047310 
665.000000	0.049070 
664.000000	0.050690 
663.000000	0.052540 
662.000000	0.054190 
661.000000	0.056110 
660.000000	0.058070 
659.000000	0.060110 
658.000000	0.062130 
657.000000	0.064280 
656.000000	0.066360 
655.000000	0.068490 
654.000000	0.070740 
653.000000	0.072960 
652.000000	0.075420 
651.000000	0.077900 
650.000000	0.080440 
649.000000	0.083070 
648.000000	0.085610 
647.000000	0.088190 
646.000000	0.090829 
645.000000	0.093510 
644.000000	0.096260 
643.000000	0.099140 
642.000000	0.101900 
641.000000	0.104690 
640.000000	0.107520 
639.000000	0.110270 
638.000000	0.113090 
637.000000	0.115860 
636.000000	0.118780 
635.000000	0.121530 
634.000000	0.124370 
633.000000	0.127360 
632.000000	0.130480 
631.000000	0.133440 
630.000000	0.136460 
629.000000	0.139580 
628.000000	0.142560 
627.000000	0.145550 
626.000000	0.148440 
625.000000	0.151530 
624.000000	0.154570 
623.000000	0.157690 
622.000000	0.160790 
621.000000	0.163870 
620.000000	0.166990 
619.000000	0.170010 
618.000000	0.173110 
617.000000	0.176040 
616.000000	0.179000 
615.000000	0.182060 
614.000000	0.185140 
613.000000	0.188010 
612.000000	0.190880 
611.000000	0.193550 
610.000000	0.196660 
609.000000	0.199460 
608.000000	0.202200 
607.000000	0.204930 
606.000000	0.207630 
605.000000	0.210380 
604.000000	0.213100 
603.000000	0.215860 
602.000000	0.218660 
601.000000	0.221320 
600.000000	0.224140 
599.000000	0.226780 
598.000000	0.229510 
597.000000	0.232040 
596.000000	0.234810 
595.000000	0.237560 
594.000000	0.240340 
593.000000	0.243230 
592.000000	0.246060 
591.000000	0.248900 
590.000000	0.251730 
589.000000	0.254570 
588.000000	0.257350 
587.000000	0.260380 
586.000000	0.263300 
585.000000	0.266280 
584.000000	0.269350 
583.000000	0.272310 
582.000000	0.275380 
581.000000	0.278240 
580.000000	0.281340 
579.000000	0.284310 
578.000000	0.287300 
577.000000	0.290420 
576.000000	0.293560 
575.000000	0.296860 
574.000000	0.300040 
573.000000	0.303410 
572.000000	0.306690 
571.000000	0.310070 
570.000000	0.313180 
569.000000	0.316460 
568.000000	0.319810 
567.000000	0.323160 
566.000000	0.326570 
565.000000	0.330030 
564.000000	0.333570 
563.000000	0.336980 
562.000000	0.340220 
561.000000	0.343780 
560.000000	0.347070 
559.000000	0.350300 
558.000000	0.353910 
557.000000	0.357440 
556.000000	0.360710 
555.000000	0.363790 
554.000000	0.366800 
553.000000	0.369810 
552.000000	0.372550 
551.000000	0.375220 
550.000000	0.377720 
549.000000	0.380130 
548.000000	0.382460 
547.000000	0.384820 
546.000000	0.386670 
545.000000	0.388640 
544.000000	0.390530 
543.000000	0.392070 
542.000000	0.393560 
541.000000	0.394790 
540.000000	0.395910 
539.000000	0.396820 
538.000000	0.397460 
537.000000	0.398040 
536.000000	0.398300 
535.000000	0.398470 
534.000000	0.398360 
533.000000	0.398010 
532.000000	0.397550 
531.000000	0.396740 
530.000000	0.395640 
529.000000	0.394380 
528.000000	0.392920 
527.000000	0.391240 
526.000000	0.389320 
525.000000	0.387040 
524.000000	0.384570 
523.000000	0.381950 
522.000000	0.379070 
521.000000	0.376200 
520.000000	0.372850 
519.000000	0.369410 
518.000000	0.365830 
517.000000	0.362060 
516.000000	0.357970 
515.000000	0.353690 
514.000000	0.349300 
513.000000	0.344810 
512.000000	0.340030 
511.000000	0.335570 
510.000000	0.330450 
509.000000	0.325280 
508.000000	0.320190 
507.000000	0.314480 
506.000000	0.308770 
505.000000	0.303150 
504.000000	0.297310 
503.000000	0.291520 
502.000000	0.285890 
501.000000	0.279940 
500.000000	0.273600 
499.000000	0.267460 
498.000000	0.261090 
497.000000	0.254840 
496.000000	0.248460 
495.000000	0.242060 
494.000000	0.236050 
493.000000	0.229990 
492.000000	0.223820 
491.000000	0.217930 
490.000000	0.211770 
489.000000	0.206160 
488.000000	0.200080 
487.000000	0.194330 
486.000000	0.188690 
485.000000	0.182840 
484.000000	0.177100 
483.000000	0.171740 
482.000000	0.166260 
481.000000	0.161100 
480.000000	0.155970 
479.000000	0.150980 
478.000000	0.145860 
477.000000	0.141070 
476.000000	0.136460 
475.000000	0.131780 
474.000000	0.127480 
473.000000	0.123200 
472.000000	0.119040 
471.000000	0.115160 
470.000000	0.111200 
469.000000	0.107390 
468.000000	0.104120 
467.000000	0.100740 
466.000000	0.097500 
465.000000	0.094670 
464.000000	0.092090 
463.000000	0.089570 
462.000000	0.087330 
461.000000	0.085370 
460.000000	0.083440 
459.000000	0.081650 
458.000000	0.079920 
457.000000	0.078770 
456.000000	0.077670 
455.000000	0.076930 
454.000000	0.075990 
453.000000	0.075610 
452.000000	0.075320 
451.000000	0.075509 
450.000000	0.075470 
449.000000	0.075960 
448.000000	0.076590 
447.000000	0.077610 
446.000000	0.078680 
445.000000	0.079820 
444.000000	0.081660 
443.000000	0.083570 
442.000000	0.085970 
441.000000	0.088340 
440.000000	0.091360 
439.000000	0.094520 
438.000000	0.097850 
437.000000	0.101290 
436.000000	0.105150 
435.000000	0.109440 
434.000000	0.113550 
433.000000	0.118020 
432.000000	0.122950 
431.000000	0.127820 
430.000000	0.133100 
429.000000	0.138630 
428.000000	0.144730 
427.000000	0.150600 
426.000000	0.156560 
425.000000	0.162660 
424.000000	0.169170 
423.000000	0.176080 
422.000000	0.182500 
421.000000	0.188550 
420.000000	0.195890 
419.000000	0.203020 
418.000000	0.210140 
417.000000	0.217700 
416.000000	0.224860 
415.000000	0.232290 
414.000000	0.239850 
413.000000	0.247320 
412.000000	0.254900 
411.000000	0.262400 
410.000000	0.269880 
409.000000	0.277190 
408.000000	0.284420 
407.000000	0.291150 
406.000000	0.297700 
405.000000	0.304010 
404.000000	0.310070 
403.000000	0.315850 
402.000000	0.321720 
401.000000	0.327210 
400.000000	0.332250 

