PE UV                   SPECTRUM    ASCII       PEDS        1.60        
  -1
23MS079.SP
24/10/22
14:46:02.00
24/10/22
14:47:08.00


400.000000
1









4444

SCAN
1
1


0.0
480.0
2.00
MANUAL



UV/VIS




































#HDR
-1
-1
#GR
NM
A
0.00000011920928955078
0.0
700.000000
1.000000
301
8
0.278970
0.015080
#DATA
700.000000	0.015080 
699.000000	0.015430 
698.000000	0.015730 
697.000000	0.016120 
696.000000	0.016560 
695.000000	0.016980 
694.000000	0.017340 
693.000000	0.017820 
692.000000	0.018310 
691.000000	0.018700 
690.000000	0.019160 
689.000000	0.019670 
688.000000	0.020230 
687.000000	0.020790 
686.000000	0.021290 
685.000000	0.021940 
684.000000	0.022490 
683.000000	0.023170 
682.000000	0.023820 
681.000000	0.024500 
680.000000	0.025200 
679.000000	0.025880 
678.000000	0.026760 
677.000000	0.027640 
676.000000	0.028350 
675.000000	0.029250 
674.000000	0.030110 
673.000000	0.031110 
672.000000	0.032060 
671.000000	0.033040 
670.000000	0.034010 
669.000000	0.035070 
668.000000	0.036070 
667.000000	0.037210 
666.000000	0.038310 
665.000000	0.039490 
664.000000	0.040730 
663.000000	0.041990 
662.000000	0.043140 
661.000000	0.044340 
660.000000	0.045740 
659.000000	0.047080 
658.000000	0.048480 
657.000000	0.049950 
656.000000	0.051410 
655.000000	0.052940 
654.000000	0.054570 
653.000000	0.056080 
652.000000	0.057660 
651.000000	0.059270 
650.000000	0.060930 
649.000000	0.062770 
648.000000	0.064360 
647.000000	0.066280 
646.000000	0.068099 
645.000000	0.070060 
644.000000	0.071870 
643.000000	0.073820 
642.000000	0.075680 
641.000000	0.077490 
640.000000	0.079360 
639.000000	0.081309 
638.000000	0.083210 
637.000000	0.085150 
636.000000	0.087150 
635.000000	0.089060 
634.000000	0.091000 
633.000000	0.093010 
632.000000	0.095019 
631.000000	0.096970 
630.000000	0.099120 
629.000000	0.101140 
628.000000	0.103330 
627.000000	0.105450 
626.000000	0.107490 
625.000000	0.109570 
624.000000	0.111470 
623.000000	0.113590 
622.000000	0.115630 
621.000000	0.117730 
620.000000	0.119750 
619.000000	0.121900 
618.000000	0.124110 
617.000000	0.126070 
616.000000	0.128180 
615.000000	0.130200 
614.000000	0.132100 
613.000000	0.134000 
612.000000	0.135930 
611.000000	0.137770 
610.000000	0.139760 
609.000000	0.141670 
608.000000	0.143650 
607.000000	0.145540 
606.000000	0.147460 
605.000000	0.149310 
604.000000	0.151140 
603.000000	0.152940 
602.000000	0.154880 
601.000000	0.156720 
600.000000	0.158740 
599.000000	0.160700 
598.000000	0.162610 
597.000000	0.164510 
596.000000	0.166520 
595.000000	0.168400 
594.000000	0.170210 
593.000000	0.172160 
592.000000	0.174120 
591.000000	0.176150 
590.000000	0.178140 
589.000000	0.180140 
588.000000	0.182160 
587.000000	0.184190 
586.000000	0.186150 
585.000000	0.188090 
584.000000	0.190130 
583.000000	0.192190 
582.000000	0.194230 
581.000000	0.196160 
580.000000	0.198380 
579.000000	0.200460 
578.000000	0.202590 
577.000000	0.204770 
576.000000	0.206800 
575.000000	0.209060 
574.000000	0.211090 
573.000000	0.213430 
572.000000	0.215650 
571.000000	0.217970 
570.000000	0.220290 
569.000000	0.222540 
568.000000	0.224900 
567.000000	0.227040 
566.000000	0.229380 
565.000000	0.231640 
564.000000	0.234000 
563.000000	0.236330 
562.000000	0.238640 
561.000000	0.241070 
560.000000	0.243330 
559.000000	0.245650 
558.000000	0.247930 
557.000000	0.250320 
556.000000	0.252460 
555.000000	0.254430 
554.000000	0.256520 
553.000000	0.258470 
552.000000	0.260410 
551.000000	0.262260 
550.000000	0.264130 
549.000000	0.265840 
548.000000	0.267310 
547.000000	0.268910 
546.000000	0.270230 
545.000000	0.271600 
544.000000	0.272910 
543.000000	0.274050 
542.000000	0.275220 
541.000000	0.276000 
540.000000	0.276790 
539.000000	0.277450 
538.000000	0.278020 
537.000000	0.278300 
536.000000	0.278650 
535.000000	0.278830 
534.000000	0.278970 
533.000000	0.278750 
532.000000	0.278340 
531.000000	0.277860 
530.000000	0.277320 
529.000000	0.276470 
528.000000	0.275710 
527.000000	0.274550 
526.000000	0.273420 
525.000000	0.271960 
524.000000	0.270530 
523.000000	0.268840 
522.000000	0.266740 
521.000000	0.264910 
520.000000	0.262770 
519.000000	0.260480 
518.000000	0.258150 
517.000000	0.255850 
516.000000	0.253160 
515.000000	0.250470 
514.000000	0.247580 
513.000000	0.244520 
512.000000	0.241490 
511.000000	0.238300 
510.000000	0.235090 
509.000000	0.231760 
508.000000	0.228490 
507.000000	0.224950 
506.000000	0.221290 
505.000000	0.217440 
504.000000	0.213560 
503.000000	0.209660 
502.000000	0.205870 
501.000000	0.201840 
500.000000	0.197690 
499.000000	0.193710 
498.000000	0.189870 
497.000000	0.185810 
496.000000	0.181770 
495.000000	0.177280 
494.000000	0.173310 
493.000000	0.169230 
492.000000	0.165190 
491.000000	0.161150 
490.000000	0.157390 
489.000000	0.153580 
488.000000	0.149790 
487.000000	0.146120 
486.000000	0.142310 
485.000000	0.138400 
484.000000	0.134570 
483.000000	0.131080 
482.000000	0.127420 
481.000000	0.124150 
480.000000	0.120700 
479.000000	0.117450 
478.000000	0.114410 
477.000000	0.111170 
476.000000	0.108180 
475.000000	0.105060 
474.000000	0.102100 
473.000000	0.099260 
472.000000	0.096570 
471.000000	0.094220 
470.000000	0.091560 
469.000000	0.089219 
468.000000	0.087190 
467.000000	0.084740 
466.000000	0.082660 
465.000000	0.081000 
464.000000	0.079290 
463.000000	0.077520 
462.000000	0.076200 
461.000000	0.074820 
460.000000	0.073660 
459.000000	0.072600 
458.000000	0.071700 
457.000000	0.070790 
456.000000	0.070190 
455.000000	0.069810 
454.000000	0.069440 
453.000000	0.069160 
452.000000	0.069120 
451.000000	0.069099 
450.000000	0.069370 
449.000000	0.069870 
448.000000	0.070400 
447.000000	0.071020 
446.000000	0.072070 
445.000000	0.072880 
444.000000	0.074310 
443.000000	0.075630 
442.000000	0.077320 
441.000000	0.079010 
440.000000	0.081019 
439.000000	0.083180 
438.000000	0.085560 
437.000000	0.087870 
436.000000	0.090950 
435.000000	0.093670 
434.000000	0.096650 
433.000000	0.099779 
432.000000	0.103180 
431.000000	0.106420 
430.000000	0.109820 
429.000000	0.113610 
428.000000	0.117850 
427.000000	0.122270 
426.000000	0.126280 
425.000000	0.131120 
424.000000	0.135250 
423.000000	0.139800 
422.000000	0.143920 
421.000000	0.148040 
420.000000	0.152940 
419.000000	0.157900 
418.000000	0.162930 
417.000000	0.168140 
416.000000	0.173300 
415.000000	0.178590 
414.000000	0.183790 
413.000000	0.188630 
412.000000	0.193770 
411.000000	0.198880 
410.000000	0.204150 
409.000000	0.209290 
408.000000	0.214400 
407.000000	0.219390 
406.000000	0.223810 
405.000000	0.228280 
404.000000	0.232500 
403.000000	0.236750 
402.000000	0.240700 
401.000000	0.244390 
400.000000	0.248210 

