PE UV                   SPECTRUM    ASCII       PEDS        1.60        
  -1
23MS250.SP
24/10/18
15:50:30.00
24/10/18
15:51:34.00


400.000000
1









4444

SCAN
1
1


0.0
480.0
2.00
MANUAL



UV/VIS




































#HDR
-1
-1
#GR
NM
A
0.00000011920928955078
0.0
700.000000
1.000000
301
8
0.292920
0.012100
#DATA
700.000000	0.012100 
699.000000	0.012470 
698.000000	0.012670 
697.000000	0.013130 
696.000000	0.013550 
695.000000	0.013910 
694.000000	0.014320 
693.000000	0.014650 
692.000000	0.015060 
691.000000	0.015600 
690.000000	0.016070 
689.000000	0.016610 
688.000000	0.017130 
687.000000	0.017790 
686.000000	0.018220 
685.000000	0.018860 
684.000000	0.019430 
683.000000	0.019930 
682.000000	0.020700 
681.000000	0.021460 
680.000000	0.022210 
679.000000	0.023050 
678.000000	0.023850 
677.000000	0.024760 
676.000000	0.025560 
675.000000	0.026370 
674.000000	0.027460 
673.000000	0.028320 
672.000000	0.029330 
671.000000	0.030380 
670.000000	0.031390 
669.000000	0.032570 
668.000000	0.033580 
667.000000	0.034720 
666.000000	0.035820 
665.000000	0.037010 
664.000000	0.038180 
663.000000	0.039540 
662.000000	0.040910 
661.000000	0.042220 
660.000000	0.043640 
659.000000	0.045040 
658.000000	0.046430 
657.000000	0.048030 
656.000000	0.049650 
655.000000	0.051170 
654.000000	0.052820 
653.000000	0.054410 
652.000000	0.056280 
651.000000	0.058110 
650.000000	0.059890 
649.000000	0.061770 
648.000000	0.063519 
647.000000	0.065500 
646.000000	0.067300 
645.000000	0.069330 
644.000000	0.071280 
643.000000	0.073320 
642.000000	0.075329 
641.000000	0.077369 
640.000000	0.079390 
639.000000	0.081400 
638.000000	0.083419 
637.000000	0.085490 
636.000000	0.087460 
635.000000	0.089600 
634.000000	0.091670 
633.000000	0.093900 
632.000000	0.096089 
631.000000	0.098350 
630.000000	0.100500 
629.000000	0.102700 
628.000000	0.104880 
627.000000	0.107070 
626.000000	0.109200 
625.000000	0.111420 
624.000000	0.113660 
623.000000	0.116020 
622.000000	0.118320 
621.000000	0.120640 
620.000000	0.123020 
619.000000	0.125080 
618.000000	0.127240 
617.000000	0.129460 
616.000000	0.131740 
615.000000	0.134040 
614.000000	0.136390 
613.000000	0.138410 
612.000000	0.140500 
611.000000	0.142500 
610.000000	0.144580 
609.000000	0.146710 
608.000000	0.148680 
607.000000	0.150690 
606.000000	0.152660 
605.000000	0.154650 
604.000000	0.156750 
603.000000	0.158780 
602.000000	0.160850 
601.000000	0.162840 
600.000000	0.164860 
599.000000	0.166960 
598.000000	0.168980 
597.000000	0.171030 
596.000000	0.172950 
595.000000	0.175060 
594.000000	0.177180 
593.000000	0.179350 
592.000000	0.181360 
591.000000	0.183470 
590.000000	0.185630 
589.000000	0.187670 
588.000000	0.189730 
587.000000	0.191930 
586.000000	0.194290 
585.000000	0.196550 
584.000000	0.198830 
583.000000	0.201050 
582.000000	0.203240 
581.000000	0.205340 
580.000000	0.207590 
579.000000	0.209810 
578.000000	0.212040 
577.000000	0.214490 
576.000000	0.216870 
575.000000	0.219120 
574.000000	0.221600 
573.000000	0.223900 
572.000000	0.226330 
571.000000	0.228730 
570.000000	0.231030 
569.000000	0.233560 
568.000000	0.236070 
567.000000	0.238390 
566.000000	0.240980 
565.000000	0.243570 
564.000000	0.246110 
563.000000	0.248610 
562.000000	0.251130 
561.000000	0.253500 
560.000000	0.255830 
559.000000	0.258390 
558.000000	0.260680 
557.000000	0.263100 
556.000000	0.265660 
555.000000	0.267920 
554.000000	0.269970 
553.000000	0.272060 
552.000000	0.274030 
551.000000	0.276110 
550.000000	0.277860 
549.000000	0.279690 
548.000000	0.281570 
547.000000	0.283090 
546.000000	0.284500 
545.000000	0.285950 
544.000000	0.287020 
543.000000	0.288270 
542.000000	0.289400 
541.000000	0.290270 
540.000000	0.291040 
539.000000	0.291630 
538.000000	0.292110 
537.000000	0.292620 
536.000000	0.292760 
535.000000	0.292920 
534.000000	0.292880 
533.000000	0.292570 
532.000000	0.292040 
531.000000	0.291590 
530.000000	0.290770 
529.000000	0.289930 
528.000000	0.288890 
527.000000	0.287490 
526.000000	0.285970 
525.000000	0.284460 
524.000000	0.282600 
523.000000	0.280750 
522.000000	0.278580 
521.000000	0.276470 
520.000000	0.274050 
519.000000	0.271590 
518.000000	0.269040 
517.000000	0.266100 
516.000000	0.263200 
515.000000	0.260080 
514.000000	0.256850 
513.000000	0.253620 
512.000000	0.250230 
511.000000	0.246710 
510.000000	0.242960 
509.000000	0.239220 
508.000000	0.235240 
507.000000	0.231260 
506.000000	0.227150 
505.000000	0.223030 
504.000000	0.218740 
503.000000	0.214580 
502.000000	0.210170 
501.000000	0.205720 
500.000000	0.201160 
499.000000	0.196520 
498.000000	0.191940 
497.000000	0.187160 
496.000000	0.182600 
495.000000	0.178110 
494.000000	0.173520 
493.000000	0.169140 
492.000000	0.164770 
491.000000	0.160040 
490.000000	0.155750 
489.000000	0.151540 
488.000000	0.147370 
487.000000	0.143070 
486.000000	0.138790 
485.000000	0.134510 
484.000000	0.130380 
483.000000	0.126400 
482.000000	0.122460 
481.000000	0.118410 
480.000000	0.114590 
479.000000	0.110860 
478.000000	0.107330 
477.000000	0.103680 
476.000000	0.100250 
475.000000	0.096970 
474.000000	0.093820 
473.000000	0.090649 
472.000000	0.087440 
471.000000	0.084470 
470.000000	0.081720 
469.000000	0.078880 
468.000000	0.076390 
467.000000	0.074219 
466.000000	0.071770 
465.000000	0.069800 
464.000000	0.067730 
463.000000	0.065790 
462.000000	0.064100 
461.000000	0.062630 
460.000000	0.061180 
459.000000	0.059790 
458.000000	0.058940 
457.000000	0.057980 
456.000000	0.057230 
455.000000	0.056490 
454.000000	0.056070 
453.000000	0.055620 
452.000000	0.055690 
451.000000	0.055510 
450.000000	0.055760 
449.000000	0.055890 
448.000000	0.056550 
447.000000	0.057260 
446.000000	0.057880 
445.000000	0.059160 
444.000000	0.060120 
443.000000	0.061730 
442.000000	0.063110 
441.000000	0.065199 
440.000000	0.067200 
439.000000	0.069529 
438.000000	0.072020 
437.000000	0.074550 
436.000000	0.077290 
435.000000	0.080470 
434.000000	0.083450 
433.000000	0.087179 
432.000000	0.090219 
431.000000	0.093900 
430.000000	0.098030 
429.000000	0.101880 
428.000000	0.105910 
427.000000	0.110250 
426.000000	0.114510 
425.000000	0.118980 
424.000000	0.123910 
423.000000	0.128660 
422.000000	0.133860 
421.000000	0.138410 
420.000000	0.143580 
419.000000	0.148700 
418.000000	0.153810 
417.000000	0.159190 
416.000000	0.164440 
415.000000	0.169890 
414.000000	0.175380 
413.000000	0.180830 
412.000000	0.186280 
411.000000	0.191820 
410.000000	0.197090 
409.000000	0.202340 
408.000000	0.207580 
407.000000	0.212630 
406.000000	0.217510 
405.000000	0.222230 
404.000000	0.226660 
403.000000	0.230670 
402.000000	0.234860 
401.000000	0.238820 
400.000000	0.242540 

