PE UV                   SPECTRUM    ASCII       PEDS        1.60        
  -1
23MS008.SP
24/10/21
15:39:05.00
24/10/21
15:40:08.00


400.000000
1









4444

SCAN
1
1


0.0
480.0
2.00
MANUAL



UV/VIS




































#HDR
-1
-1
#GR
NM
A
0.00000011920928955078
0.0
700.000000
1.000000
301
8
0.315750
0.016510
#DATA
700.000000	0.016510 
699.000000	0.016890 
698.000000	0.017200 
697.000000	0.017650 
696.000000	0.018010 
695.000000	0.018530 
694.000000	0.018970 
693.000000	0.019360 
692.000000	0.019880 
691.000000	0.020350 
690.000000	0.020930 
689.000000	0.021420 
688.000000	0.022030 
687.000000	0.022690 
686.000000	0.023280 
685.000000	0.023940 
684.000000	0.024660 
683.000000	0.025310 
682.000000	0.026090 
681.000000	0.026740 
680.000000	0.027670 
679.000000	0.028270 
678.000000	0.029200 
677.000000	0.030270 
676.000000	0.030980 
675.000000	0.032040 
674.000000	0.032990 
673.000000	0.034070 
672.000000	0.035090 
671.000000	0.036160 
670.000000	0.037360 
669.000000	0.038440 
668.000000	0.039630 
667.000000	0.040850 
666.000000	0.042210 
665.000000	0.043480 
664.000000	0.044790 
663.000000	0.046170 
662.000000	0.047590 
661.000000	0.048970 
660.000000	0.050530 
659.000000	0.052130 
658.000000	0.053850 
657.000000	0.055460 
656.000000	0.057170 
655.000000	0.058780 
654.000000	0.060560 
653.000000	0.062310 
652.000000	0.064070 
651.000000	0.066190 
650.000000	0.068029 
649.000000	0.070080 
648.000000	0.072220 
647.000000	0.074200 
646.000000	0.076270 
645.000000	0.078360 
644.000000	0.080589 
643.000000	0.082750 
642.000000	0.084950 
641.000000	0.087060 
640.000000	0.089340 
639.000000	0.091450 
638.000000	0.093560 
637.000000	0.095880 
636.000000	0.098110 
635.000000	0.100360 
634.000000	0.102670 
633.000000	0.104830 
632.000000	0.107260 
631.000000	0.109570 
630.000000	0.111880 
629.000000	0.114150 
628.000000	0.116660 
627.000000	0.118960 
626.000000	0.121190 
625.000000	0.123680 
624.000000	0.126090 
623.000000	0.128370 
622.000000	0.130820 
621.000000	0.133200 
620.000000	0.135680 
619.000000	0.138120 
618.000000	0.140550 
617.000000	0.142940 
616.000000	0.145370 
615.000000	0.147700 
614.000000	0.150100 
613.000000	0.152470 
612.000000	0.154730 
611.000000	0.156890 
610.000000	0.159110 
609.000000	0.161460 
608.000000	0.163700 
607.000000	0.165880 
606.000000	0.168120 
605.000000	0.170350 
604.000000	0.172520 
603.000000	0.174660 
602.000000	0.177040 
601.000000	0.179290 
600.000000	0.181560 
599.000000	0.183690 
598.000000	0.186050 
597.000000	0.188220 
596.000000	0.190410 
595.000000	0.192700 
594.000000	0.194850 
593.000000	0.197190 
592.000000	0.199430 
591.000000	0.201810 
590.000000	0.204110 
589.000000	0.206410 
588.000000	0.208610 
587.000000	0.210850 
586.000000	0.213070 
585.000000	0.215460 
584.000000	0.217550 
583.000000	0.219740 
582.000000	0.221830 
581.000000	0.224130 
580.000000	0.226270 
579.000000	0.228540 
578.000000	0.230870 
577.000000	0.233270 
576.000000	0.235740 
575.000000	0.238300 
574.000000	0.240710 
573.000000	0.243310 
572.000000	0.245920 
571.000000	0.248530 
570.000000	0.251130 
569.000000	0.253630 
568.000000	0.256310 
567.000000	0.258960 
566.000000	0.261520 
565.000000	0.264200 
564.000000	0.266750 
563.000000	0.269460 
562.000000	0.272060 
561.000000	0.274840 
560.000000	0.277460 
559.000000	0.280050 
558.000000	0.281610 
557.000000	0.284160 
556.000000	0.286580 
555.000000	0.288880 
554.000000	0.291220 
553.000000	0.293510 
552.000000	0.295640 
551.000000	0.297530 
550.000000	0.299720 
549.000000	0.301560 
548.000000	0.303390 
547.000000	0.305120 
546.000000	0.306520 
545.000000	0.308020 
544.000000	0.309520 
543.000000	0.310800 
542.000000	0.311900 
541.000000	0.312880 
540.000000	0.313690 
539.000000	0.314400 
538.000000	0.314950 
537.000000	0.315420 
536.000000	0.315750 
535.000000	0.315710 
534.000000	0.315710 
533.000000	0.315450 
532.000000	0.315030 
531.000000	0.314440 
530.000000	0.313700 
529.000000	0.312760 
528.000000	0.311710 
527.000000	0.310330 
526.000000	0.308770 
525.000000	0.307090 
524.000000	0.305090 
523.000000	0.303110 
522.000000	0.300950 
521.000000	0.298630 
520.000000	0.296190 
519.000000	0.293600 
518.000000	0.290920 
517.000000	0.287900 
516.000000	0.285000 
515.000000	0.281750 
514.000000	0.278340 
513.000000	0.274700 
512.000000	0.271320 
511.000000	0.267640 
510.000000	0.263890 
509.000000	0.259970 
508.000000	0.256000 
507.000000	0.251860 
506.000000	0.247490 
505.000000	0.243270 
504.000000	0.238570 
503.000000	0.233990 
502.000000	0.229510 
501.000000	0.225080 
500.000000	0.220340 
499.000000	0.215570 
498.000000	0.210730 
497.000000	0.205740 
496.000000	0.200990 
495.000000	0.196080 
494.000000	0.191230 
493.000000	0.186570 
492.000000	0.181690 
491.000000	0.177200 
490.000000	0.172450 
489.000000	0.167920 
488.000000	0.163580 
487.000000	0.159110 
486.000000	0.154470 
485.000000	0.150090 
484.000000	0.145610 
483.000000	0.141420 
482.000000	0.137350 
481.000000	0.133390 
480.000000	0.129560 
479.000000	0.125580 
478.000000	0.121770 
477.000000	0.118010 
476.000000	0.114190 
475.000000	0.110900 
474.000000	0.107440 
473.000000	0.104010 
472.000000	0.100980 
471.000000	0.097860 
470.000000	0.094940 
469.000000	0.092230 
468.000000	0.089710 
467.000000	0.087160 
466.000000	0.084470 
465.000000	0.082270 
464.000000	0.080210 
463.000000	0.078170 
462.000000	0.076340 
461.000000	0.075040 
460.000000	0.073630 
459.000000	0.072440 
458.000000	0.071220 
457.000000	0.070220 
456.000000	0.069500 
455.000000	0.068910 
454.000000	0.068250 
453.000000	0.067760 
452.000000	0.067480 
451.000000	0.067669 
450.000000	0.067810 
449.000000	0.068060 
448.000000	0.068760 
447.000000	0.069480 
446.000000	0.070490 
445.000000	0.071510 
444.000000	0.073010 
443.000000	0.074590 
442.000000	0.076390 
441.000000	0.078290 
440.000000	0.080210 
439.000000	0.082849 
438.000000	0.085350 
437.000000	0.088359 
436.000000	0.091300 
435.000000	0.094740 
434.000000	0.098070 
433.000000	0.101470 
432.000000	0.105290 
431.000000	0.108910 
430.000000	0.113190 
429.000000	0.117590 
428.000000	0.122130 
427.000000	0.126910 
426.000000	0.131600 
425.000000	0.136350 
424.000000	0.141270 
423.000000	0.146430 
422.000000	0.151690 
421.000000	0.157360 
420.000000	0.162970 
419.000000	0.168540 
418.000000	0.174210 
417.000000	0.180110 
416.000000	0.185850 
415.000000	0.191740 
414.000000	0.197440 
413.000000	0.203220 
412.000000	0.209050 
411.000000	0.214790 
410.000000	0.220570 
409.000000	0.226360 
408.000000	0.232110 
407.000000	0.237380 
406.000000	0.242540 
405.000000	0.247360 
404.000000	0.252100 
403.000000	0.256760 
402.000000	0.261100 
401.000000	0.265060 
400.000000	0.269320 

