PE UV                   SPECTRUM    ASCII       PEDS        1.60        
  -1
23MS029.SP
24/10/21
15:29:52.00
24/10/21
15:31:00.00


400.000000
1









4444

SCAN
1
1


0.0
480.0
2.00
MANUAL



UV/VIS




































#HDR
-1
-1
#GR
NM
A
0.00000011920928955078
0.0
700.000000
1.000000
301
8
0.384140
0.056540
#DATA
700.000000	0.056540 
699.000000	0.056910 
698.000000	0.057320 
697.000000	0.057810 
696.000000	0.058200 
695.000000	0.058810 
694.000000	0.059240 
693.000000	0.059800 
692.000000	0.060220 
691.000000	0.060790 
690.000000	0.061410 
689.000000	0.062020 
688.000000	0.062510 
687.000000	0.063210 
686.000000	0.063890 
685.000000	0.064560 
684.000000	0.065360 
683.000000	0.066190 
682.000000	0.067100 
681.000000	0.067930 
680.000000	0.068940 
679.000000	0.069770 
678.000000	0.070660 
677.000000	0.071670 
676.000000	0.072560 
675.000000	0.073649 
674.000000	0.074710 
673.000000	0.075829 
672.000000	0.076980 
671.000000	0.077960 
670.000000	0.079310 
669.000000	0.080580 
668.000000	0.081870 
667.000000	0.083080 
666.000000	0.084440 
665.000000	0.085940 
664.000000	0.087420 
663.000000	0.088920 
662.000000	0.090590 
661.000000	0.092020 
660.000000	0.093610 
659.000000	0.095320 
658.000000	0.097100 
657.000000	0.098840 
656.000000	0.100730 
655.000000	0.102460 
654.000000	0.104420 
653.000000	0.106450 
652.000000	0.108370 
651.000000	0.110400 
650.000000	0.112460 
649.000000	0.114550 
648.000000	0.116710 
647.000000	0.118970 
646.000000	0.121210 
645.000000	0.123580 
644.000000	0.125910 
643.000000	0.128160 
642.000000	0.130620 
641.000000	0.132780 
640.000000	0.135200 
639.000000	0.137490 
638.000000	0.139860 
637.000000	0.142270 
636.000000	0.144890 
635.000000	0.147280 
634.000000	0.149810 
633.000000	0.152200 
632.000000	0.154740 
631.000000	0.157200 
630.000000	0.159630 
629.000000	0.162110 
628.000000	0.164660 
627.000000	0.167340 
626.000000	0.169880 
625.000000	0.172570 
624.000000	0.175140 
623.000000	0.177620 
622.000000	0.180370 
621.000000	0.182890 
620.000000	0.185600 
619.000000	0.188180 
618.000000	0.190750 
617.000000	0.193340 
616.000000	0.196060 
615.000000	0.198780 
614.000000	0.201420 
613.000000	0.203810 
612.000000	0.206280 
611.000000	0.208540 
610.000000	0.211020 
609.000000	0.213450 
608.000000	0.215840 
607.000000	0.218310 
606.000000	0.220640 
605.000000	0.223020 
604.000000	0.225290 
603.000000	0.227480 
602.000000	0.229950 
601.000000	0.232290 
600.000000	0.234560 
599.000000	0.236990 
598.000000	0.239410 
597.000000	0.241780 
596.000000	0.244040 
595.000000	0.246410 
594.000000	0.248640 
593.000000	0.251130 
592.000000	0.253460 
591.000000	0.255850 
590.000000	0.258340 
589.000000	0.260870 
588.000000	0.263350 
587.000000	0.265960 
586.000000	0.268480 
585.000000	0.271050 
584.000000	0.273500 
583.000000	0.276090 
582.000000	0.278560 
581.000000	0.281130 
580.000000	0.283660 
579.000000	0.286270 
578.000000	0.288930 
577.000000	0.291700 
576.000000	0.294270 
575.000000	0.297060 
574.000000	0.299640 
573.000000	0.302250 
572.000000	0.305190 
571.000000	0.308000 
570.000000	0.310910 
569.000000	0.313660 
568.000000	0.316570 
567.000000	0.319520 
566.000000	0.322280 
565.000000	0.325230 
564.000000	0.328000 
563.000000	0.330910 
562.000000	0.333920 
561.000000	0.336960 
560.000000	0.339910 
559.000000	0.342850 
558.000000	0.345570 
557.000000	0.348460 
556.000000	0.351150 
555.000000	0.353780 
554.000000	0.356190 
553.000000	0.358810 
552.000000	0.361250 
551.000000	0.363390 
550.000000	0.365850 
549.000000	0.367950 
548.000000	0.369960 
547.000000	0.371950 
546.000000	0.373440 
545.000000	0.375180 
544.000000	0.376800 
543.000000	0.378210 
542.000000	0.379410 
541.000000	0.380650 
540.000000	0.381660 
539.000000	0.382560 
538.000000	0.383060 
537.000000	0.383590 
536.000000	0.383950 
535.000000	0.384020 
534.000000	0.384140 
533.000000	0.383890 
532.000000	0.383520 
531.000000	0.382860 
530.000000	0.381780 
529.000000	0.380780 
528.000000	0.379820 
527.000000	0.378450 
526.000000	0.376580 
525.000000	0.374940 
524.000000	0.373010 
523.000000	0.370880 
522.000000	0.368390 
521.000000	0.365790 
520.000000	0.363200 
519.000000	0.360510 
518.000000	0.357570 
517.000000	0.354240 
516.000000	0.351240 
515.000000	0.347690 
514.000000	0.344050 
513.000000	0.340270 
512.000000	0.336430 
511.000000	0.332420 
510.000000	0.328290 
509.000000	0.324100 
508.000000	0.320000 
507.000000	0.315460 
506.000000	0.310840 
505.000000	0.306390 
504.000000	0.301490 
503.000000	0.296590 
502.000000	0.291570 
501.000000	0.286690 
500.000000	0.281600 
499.000000	0.276640 
498.000000	0.271620 
497.000000	0.266570 
496.000000	0.261600 
495.000000	0.256410 
494.000000	0.251220 
493.000000	0.246300 
492.000000	0.240940 
491.000000	0.236360 
490.000000	0.231090 
489.000000	0.226340 
488.000000	0.221810 
487.000000	0.217100 
486.000000	0.212270 
485.000000	0.207620 
484.000000	0.202830 
483.000000	0.198330 
482.000000	0.193850 
481.000000	0.189750 
480.000000	0.185500 
479.000000	0.181510 
478.000000	0.177660 
477.000000	0.173830 
476.000000	0.169840 
475.000000	0.166040 
474.000000	0.162290 
473.000000	0.158740 
472.000000	0.155540 
471.000000	0.152450 
470.000000	0.149480 
469.000000	0.146520 
468.000000	0.143750 
467.000000	0.141190 
466.000000	0.138410 
465.000000	0.136140 
464.000000	0.133960 
463.000000	0.131760 
462.000000	0.129970 
461.000000	0.128450 
460.000000	0.126970 
459.000000	0.125890 
458.000000	0.124430 
457.000000	0.123390 
456.000000	0.122510 
455.000000	0.121890 
454.000000	0.121360 
453.000000	0.120820 
452.000000	0.120770 
451.000000	0.120740 
450.000000	0.120960 
449.000000	0.121220 
448.000000	0.121920 
447.000000	0.122820 
446.000000	0.123930 
445.000000	0.125210 
444.000000	0.126720 
443.000000	0.128380 
442.000000	0.130030 
441.000000	0.132150 
440.000000	0.134650 
439.000000	0.137360 
438.000000	0.140120 
437.000000	0.143550 
436.000000	0.146510 
435.000000	0.150280 
434.000000	0.153800 
433.000000	0.157660 
432.000000	0.161680 
431.000000	0.165590 
430.000000	0.170060 
429.000000	0.174750 
428.000000	0.179630 
427.000000	0.184920 
426.000000	0.189640 
425.000000	0.195190 
424.000000	0.200800 
423.000000	0.206270 
422.000000	0.212170 
421.000000	0.218860 
420.000000	0.224970 
419.000000	0.230950 
418.000000	0.237100 
417.000000	0.243460 
416.000000	0.249560 
415.000000	0.255910 
414.000000	0.262140 
413.000000	0.268100 
412.000000	0.274280 
411.000000	0.280420 
410.000000	0.286420 
409.000000	0.292600 
408.000000	0.298860 
407.000000	0.304630 
406.000000	0.310280 
405.000000	0.315390 
404.000000	0.320610 
403.000000	0.325580 
402.000000	0.329980 
401.000000	0.334540 
400.000000	0.338800 

