PE UV                   SPECTRUM    ASCII       PEDS        1.60        
  -1
23MS013.SP
24/10/21
15:18:02.00
24/10/21
15:19:16.00


400.000000
1









4444

SCAN
1
1


0.0
480.0
2.00
MANUAL



UV/VIS




































#HDR
-1
-1
#GR
NM
A
0.00000011920928955078
0.0
700.000000
1.000000
301
8
0.316660
0.013010
#DATA
700.000000	0.013010 
699.000000	0.013360 
698.000000	0.013800 
697.000000	0.014150 
696.000000	0.014570 
695.000000	0.015040 
694.000000	0.015420 
693.000000	0.015930 
692.000000	0.016390 
691.000000	0.016930 
690.000000	0.017500 
689.000000	0.018070 
688.000000	0.018730 
687.000000	0.019310 
686.000000	0.019920 
685.000000	0.020650 
684.000000	0.021360 
683.000000	0.021950 
682.000000	0.022730 
681.000000	0.023500 
680.000000	0.024540 
679.000000	0.025240 
678.000000	0.026140 
677.000000	0.027160 
676.000000	0.027950 
675.000000	0.029120 
674.000000	0.030050 
673.000000	0.031210 
672.000000	0.032330 
671.000000	0.033410 
670.000000	0.034670 
669.000000	0.035810 
668.000000	0.037040 
667.000000	0.038260 
666.000000	0.039530 
665.000000	0.040830 
664.000000	0.042300 
663.000000	0.043700 
662.000000	0.045190 
661.000000	0.046800 
660.000000	0.048410 
659.000000	0.049980 
658.000000	0.051690 
657.000000	0.053270 
656.000000	0.055000 
655.000000	0.056750 
654.000000	0.058600 
653.000000	0.060530 
652.000000	0.062360 
651.000000	0.064530 
650.000000	0.066489 
649.000000	0.068529 
648.000000	0.070650 
647.000000	0.072640 
646.000000	0.074690 
645.000000	0.076900 
644.000000	0.079229 
643.000000	0.081520 
642.000000	0.083840 
641.000000	0.085910 
640.000000	0.088160 
639.000000	0.090390 
638.000000	0.092510 
637.000000	0.094839 
636.000000	0.097090 
635.000000	0.099400 
634.000000	0.101850 
633.000000	0.104170 
632.000000	0.106740 
631.000000	0.109020 
630.000000	0.111460 
629.000000	0.113610 
628.000000	0.116070 
627.000000	0.118490 
626.000000	0.120710 
625.000000	0.123310 
624.000000	0.125990 
623.000000	0.128290 
622.000000	0.130810 
621.000000	0.133310 
620.000000	0.135740 
619.000000	0.137970 
618.000000	0.140350 
617.000000	0.142790 
616.000000	0.145250 
615.000000	0.147650 
614.000000	0.150220 
613.000000	0.152460 
612.000000	0.154650 
611.000000	0.156790 
610.000000	0.158820 
609.000000	0.161090 
608.000000	0.163180 
607.000000	0.165420 
606.000000	0.167580 
605.000000	0.169850 
604.000000	0.172050 
603.000000	0.174070 
602.000000	0.176430 
601.000000	0.178510 
600.000000	0.180520 
599.000000	0.182540 
598.000000	0.184790 
597.000000	0.186940 
596.000000	0.188980 
595.000000	0.191290 
594.000000	0.193400 
593.000000	0.195690 
592.000000	0.197830 
591.000000	0.199990 
590.000000	0.202180 
589.000000	0.204390 
588.000000	0.206620 
587.000000	0.208920 
586.000000	0.211420 
585.000000	0.213800 
584.000000	0.216090 
583.000000	0.218480 
582.000000	0.220590 
581.000000	0.222940 
580.000000	0.225230 
579.000000	0.227650 
578.000000	0.229980 
577.000000	0.232550 
576.000000	0.235030 
575.000000	0.237680 
574.000000	0.240170 
573.000000	0.242720 
572.000000	0.245160 
571.000000	0.247680 
570.000000	0.250260 
569.000000	0.252800 
568.000000	0.255470 
567.000000	0.258210 
566.000000	0.260950 
565.000000	0.263610 
564.000000	0.266190 
563.000000	0.268890 
562.000000	0.271370 
561.000000	0.274000 
560.000000	0.276630 
559.000000	0.279340 
558.000000	0.282180 
557.000000	0.284830 
556.000000	0.287300 
555.000000	0.289770 
554.000000	0.291980 
553.000000	0.294340 
552.000000	0.296520 
551.000000	0.298310 
550.000000	0.300590 
549.000000	0.302540 
548.000000	0.304320 
547.000000	0.306090 
546.000000	0.307600 
545.000000	0.309210 
544.000000	0.310590 
543.000000	0.311770 
542.000000	0.312810 
541.000000	0.313820 
540.000000	0.314670 
539.000000	0.315420 
538.000000	0.315830 
537.000000	0.316320 
536.000000	0.316660 
535.000000	0.316650 
534.000000	0.316540 
533.000000	0.316050 
532.000000	0.315730 
531.000000	0.315130 
530.000000	0.314190 
529.000000	0.313270 
528.000000	0.311980 
527.000000	0.310670 
526.000000	0.309010 
525.000000	0.307400 
524.000000	0.305430 
523.000000	0.303340 
522.000000	0.301220 
521.000000	0.298720 
520.000000	0.296180 
519.000000	0.293480 
518.000000	0.290680 
517.000000	0.287560 
516.000000	0.284450 
515.000000	0.281190 
514.000000	0.277700 
513.000000	0.274310 
512.000000	0.270640 
511.000000	0.266860 
510.000000	0.262750 
509.000000	0.258540 
508.000000	0.254360 
507.000000	0.250080 
506.000000	0.245650 
505.000000	0.241410 
504.000000	0.236830 
503.000000	0.232270 
502.000000	0.227590 
501.000000	0.222610 
500.000000	0.217750 
499.000000	0.212680 
498.000000	0.207900 
497.000000	0.202910 
496.000000	0.198200 
495.000000	0.193300 
494.000000	0.188490 
493.000000	0.183740 
492.000000	0.178870 
491.000000	0.174150 
490.000000	0.169160 
489.000000	0.164430 
488.000000	0.159990 
487.000000	0.155520 
486.000000	0.150920 
485.000000	0.146680 
484.000000	0.142340 
483.000000	0.137900 
482.000000	0.133660 
481.000000	0.129400 
480.000000	0.125390 
479.000000	0.121360 
478.000000	0.117620 
477.000000	0.113880 
476.000000	0.110080 
475.000000	0.106880 
474.000000	0.103240 
473.000000	0.099830 
472.000000	0.096629 
471.000000	0.093470 
470.000000	0.090390 
469.000000	0.087490 
468.000000	0.084790 
467.000000	0.082230 
466.000000	0.079769 
465.000000	0.077640 
464.000000	0.075500 
463.000000	0.073289 
462.000000	0.071660 
461.000000	0.070040 
460.000000	0.068550 
459.000000	0.067370 
458.000000	0.066010 
457.000000	0.065160 
456.000000	0.064400 
455.000000	0.063659 
454.000000	0.063170 
453.000000	0.062750 
452.000000	0.062570 
451.000000	0.062610 
450.000000	0.062680 
449.000000	0.062930 
448.000000	0.063450 
447.000000	0.064339 
446.000000	0.065000 
445.000000	0.066090 
444.000000	0.067720 
443.000000	0.069230 
442.000000	0.070950 
441.000000	0.072929 
440.000000	0.075360 
439.000000	0.078020 
438.000000	0.080269 
437.000000	0.083110 
436.000000	0.086020 
435.000000	0.089359 
434.000000	0.092840 
433.000000	0.096750 
432.000000	0.100160 
431.000000	0.104250 
430.000000	0.108460 
429.000000	0.112660 
428.000000	0.117060 
427.000000	0.121600 
426.000000	0.126330 
425.000000	0.131480 
424.000000	0.136560 
423.000000	0.142190 
422.000000	0.147770 
421.000000	0.153590 
420.000000	0.158980 
419.000000	0.164430 
418.000000	0.169960 
417.000000	0.175760 
416.000000	0.181460 
415.000000	0.187580 
414.000000	0.193520 
413.000000	0.199530 
412.000000	0.205540 
411.000000	0.211290 
410.000000	0.216850 
409.000000	0.222360 
408.000000	0.228000 
407.000000	0.233340 
406.000000	0.238690 
405.000000	0.243680 
404.000000	0.248560 
403.000000	0.252990 
402.000000	0.257390 
401.000000	0.261500 
400.000000	0.265550 

